#S 1 spectral density
#N 2
#UFWHM 13.4901
#L  abscissas [um]  spectral density
-58.5938  5.79883e+18
-58.4764  5.35586e+18
-58.3591  5.4883e+18
-58.2418  6.35784e+18
-58.1245  7.91311e+18
-58.0072  9.87701e+18
-57.8899  1.18213e+19
-57.7726  1.32886e+19
-57.6553  1.39097e+19
-57.538  1.34949e+19
-57.4207  1.20866e+19
-57.3034  9.9289e+18
-57.1861  7.4106e+18
-57.0688  4.94763e+18
-56.9515  2.91424e+18
-56.8342  1.5499e+18
-56.7169  9.60149e+17
-56.5996  1.09183e+18
-56.4823  1.81108e+18
-56.365  2.92533e+18
-56.2477  4.26414e+18
-56.1303  5.66136e+18
-56.013  6.98963e+18
-55.8957  8.14425e+18
-55.7784  9.03533e+18
-55.6611  9.57201e+18
-55.5438  9.67838e+18
-55.4265  9.30671e+18
-55.3092  8.4829e+18
-55.1919  7.30968e+18
-55.0746  5.9354e+18
-54.9573  4.60431e+18
-54.84  3.52385e+18
-54.7227  2.90076e+18
-54.6054  2.85173e+18
-54.4881  3.41158e+18
-54.3708  4.52019e+18
-54.2535  6.0407e+18
-54.1362  7.80579e+18
-54.0189  9.62869e+18
-53.9016  1.13687e+19
-53.7842  1.29146e+19
-53.6669  1.41937e+19
-53.5496  1.51525e+19
-53.4323  1.57886e+19
-53.315  1.6084e+19
-53.1977  1.60555e+19
-53.0804  1.57374e+19
-52.9631  1.51751e+19
-52.8458  1.44395e+19
-52.7285  1.36301e+19
-52.6112  1.28312e+19
-52.4939  1.212e+19
-52.3766  1.15441e+19
-52.2593  1.11149e+19
-52.142  1.08104e+19
-52.0247  1.05825e+19
-51.9074  1.03835e+19
-51.7901  1.0165e+19
-51.6728  9.90331e+18
-51.5555  9.57929e+18
-51.4381  9.20275e+18
-51.3208  8.76546e+18
-51.2035  8.29691e+18
-51.0862  7.80905e+18
-50.9689  7.36945e+18
-50.8516  7.07719e+18
-50.7343  7.06628e+18
-50.617  7.51756e+18
-50.4997  8.6044e+18
-50.3824  1.04556e+19
-50.2651  1.31327e+19
-50.1478  1.6516e+19
-50.0305  2.04057e+19
-49.9132  2.44113e+19
-49.7959  2.8094e+19
-49.6786  3.10083e+19
-49.5613  3.27743e+19
-49.444  3.31468e+19
-49.3267  3.2087e+19
-49.2094  2.97263e+19
-49.092  2.63776e+19
-48.9747  2.24212e+19
-48.8574  1.83093e+19
-48.7401  1.44135e+19
-48.6228  1.10318e+19
-48.5055  8.32799e+18
-48.3882  6.3272e+18
-48.2709  4.96122e+18
-48.1536  4.08146e+18
-48.0363  3.52052e+18
-47.919  3.12306e+18
-47.8017  2.79025e+18
-47.6844  2.49656e+18
-47.5671  2.29143e+18
-47.4498  2.293e+18
-47.3325  2.63589e+18
-47.2152  3.45791e+18
-47.0979  4.80712e+18
-46.9806  6.63586e+18
-46.8633  8.76076e+18
-46.7459  1.08902e+19
-46.6286  1.2658e+19
-46.5113  1.36995e+19
-46.394  1.3774e+19
-46.2767  1.27927e+19
-46.1594  1.09133e+19
-46.0421  8.50732e+18
-45.9248  6.09895e+18
-45.8075  4.24199e+18
-45.6902  3.40306e+18
-45.5729  3.8304e+18
-45.4556  5.47256e+18
-45.3383  7.99954e+18
-45.221  1.08397e+19
-45.1037  1.33569e+19
-44.9864  1.49886e+19
-44.8691  1.53716e+19
-44.7518  1.44628e+19
-44.6345  1.2535e+19
-44.5172  1.00956e+19
-44.3998  7.7652e+18
-44.2825  6.11693e+18
-44.1652  5.54168e+18
-44.0479  6.13777e+18
-43.9306  7.74036e+18
-43.8133  9.91906e+18
-43.696  1.21624e+19
-43.5787  1.39598e+19
-43.4614  1.49335e+19
-43.3441  1.49068e+19
-43.2268  1.39495e+19
-43.1095  1.22918e+19
-42.9922  1.03039e+19
-42.8749  8.38579e+18
-42.7576  6.89625e+18
-42.6403  6.07122e+18
-42.523  6.05505e+18
-42.4057  6.83601e+18
-42.2884  8.30346e+18
-42.171  1.02547e+19
-42.0537  1.24376e+19
-41.9364  1.45582e+19
-41.8191  1.63273e+19
-41.7018  1.75005e+19
-41.5845  1.79078e+19
-41.4672  1.74875e+19
-41.3499  1.63092e+19
-41.2326  1.45798e+19
-41.1153  1.25996e+19
-40.998  1.07201e+19
-40.8807  9.25985e+18
-40.7634  8.43676e+18
-40.6461  8.3307e+18
-40.5288  8.83813e+18
-40.4115  9.73325e+18
-40.2942  1.07129e+19
-40.1769  1.14576e+19
-40.0596  1.1733e+19
-39.9423  1.14556e+19
-39.825  1.06896e+19
-39.7076  9.61238e+18
-39.5903  8.49016e+18
-39.473  7.57408e+18
-39.3557  7.09435e+18
-39.2384  7.16102e+18
-39.1211  7.81089e+18
-39.0038  9.0247e+18
-38.8865  1.07636e+19
-38.7692  1.29956e+19
-38.6519  1.5725e+19
-38.5346  1.89651e+19
-38.4173  2.26808e+19
-38.3  2.67692e+19
-38.1827  3.09634e+19
-38.0654  3.48709e+19
-37.9481  3.8004e+19
-37.8308  3.98384e+19
-37.7135  3.99673e+19
-37.5962  3.81541e+19
-37.4789  3.44578e+19
-37.3615  2.92446e+19
-37.2442  2.31296e+19
-37.1269  1.68927e+19
-37.0096  1.12923e+19
-36.8923  6.989e+18
-36.775  4.36133e+18
-36.6577  3.46875e+18
-36.5404  4.06628e+18
-36.4231  5.68127e+18
-36.3058  7.72041e+18
-36.1885  9.6291e+18
-36.0712  1.09863e+19
-35.9539  1.15737e+19
-35.8366  1.1389e+19
-35.7193  1.05921e+19
-35.602  9.46031e+18
-35.4847  8.28309e+18
-35.3674  7.26841e+18
-35.2501  6.53833e+18
-35.1328  6.1097e+18
-35.0154  5.90754e+18
-34.8981  5.81758e+18
-34.7808  5.74102e+18
-34.6635  5.62774e+18
-34.5462  5.48325e+18
-34.4289  5.36426e+18
-34.3116  5.35509e+18
-34.1943  5.53225e+18
-34.077  5.94865e+18
-33.9597  6.60185e+18
-33.8424  7.44797e+18
-33.7251  8.37733e+18
-33.6078  9.28948e+18
-33.4905  1.00628e+19
-33.3732  1.05909e+19
-33.2559  1.07998e+19
-33.1386  1.0656e+19
-33.0213  1.01602e+19
-32.904  9.36356e+18
-32.7867  8.33977e+18
-32.6693  7.21102e+18
-32.552  6.0907e+18
-32.4347  5.13449e+18
-32.3174  4.46342e+18
-32.2001  4.17135e+18
-32.0828  4.31314e+18
-31.9655  4.87539e+18
-31.8482  5.83344e+18
-31.7309  7.1013e+18
-31.6136  8.57973e+18
-31.4963  1.01805e+19
-31.379  1.18129e+19
-31.2617  1.34273e+19
-31.1444  1.49682e+19
-31.0271  1.63675e+19
-30.9098  1.75847e+19
-30.7925  1.85378e+19
-30.6752  1.91749e+19
-30.5579  1.94463e+19
-30.4406  1.93289e+19
-30.3232  1.88688e+19
-30.2059  1.81531e+19
-30.0886  1.73381e+19
-29.9713  1.66001e+19
-29.854  1.611e+19
-29.7367  1.60071e+19
-29.6194  1.63709e+19
-29.5021  1.72023e+19
-29.3848  1.84246e+19
-29.2675  1.99073e+19
-29.1502  2.14955e+19
-29.0329  2.3044e+19
-28.9156  2.44183e+19
-28.7983  2.55549e+19
-28.681  2.64253e+19
-28.5637  2.7077e+19
-28.4464  2.7596e+19
-28.3291  2.81228e+19
-28.2118  2.88091e+19
-28.0944  2.98712e+19
-27.9771  3.14843e+19
-27.8598  3.37937e+19
-27.7425  3.68928e+19
-27.6252  4.06942e+19
-27.5079  4.50748e+19
-27.3906  4.97034e+19
-27.2733  5.41841e+19
-27.156  5.80264e+19
-27.0387  6.07745e+19
-26.9214  6.20709e+19
-26.8041  6.17176e+19
-26.6868  5.97184e+19
-26.5695  5.62698e+19
-26.4522  5.17447e+19
-26.3349  4.66326e+19
-26.2176  4.1434e+19
-26.1003  3.65841e+19
-25.983  3.23906e+19
-25.8657  2.90161e+19
-25.7483  2.64656e+19
-25.631  2.4645e+19
-25.5137  2.33726e+19
-25.3964  2.24419e+19
-25.2791  2.16777e+19
-25.1618  2.09476e+19
-25.0445  2.01749e+19
-24.9272  1.93767e+19
-24.8099  1.8571e+19
-24.6926  1.78723e+19
-24.5753  1.74122e+19
-24.458  1.73064e+19
-24.3407  1.77109e+19
-24.2234  1.87542e+19
-24.1061  2.05396e+19
-23.9888  2.31741e+19
-23.8715  2.6692e+19
-23.7542  3.11687e+19
-23.6369  3.66123e+19
-23.5196  4.30358e+19
-23.4023  5.04806e+19
-23.2849  5.89125e+19
-23.1676  6.82839e+19
-23.0503  7.85138e+19
-22.933  8.93222e+19
-22.8157  1.00462e+20
-22.6984  1.11428e+20
-22.5811  1.21749e+20
-22.4638  1.30985e+20
-22.3465  1.38608e+20
-22.2292  1.44403e+20
-22.1119  1.48234e+20
-21.9946  1.50166e+20
-21.8773  1.50385e+20
-21.76  1.49277e+20
-21.6427  1.47213e+20
-21.5254  1.44507e+20
-21.4081  1.41477e+20
-21.2908  1.38301e+20
-21.1735  1.3507e+20
-21.0561  1.31894e+20
-20.9388  1.28804e+20
-20.8215  1.26022e+20
-20.7042  1.23719e+20
-20.5869  1.22258e+20
-20.4696  1.21968e+20
-20.3523  1.23319e+20
-20.235  1.26651e+20
-20.1177  1.32418e+20
-20.0004  1.40819e+20
-19.8831  1.52011e+20
-19.7658  1.66024e+20
-19.6485  1.82731e+20
-19.5312  2.01766e+20
-19.4139  2.226e+20
-19.2966  2.44459e+20
-19.1793  2.66405e+20
-19.062  2.87319e+20
-18.9447  3.06131e+20
-18.8274  3.21856e+20
-18.71  3.33618e+20
-18.5927  3.41016e+20
-18.4754  3.44061e+20
-18.3581  3.43083e+20
-18.2408  3.38999e+20
-18.1235  3.32836e+20
-18.0062  3.25968e+20
-17.8889  3.19772e+20
-17.7716  3.15383e+20
-17.6543  3.14124e+20
-17.537  3.16701e+20
-17.4197  3.23869e+20
-17.3024  3.35925e+20
-17.1851  3.53118e+20
-17.0678  3.75384e+20
-16.9505  4.02434e+20
-16.8332  4.33833e+20
-16.7159  4.68915e+20
-16.5986  5.06888e+20
-16.4813  5.46729e+20
-16.364  5.87373e+20
-16.2466  6.27623e+20
-16.1293  6.66182e+20
-16.012  7.02347e+20
-15.8947  7.35218e+20
-15.7774  7.64379e+20
-15.6601  7.89753e+20
-15.5428  8.11636e+20
-15.4255  8.3067e+20
-15.3082  8.47993e+20
-15.1909  8.64488e+20
-15.0736  8.81854e+20
-14.9563  9.01304e+20
-14.839  9.24174e+20
-14.7217  9.51328e+20
-14.6044  9.83681e+20
-14.4871  1.02132e+21
-14.3698  1.06424e+21
-14.2525  1.11175e+21
-14.1352  1.16291e+21
-14.0178  1.21628e+21
-13.9005  1.27057e+21
-13.7832  1.32435e+21
-13.6659  1.37617e+21
-13.5486  1.42511e+21
-13.4313  1.47064e+21
-13.314  1.51237e+21
-13.1967  1.55047e+21
-13.0794  1.58558e+21
-12.9621  1.61846e+21
-12.8448  1.65014e+21
-12.7275  1.68172e+21
-12.6102  1.71432e+21
-12.4929  1.74885e+21
-12.3756  1.78619e+21
-12.2583  1.82702e+21
-12.141  1.87187e+21
-12.0237  1.92125e+21
-11.9064  1.97552e+21
-11.7891  2.0352e+21
-11.6718  2.10085e+21
-11.5544  2.17308e+21
-11.4371  2.25237e+21
-11.3198  2.33965e+21
-11.2025  2.43533e+21
-11.0852  2.54e+21
-10.9679  2.65392e+21
-10.8506  2.77686e+21
-10.7333  2.90829e+21
-10.616  3.04724e+21
-10.4987  3.19246e+21
-10.3814  3.34185e+21
-10.2641  3.49329e+21
-10.1468  3.64496e+21
-10.0295  3.79434e+21
-9.91217  3.93949e+21
-9.79487  4.07914e+21
-9.67756  4.21228e+21
-9.56026  4.3384e+21
-9.44295  4.45774e+21
-9.32565  4.57162e+21
-9.20834  4.68122e+21
-9.09104  4.78875e+21
-8.97373  4.89617e+21
-8.85643  5.00627e+21
-8.73913  5.12082e+21
-8.62182  5.24194e+21
-8.50452  5.37092e+21
-8.38721  5.50889e+21
-8.26991  5.65561e+21
-8.1526  5.81103e+21
-8.03529  5.97372e+21
-7.91799  6.14257e+21
-7.80069  6.31589e+21
-7.68338  6.49176e+21
-7.56608  6.6691e+21
-7.44877  6.84678e+21
-7.33146  7.02394e+21
-7.21416  7.20041e+21
-7.09685  7.37643e+21
-6.97955  7.5523e+21
-6.86224  7.72859e+21
-6.74494  7.90582e+21
-6.62763  8.08368e+21
-6.51033  8.26241e+21
-6.39302  8.44135e+21
-6.27572  8.61962e+21
-6.15842  8.79624e+21
-6.04111  8.96983e+21
-5.92381  9.13903e+21
-5.8065  9.30326e+21
-5.68919  9.46163e+21
-5.57189  9.61415e+21
-5.45458  9.76141e+21
-5.33728  9.90482e+21
-5.21997  1.00454e+22
-5.10267  1.01858e+22
-4.98536  1.03281e+22
-4.86806  1.04742e+22
-4.75075  1.0626e+22
-4.63345  1.07847e+22
-4.51614  1.09507e+22
-4.39884  1.11232e+22
-4.28154  1.13008e+22
-4.16423  1.14816e+22
-4.04692  1.16619e+22
-3.92962  1.18389e+22
-3.81231  1.20091e+22
-3.69501  1.21689e+22
-3.5777  1.23157e+22
-3.4604  1.2447e+22
-3.34309  1.25617e+22
-3.22579  1.26593e+22
-3.10849  1.2741e+22
-2.99118  1.28084e+22
-2.87387  1.28647e+22
-2.75657  1.29136e+22
-2.63926  1.29595e+22
-2.52196  1.30071e+22
-2.40465  1.3061e+22
-2.28735  1.31251e+22
-2.17005  1.32035e+22
-2.05274  1.32988e+22
-1.93544  1.3412e+22
-1.81813  1.35443e+22
-1.70083  1.36944e+22
-1.58352  1.38606e+22
-1.46622  1.404e+22
-1.34891  1.42289e+22
-1.2316  1.4423e+22
-1.1143  1.46177e+22
-0.996995  1.48082e+22
-0.87969  1.49903e+22
-0.762385  1.51585e+22
-0.64508  1.53099e+22
-0.527775  1.54408e+22
-0.41047  1.55483e+22
-0.293165  1.56302e+22
-0.17586  1.56854e+22
-0.058555  1.57126e+22
0.05875  1.57112e+22
0.176055  1.56816e+22
0.29336  1.5624e+22
0.410665  1.55397e+22
0.52797  1.54298e+22
0.645275  1.52969e+22
0.76258  1.51435e+22
0.879885  1.49735e+22
0.99719  1.47904e+22
1.1145  1.45986e+22
1.2318  1.4403e+22
1.3491  1.42081e+22
1.46641  1.40187e+22
1.58371  1.38388e+22
1.70102  1.36723e+22
1.81832  1.35219e+22
1.93563  1.33896e+22
2.05294  1.32761e+22
2.17024  1.31811e+22
2.28754  1.3103e+22
2.40485  1.30387e+22
2.52216  1.29849e+22
2.63946  1.29375e+22
2.75677  1.28915e+22
2.87407  1.28427e+22
2.99137  1.27863e+22
3.10868  1.27187e+22
3.22599  1.26367e+22
3.34329  1.25387e+22
3.4606  1.24237e+22
3.5779  1.22919e+22
3.69521  1.21446e+22
3.81251  1.19842e+22
3.92982  1.18132e+22
4.04712  1.16352e+22
4.16443  1.14541e+22
4.28173  1.12725e+22
4.39903  1.10939e+22
4.51634  1.09206e+22
4.63364  1.0754e+22
4.75095  1.05946e+22
4.86825  1.04421e+22
4.98556  1.02955e+22
5.10286  1.01531e+22
5.22017  1.00122e+22
5.33748  9.87144e+21
5.45478  9.7282e+21
5.57209  9.58099e+21
5.68939  9.42839e+21
5.8067  9.26999e+21
5.924  9.10575e+21
6.0413  8.93656e+21
6.15861  8.76297e+21
6.27591  8.5862e+21
6.39322  8.40782e+21
6.51052  8.22868e+21
6.62783  8.04964e+21
6.74514  7.87136e+21
6.86244  7.69417e+21
6.97975  7.51758e+21
7.09705  7.34167e+21
7.21436  7.1657e+21
7.33166  6.9891e+21
7.44897  6.81233e+21
7.56627  6.63512e+21
7.68358  6.45819e+21
7.80088  6.28272e+21
7.91819  6.10997e+21
8.03549  5.94179e+21
8.1528  5.77975e+21
8.2701  5.62485e+21
8.38741  5.47852e+21
8.50471  5.34089e+21
8.62202  5.21225e+21
8.73932  5.09119e+21
8.85662  4.97672e+21
8.97393  4.86686e+21
9.09123  4.75932e+21
9.20854  4.6519e+21
9.32584  4.54237e+21
9.44315  4.42869e+21
9.56045  4.3094e+21
9.67776  4.18369e+21
9.79506  4.05102e+21
9.91237  3.91194e+21
10.0297  3.76743e+21
10.147  3.619e+21
10.2643  3.46838e+21
10.3816  3.31785e+21
10.4989  3.16952e+21
10.6162  3.02546e+21
10.7335  2.88743e+21
10.8508  2.757e+21
10.9681  2.63499e+21
11.0854  2.52213e+21
11.2027  2.41832e+21
11.32  2.32341e+21
11.4373  2.23696e+21
11.5546  2.15829e+21
11.6719  2.08666e+21
11.7893  2.02175e+21
11.9066  1.96264e+21
12.0239  1.90879e+21
12.1412  1.86007e+21
12.2585  1.81564e+21
12.3758  1.77532e+21
12.4931  1.73837e+21
12.6104  1.70421e+21
12.7277  1.67188e+21
12.845  1.64047e+21
12.9623  1.60892e+21
13.0796  1.57627e+21
13.1969  1.54115e+21
13.3142  1.5032e+21
13.4315  1.46155e+21
13.5488  1.41607e+21
13.6661  1.36715e+21
13.7834  1.31539e+21
13.9007  1.26178e+21
14.018  1.20759e+21
14.1354  1.1544e+21
14.2527  1.10354e+21
14.37  1.05628e+21
14.4873  1.01363e+21
14.6046  9.76135e+20
14.7219  9.43986e+20
14.8392  9.16935e+20
14.9565  8.94192e+20
15.0738  8.74884e+20
15.1911  8.57579e+20
15.3084  8.41065e+20
15.4257  8.23887e+20
15.543  8.04948e+20
15.6603  7.8322e+20
15.7776  7.58022e+20
15.8949  7.29086e+20
16.0122  6.96576e+20
16.1295  6.60766e+20
16.2468  6.22502e+20
16.3641  5.82733e+20
16.4815  5.42488e+20
16.5988  5.03027e+20
16.7161  4.65455e+20
16.8334  4.30686e+20
16.9507  3.99581e+20
17.068  3.72809e+20
17.1853  3.50796e+20
17.3026  3.33836e+20
17.4199  3.21904e+20
17.5372  3.14845e+20
17.6545  3.12381e+20
17.7718  3.13727e+20
17.8891  3.18065e+20
18.0064  3.243e+20
18.1237  3.3117e+20
18.241  3.37232e+20
18.3583  3.41252e+20
18.4756  3.42117e+20
18.5929  3.38982e+20
18.7102  3.31403e+20
18.8275  3.19573e+20
18.9449  3.03823e+20
19.0622  2.8498e+20
19.1795  2.64118e+20
19.2968  2.42274e+20
19.4141  2.20572e+20
19.5314  1.99901e+20
19.6487  1.81052e+20
19.766  1.64595e+20
19.8833  1.50763e+20
20.0006  1.39803e+20
20.1179  1.3163e+20
20.2352  1.26093e+20
20.3525  1.22895e+20
20.4698  1.2168e+20
20.5871  1.22061e+20
20.7044  1.2362e+20
20.8217  1.25989e+20
20.939  1.28841e+20
21.0563  1.31913e+20
21.1736  1.35106e+20
21.291  1.3831e+20
21.4083  1.41496e+20
21.5256  1.4448e+20
21.6429  1.47139e+20
21.7602  1.49166e+20
21.8775  1.5021e+20
21.9948  1.49887e+20
22.1121  1.47905e+20
22.2294  1.43976e+20
22.3467  1.38103e+20
22.464  1.30359e+20
22.5813  1.21084e+20
22.6986  1.107e+20
22.8159  9.97197e+19
22.9332  8.86059e+19
23.0505  7.78144e+19
23.1678  6.76349e+19
23.2851  5.8292e+19
23.4024  4.99329e+19
23.5198  4.25526e+19
23.6371  3.61829e+19
23.7544  3.0801e+19
23.8717  2.63784e+19
23.989  2.29096e+19
24.1063  2.0309e+19
24.2236  1.85502e+19
24.3409  1.75365e+19
24.4582  1.71296e+19
24.5755  1.72482e+19
24.6928  1.77108e+19
24.8101  1.83991e+19
24.9274  1.91803e+19
25.0447  1.99821e+19
25.162  2.07513e+19
25.2793  2.14902e+19
25.3966  2.22636e+19
25.5139  2.32125e+19
25.6312  2.4521e+19
25.7485  2.63977e+19
25.8658  2.90024e+19
25.9832  3.2443e+19
26.1005  3.67086e+19
26.2178  4.16315e+19
26.3351  4.68707e+19
26.4524  5.19989e+19
26.5697  5.65154e+19
26.687  5.9931e+19
26.8043  6.18854e+19
26.9216  6.21672e+19
27.0389  6.07724e+19
27.1562  5.79373e+19
27.2735  5.40234e+19
27.3908  4.94897e+19
27.5081  4.48352e+19
27.6254  4.04534e+19
27.7427  3.66762e+19
27.86  3.36394e+19
27.9773  3.13812e+19
28.0946  2.98277e+19
28.212  2.8812e+19
28.3293  2.81614e+19
28.4466  2.76624e+19
28.5639  2.71453e+19
28.6812  2.6486e+19
28.7985  2.55944e+19
28.9158  2.44237e+19
29.0331  2.30132e+19
29.1504  2.14356e+19
29.2677  1.98214e+19
29.385  1.83259e+19
29.5023  1.71036e+19
29.6196  1.62778e+19
29.7369  1.59227e+19
29.8542  1.60393e+19
29.9715  1.65413e+19
30.0888  1.72951e+19
30.2061  1.81199e+19
30.3234  1.8836e+19
30.4407  1.93017e+19
30.558  1.94144e+19
30.6754  1.91501e+19
30.7927  1.84967e+19
30.91  1.75261e+19
31.0273  1.63071e+19
31.1446  1.48957e+19
31.2619  1.33515e+19
31.3792  1.17329e+19
31.4965  1.00955e+19
31.6138  8.50357e+18
31.7311  7.0315e+18
31.8484  5.78517e+18
31.9657  4.85476e+18
32.083  4.30572e+18
32.2003  4.18697e+18
32.3176  4.49696e+18
32.4349  5.17147e+18
32.5522  6.12992e+18
32.6695  7.24235e+18
32.7868  8.36669e+18
32.9042  9.37033e+18
33.0215  1.01558e+19
33.1388  1.0628e+19
33.2561  1.07595e+19
33.3734  1.05313e+19
33.4907  9.99445e+18
33.608  9.22233e+18
33.7253  8.31537e+18
33.8426  7.39061e+18
33.9599  6.56073e+18
34.0772  5.91947e+18
34.1945  5.51572e+18
34.3118  5.34911e+18
34.4291  5.36806e+18
34.5464  5.49365e+18
34.6637  5.64621e+18
34.781  5.76461e+18
34.8983  5.84882e+18
35.0156  5.95286e+18
35.1329  6.1776e+18
35.2503  6.62686e+18
35.3676  7.37437e+18
35.4849  8.39622e+18
35.6022  9.58074e+18
35.7195  1.06959e+19
35.8368  1.14674e+19
35.9541  1.16192e+19
36.0714  1.09857e+19
36.1887  9.59836e+18
36.306  7.65896e+18
36.4233  5.60632e+18
36.5406  4.00862e+18
36.6579  3.45272e+18
36.7752  4.40726e+18
36.8925  7.10738e+18
37.0098  1.14871e+19
37.1271  1.71479e+19
37.2444  2.34479e+19
37.3617  2.95994e+19
37.479  3.48226e+19
37.5964  3.8499e+19
37.7137  4.02862e+19
37.831  4.00923e+19
37.9483  3.81972e+19
38.0656  3.49866e+19
38.1829  3.10163e+19
38.3002  2.67592e+19
38.4175  2.26257e+19
38.5348  1.8875e+19
38.6521  1.561e+19
38.7694  1.28723e+19
38.8867  1.06411e+19
39.004  8.91654e+18
39.1213  7.72459e+18
39.2386  7.10378e+18
39.3559  7.06809e+18
39.4732  7.57669e+18
39.5905  8.50932e+18
39.7078  9.6523e+18
39.8251  1.07425e+19
39.9425  1.1512e+19
40.0598  1.17695e+19
40.1771  1.14787e+19
40.2944  1.07288e+19
40.4117  9.74228e+18
40.529  8.8397e+18
40.6463  8.33454e+18
40.7636  8.44977e+18
40.8809  9.27579e+18
40.9982  1.07442e+19
41.1155  1.26202e+19
41.2328  1.45897e+19
41.3501  1.63019e+19
41.4674  1.74592e+19
41.5847  1.78583e+19
41.702  1.74324e+19
41.8193  1.62491e+19
41.9366  1.44754e+19
42.0539  1.23667e+19
42.1712  1.02029e+19
42.2885  8.2696e+18
42.4059  6.82651e+18
42.5232  6.06792e+18
42.6405  6.10097e+18
42.7578  6.93644e+18
42.8751  8.43489e+18
42.9924  1.03505e+19
43.1097  1.23164e+19
43.227  1.3961e+19
43.3443  1.48999e+19
43.4616  1.48992e+19
43.5789  1.39002e+19
43.6962  1.20992e+19
43.8135  9.85393e+18
43.9308  7.6931e+18
44.0481  6.12846e+18
44.1654  5.56344e+18
44.2827  6.17104e+18
44.4  7.83421e+18
44.5173  1.01615e+19
44.6347  1.2581e+19
44.752  1.44712e+19
44.8693  1.5331e+19
44.9866  1.48871e+19
45.1039  1.32241e+19
45.2212  1.06814e+19
45.3385  7.8431e+18
45.4558  5.35926e+18
45.5731  3.77411e+18
45.6904  3.42131e+18
45.8077  4.33067e+18
45.925  6.24382e+18
46.0423  8.69173e+18
46.1596  1.11109e+19
46.2769  1.2969e+19
46.3942  1.39268e+19
46.5115  1.38096e+19
46.6288  1.27251e+19
46.7461  1.09191e+19
46.8634  8.76388e+18
46.9808  6.62676e+18
47.0981  4.7938e+18
47.2154  3.44017e+18
47.3327  2.62262e+18
47.45  2.27693e+18
47.5673  2.27636e+18
47.6846  2.4838e+18
47.8019  2.78107e+18
47.9192  3.11924e+18
48.0365  3.53107e+18
48.1538  4.11464e+18
48.2711  5.02349e+18
48.3884  6.42854e+18
48.5057  8.46902e+18
48.623  1.12292e+19
48.7403  1.4656e+19
48.8576  1.85957e+19
48.9749  2.27524e+19
49.0922  2.67265e+19
49.2095  3.00744e+19
49.3269  3.2427e+19
49.4442  3.34546e+19
49.5615  3.30273e+19
49.6788  3.11913e+19
49.7961  2.82128e+19
49.9134  2.44484e+19
50.0307  2.03825e+19
50.148  1.64621e+19
50.2653  1.30436e+19
50.3826  1.03756e+19
50.4999  8.52728e+18
50.6172  7.46682e+18
50.7345  7.04957e+18
50.8518  7.09604e+18
50.9691  7.4154e+18
