#S 1 spectral density
#N 2
#UFWHM 12.0824
#L  abscissas [um]  spectral density
-58.5938  2.06576e+19
-58.4764  2.27004e+19
-58.3591  2.4242e+19
-58.2418  2.52046e+19
-58.1245  2.54115e+19
-58.0072  2.46862e+19
-57.8899  2.28976e+19
-57.7726  2.00213e+19
-57.6553  1.62504e+19
-57.538  1.19661e+19
-57.4207  7.72895e+18
-57.3034  4.19423e+18
-57.1861  1.98176e+18
-57.0688  1.57235e+18
-56.9515  3.20444e+18
-56.8342  6.86145e+18
-56.7169  1.22816e+19
-56.5996  1.89967e+19
-56.4823  2.64794e+19
-56.365  3.41871e+19
-56.2477  4.15582e+19
-56.1303  4.82093e+19
-56.013  5.379e+19
-55.8957  5.80184e+19
-55.7784  6.06343e+19
-55.6611  6.14618e+19
-55.5438  6.03804e+19
-55.4265  5.74148e+19
-55.3092  5.26816e+19
-55.1919  4.64642e+19
-55.0746  3.92418e+19
-54.9573  3.15334e+19
-54.84  2.39742e+19
-54.7227  1.70646e+19
-54.6054  1.12868e+19
-54.4881  6.88023e+18
-54.3708  3.90854e+18
-54.2535  2.27731e+18
-54.1362  1.76512e+18
-54.0189  2.09259e+18
-53.9016  2.974e+18
-53.7842  4.15463e+18
-53.6669  5.42943e+18
-53.5496  6.66845e+18
-53.4323  7.75764e+18
-53.315  8.64576e+18
-53.1977  9.29354e+18
-53.0804  9.66102e+18
-52.9631  9.78777e+18
-52.8458  9.70796e+18
-52.7285  9.47978e+18
-52.6112  9.21423e+18
-52.4939  9.01458e+18
-52.3766  8.979e+18
-52.2593  9.15004e+18
-52.142  9.56889e+18
-52.0247  1.02097e+19
-51.9074  1.10142e+19
-51.7901  1.18997e+19
-51.6728  1.27493e+19
-51.5555  1.34451e+19
-51.4381  1.38864e+19
-51.3208  1.39385e+19
-51.2035  1.35412e+19
-51.0862  1.26228e+19
-50.9689  1.12243e+19
-50.8516  9.42574e+18
-50.7343  7.36137e+18
-50.617  5.26355e+18
-50.4997  3.39183e+18
-50.3824  1.97436e+18
-50.2651  1.21349e+18
-50.1478  1.18534e+18
-50.0305  1.8548e+18
-49.9132  3.06343e+18
-49.7959  4.55375e+18
-49.6786  6.02392e+18
-49.5613  7.17668e+18
-49.444  7.78263e+18
-49.3267  7.72937e+18
-49.2094  7.04502e+18
-49.092  5.87419e+18
-48.9747  4.47874e+18
-48.8574  3.16261e+18
-48.7401  2.25625e+18
-48.6228  2.04436e+18
-48.5055  2.74389e+18
-48.3882  4.44925e+18
-48.2709  7.14574e+18
-48.1536  1.06808e+19
-48.0363  1.47914e+19
-47.919  1.91108e+19
-47.8017  2.32733e+19
-47.6844  2.68835e+19
-47.5671  2.96212e+19
-47.4498  3.12698e+19
-47.3325  3.176e+19
-47.2152  3.10952e+19
-47.0979  2.94403e+19
-46.9806  2.69768e+19
-46.8633  2.39276e+19
-46.7459  2.04479e+19
-46.6286  1.67267e+19
-46.5113  1.2935e+19
-46.394  9.27492e+18
-46.2767  6.07095e+18
-46.1594  3.73647e+18
-46.0421  2.79185e+18
-45.9248  3.78821e+18
-45.8075  7.18948e+18
-45.6902  1.32402e+19
-45.5729  2.18409e+19
-45.4556  3.25247e+19
-45.3383  4.43593e+19
-45.221  5.62209e+19
-45.1037  6.67551e+19
-44.9864  7.47384e+19
-44.8691  7.92721e+19
-44.7518  7.98724e+19
-44.6345  7.65602e+19
-44.5172  6.99234e+19
-44.3998  6.08487e+19
-44.2825  5.04382e+19
-44.1652  3.97745e+19
-44.0479  2.98e+19
-43.9306  2.11786e+19
-43.8133  1.42526e+19
-43.696  9.12442e+18
-43.5787  5.64759e+18
-43.4614  3.56424e+18
-43.3441  2.5822e+18
-43.2268  2.41077e+18
-43.1095  2.77806e+18
-42.9922  3.45051e+18
-42.8749  4.21911e+18
-42.7576  4.90261e+18
-42.6403  5.36361e+18
-42.523  5.51921e+18
-42.4057  5.36632e+18
-42.2884  4.99133e+18
-42.171  4.55556e+18
-42.0537  4.24778e+18
-41.9364  4.26129e+18
-41.8191  4.7431e+18
-41.7018  5.71406e+18
-41.5845  7.13338e+18
-41.4672  8.83499e+18
-41.3499  1.06142e+19
-41.2326  1.22456e+19
-41.1153  1.35604e+19
-40.998  1.44415e+19
-40.8807  1.48723e+19
-40.7634  1.4872e+19
-40.6461  1.45891e+19
-40.5288  1.41446e+19
-40.4115  1.37261e+19
-40.2942  1.35287e+19
-40.1769  1.37158e+19
-40.0596  1.44517e+19
-39.9423  1.586e+19
-39.825  1.7994e+19
-39.7076  2.07779e+19
-39.5903  2.40408e+19
-39.473  2.74163e+19
-39.3557  3.0476e+19
-39.2384  3.27135e+19
-39.1211  3.36687e+19
-39.0038  3.3047e+19
-38.8865  3.0779e+19
-38.7692  2.70496e+19
-38.6519  2.23402e+19
-38.5346  1.72882e+19
-38.4173  1.2613e+19
-38.3  8.9357e+18
-38.1827  6.69988e+18
-38.0654  6.05285e+18
-37.9481  6.85237e+18
-37.8308  8.73271e+18
-37.7135  1.11888e+19
-37.5962  1.37481e+19
-37.4789  1.60709e+19
-37.3615  1.80016e+19
-37.2442  1.96154e+19
-37.1269  2.11839e+19
-37.0096  2.30011e+19
-36.8923  2.53426e+19
-36.775  2.83339e+19
-36.6577  3.19009e+19
-36.5404  3.57899e+19
-36.4231  3.95853e+19
-36.3058  4.28632e+19
-36.1885  4.52273e+19
-36.0712  4.6446e+19
-35.9539  4.64323e+19
-35.8366  4.53098e+19
-35.7193  4.33666e+19
-35.602  4.08336e+19
-35.4847  3.80718e+19
-35.3674  3.53189e+19
-35.2501  3.27524e+19
-35.1328  3.04766e+19
-35.0154  2.85829e+19
-34.8981  2.71902e+19
-34.7808  2.64409e+19
-34.6635  2.65015e+19
-34.5462  2.75918e+19
-34.4289  2.99349e+19
-34.3116  3.36206e+19
-34.1943  3.86672e+19
-34.077  4.49116e+19
-33.9597  5.205e+19
-33.8424  5.96249e+19
-33.7251  6.71424e+19
-33.6078  7.40029e+19
-33.4905  7.96752e+19
-33.3732  8.37064e+19
-33.2559  8.57515e+19
-33.1386  8.56159e+19
-33.0213  8.32553e+19
-32.904  7.88098e+19
-32.7867  7.2575e+19
-32.6693  6.49218e+19
-32.552  5.63685e+19
-32.4347  4.73916e+19
-32.3174  3.8557e+19
-32.2001  3.02981e+19
-32.0828  2.29637e+19
-31.9655  1.67827e+19
-31.8482  1.18608e+19
-31.7309  8.17733e+18
-31.6136  5.62259e+18
-31.4963  4.05554e+18
-31.379  3.33008e+18
-31.2617  3.32225e+18
-31.1444  3.94936e+18
-31.0271  5.17308e+18
-30.9098  7.00422e+18
-30.7925  9.4374e+18
-30.6752  1.25044e+19
-30.5579  1.62074e+19
-30.4406  2.05523e+19
-30.3232  2.55461e+19
-30.2059  3.11667e+19
-30.0886  3.73932e+19
-29.9713  4.4212e+19
-29.854  5.15716e+19
-29.7367  5.93119e+19
-29.6194  6.73305e+19
-29.5021  7.54015e+19
-29.3848  8.32551e+19
-29.2675  9.06218e+19
-29.1502  9.71425e+19
-29.0329  1.02574e+20
-28.9156  1.06616e+20
-28.7983  1.09028e+20
-28.681  1.09699e+20
-28.5637  1.08487e+20
-28.4464  1.05469e+20
-28.3291  1.00704e+20
-28.2118  9.43778e+19
-28.0944  8.68367e+19
-27.9771  7.84582e+19
-27.8598  6.9689e+19
-27.7425  6.10537e+19
-27.6252  5.29221e+19
-27.5079  4.57764e+19
-27.3906  3.98997e+19
-27.2733  3.55308e+19
-27.156  3.27928e+19
-27.0387  3.17279e+19
-26.9214  3.23884e+19
-26.8041  3.47805e+19
-26.6868  3.89265e+19
-26.5695  4.48326e+19
-26.4522  5.25218e+19
-26.3349  6.20102e+19
-26.2176  7.31569e+19
-26.1003  8.58912e+19
-25.983  9.99223e+19
-25.8657  1.14936e+20
-25.7483  1.30633e+20
-25.631  1.46576e+20
-25.5137  1.62504e+20
-25.3964  1.7801e+20
-25.2791  1.92799e+20
-25.1618  2.06557e+20
-25.0445  2.19011e+20
-24.9272  2.2976e+20
-24.8099  2.38485e+20
-24.6926  2.4485e+20
-24.5753  2.48561e+20
-24.458  2.49335e+20
-24.3407  2.4712e+20
-24.2234  2.41979e+20
-24.1061  2.34184e+20
-23.9888  2.24184e+20
-23.8715  2.12625e+20
-23.7542  2.00272e+20
-23.6369  1.88103e+20
-23.5196  1.77117e+20
-23.4023  1.68188e+20
-23.2849  1.62195e+20
-23.1676  1.59782e+20
-23.0503  1.61225e+20
-22.933  1.66628e+20
-22.8157  1.7545e+20
-22.6984  1.86944e+20
-22.5811  2.00079e+20
-22.4638  2.13532e+20
-22.3465  2.26196e+20
-22.2292  2.36883e+20
-22.1119  2.44859e+20
-21.9946  2.49654e+20
-21.8773  2.51355e+20
-21.76  2.50358e+20
-21.6427  2.47235e+20
-21.5254  2.42853e+20
-21.4081  2.38054e+20
-21.2908  2.3366e+20
-21.1735  2.30323e+20
-21.0561  2.28495e+20
-20.9388  2.28358e+20
-20.8215  2.29889e+20
-20.7042  2.33006e+20
-20.5869  2.37379e+20
-20.4696  2.42564e+20
-20.3523  2.48165e+20
-20.235  2.53738e+20
-20.1177  2.59058e+20
-20.0004  2.63944e+20
-19.8831  2.68262e+20
-19.7658  2.72485e+20
-19.6485  2.76993e+20
-19.5312  2.82458e+20
-19.4139  2.89568e+20
-19.2966  2.99043e+20
-19.1793  3.11446e+20
-19.062  3.27128e+20
-18.9447  3.46179e+20
-18.8274  3.68477e+20
-18.71  3.93516e+20
-18.5927  4.20793e+20
-18.4754  4.49625e+20
-18.3581  4.79205e+20
-18.2408  5.08997e+20
-18.1235  5.38314e+20
-18.0062  5.66694e+20
-17.8889  5.93714e+20
-17.7716  6.18974e+20
-17.6543  6.42461e+20
-17.537  6.63907e+20
-17.4197  6.83486e+20
-17.3024  7.01374e+20
-17.1851  7.17887e+20
-17.0678  7.33466e+20
-16.9505  7.48517e+20
-16.8332  7.63419e+20
-16.7159  7.78564e+20
-16.5986  7.94036e+20
-16.4813  8.09832e+20
-16.364  8.25749e+20
-16.2466  8.4145e+20
-16.1293  8.56135e+20
-16.012  8.69551e+20
-15.8947  8.80896e+20
-15.7774  8.89768e+20
-15.6601  8.9578e+20
-15.5428  8.98781e+20
-15.4255  8.98564e+20
-15.3082  8.95551e+20
-15.1909  8.89963e+20
-15.0736  8.82503e+20
-14.9563  8.73761e+20
-14.839  8.64797e+20
-14.7217  8.56276e+20
-14.6044  8.4931e+20
-14.4871  8.44789e+20
-14.3698  8.43526e+20
-14.2525  8.46085e+20
-14.1352  8.52922e+20
-14.0178  8.64313e+20
-13.9005  8.80284e+20
-13.7832  9.00744e+20
-13.6659  9.25489e+20
-13.5486  9.54388e+20
-13.4313  9.87268e+20
-13.314  1.02404e+21
-13.1967  1.06467e+21
-13.0794  1.10955e+21
-12.9621  1.15877e+21
-12.8448  1.21278e+21
-12.7275  1.27177e+21
-12.6102  1.33622e+21
-12.4929  1.40617e+21
-12.3756  1.48149e+21
-12.2583  1.562e+21
-12.141  1.64707e+21
-12.0237  1.73584e+21
-11.9064  1.827e+21
-11.7891  1.91918e+21
-11.6718  2.01092e+21
-11.5544  2.10053e+21
-11.4371  2.18637e+21
-11.3198  2.2672e+21
-11.2025  2.34186e+21
-11.0852  2.40996e+21
-10.9679  2.47149e+21
-10.8506  2.52722e+21
-10.7333  2.57827e+21
-10.616  2.6267e+21
-10.4987  2.67507e+21
-10.3814  2.72592e+21
-10.2641  2.7821e+21
-10.1468  2.84678e+21
-10.0295  2.92223e+21
-9.91217  3.01032e+21
-9.79487  3.11263e+21
-9.67756  3.22933e+21
-9.56026  3.36001e+21
-9.44295  3.50309e+21
-9.32565  3.65682e+21
-9.20834  3.81814e+21
-9.09104  3.98408e+21
-8.97373  4.15157e+21
-8.85643  4.31801e+21
-8.73913  4.48086e+21
-8.62182  4.63866e+21
-8.50452  4.79071e+21
-8.38721  4.93748e+21
-8.26991  5.07951e+21
-8.1526  5.2189e+21
-8.03529  5.35727e+21
-7.91799  5.49728e+21
-7.80069  5.64109e+21
-7.68338  5.79054e+21
-7.56608  5.94734e+21
-7.44877  6.11254e+21
-7.33146  6.28643e+21
-7.21416  6.46863e+21
-7.09685  6.65827e+21
-6.97955  6.85411e+21
-6.86224  7.05454e+21
-6.74494  7.25803e+21
-6.62763  7.46243e+21
-6.51033  7.66641e+21
-6.39302  7.86887e+21
-6.27572  8.06902e+21
-6.15842  8.26656e+21
-6.04111  8.4615e+21
-5.92381  8.65425e+21
-5.8065  8.8455e+21
-5.68919  9.03555e+21
-5.57189  9.22519e+21
-5.45458  9.41466e+21
-5.33728  9.60433e+21
-5.21997  9.79381e+21
-5.10267  9.98326e+21
-4.98536  1.01721e+22
-4.86806  1.03599e+22
-4.75075  1.05465e+22
-4.63345  1.07323e+22
-4.51614  1.09175e+22
-4.39884  1.11029e+22
-4.28154  1.12905e+22
-4.16423  1.14824e+22
-4.04692  1.16803e+22
-3.92962  1.18874e+22
-3.81231  1.21065e+22
-3.69501  1.23397e+22
-3.5777  1.2589e+22
-3.4604  1.28555e+22
-3.34309  1.31385e+22
-3.22579  1.34364e+22
-3.10849  1.37471e+22
-2.99118  1.40659e+22
-2.87387  1.43879e+22
-2.75657  1.47071e+22
-2.63926  1.50171e+22
-2.52196  1.53113e+22
-2.40465  1.55837e+22
-2.28735  1.58282e+22
-2.17005  1.60408e+22
-2.05274  1.62182e+22
-1.93544  1.63579e+22
-1.81813  1.64604e+22
-1.70083  1.65263e+22
-1.58352  1.65585e+22
-1.46622  1.65605e+22
-1.34891  1.65368e+22
-1.2316  1.64925e+22
-1.1143  1.64328e+22
-0.996995  1.6363e+22
-0.87969  1.62883e+22
-0.762385  1.62125e+22
-0.64508  1.61406e+22
-0.527775  1.60755e+22
-0.41047  1.60201e+22
-0.293165  1.59766e+22
-0.17586  1.59467e+22
-0.058555  1.59317e+22
0.05875  1.59319e+22
0.176055  1.59474e+22
0.29336  1.59774e+22
0.410665  1.60212e+22
0.52797  1.60766e+22
0.645275  1.61415e+22
0.76258  1.62132e+22
0.879885  1.62883e+22
0.99719  1.63623e+22
1.1145  1.64311e+22
1.2318  1.64895e+22
1.3491  1.65325e+22
1.46641  1.65545e+22
1.58371  1.65506e+22
1.70102  1.65165e+22
1.81832  1.64485e+22
1.93563  1.63439e+22
2.05294  1.62018e+22
2.17024  1.60226e+22
2.28754  1.58082e+22
2.40485  1.55614e+22
2.52216  1.52873e+22
2.63946  1.49913e+22
2.75677  1.46795e+22
2.87407  1.43588e+22
2.99137  1.40353e+22
3.10868  1.37152e+22
3.22599  1.34035e+22
3.34329  1.31045e+22
3.4606  1.28208e+22
3.5779  1.25538e+22
3.69521  1.2304e+22
3.81251  1.20705e+22
3.92982  1.18511e+22
4.04712  1.16437e+22
4.16443  1.14457e+22
4.28173  1.12541e+22
4.39903  1.10666e+22
4.51634  1.08811e+22
4.63364  1.06961e+22
4.75095  1.05105e+22
4.86825  1.03238e+22
4.98556  1.01359e+22
5.10286  9.94725e+21
5.22017  9.75759e+21
5.33748  9.56801e+21
5.45478  9.37825e+21
5.57209  9.18871e+21
5.68939  8.99893e+21
5.8067  8.80871e+21
5.924  8.61748e+21
6.0413  8.42491e+21
6.15861  8.23016e+21
6.27591  8.03277e+21
6.39322  7.83318e+21
6.51052  7.63119e+21
6.62783  7.42771e+21
6.74514  7.22394e+21
6.86244  7.02132e+21
6.97975  6.82155e+21
7.09705  6.62644e+21
7.21436  6.43749e+21
7.33166  6.25582e+21
7.44897  6.08257e+21
7.56627  5.91796e+21
7.68358  5.76147e+21
7.80088  5.61227e+21
7.91819  5.46858e+21
8.03549  5.32883e+21
8.1528  5.19055e+21
8.2701  5.05135e+21
8.38741  4.90941e+21
8.50471  4.76293e+21
8.62202  4.61121e+21
8.73932  4.4537e+21
8.85662  4.29144e+21
8.97393  4.12572e+21
9.09123  3.95891e+21
9.20854  3.79378e+21
9.32584  3.63338e+21
9.44315  3.48062e+21
9.56045  3.33818e+21
9.67776  3.20846e+21
9.79506  3.09242e+21
9.91237  2.99079e+21
10.0297  2.9032e+21
10.147  2.82827e+21
10.2643  2.76404e+21
10.3816  2.70799e+21
10.4989  2.65738e+21
10.6162  2.60924e+21
10.7335  2.56094e+21
10.8508  2.51006e+21
10.9681  2.45457e+21
11.0854  2.39341e+21
11.2027  2.32569e+21
11.32  2.25142e+21
11.4373  2.17112e+21
11.5546  2.08579e+21
11.6719  1.99676e+21
11.7893  1.90574e+21
11.9066  1.8142e+21
12.0239  1.72356e+21
12.1412  1.63561e+21
12.2585  1.5512e+21
12.3758  1.47132e+21
12.4931  1.39657e+21
12.6104  1.32724e+21
12.7277  1.26338e+21
12.845  1.20487e+21
12.9623  1.1513e+21
13.0796  1.10255e+21
13.1969  1.05805e+21
13.3142  1.01776e+21
13.4315  9.81305e+20
13.5488  9.48713e+20
13.6661  9.20074e+20
13.7834  8.95488e+20
13.9007  8.75232e+20
14.018  8.59429e+20
14.1354  8.48186e+20
14.2527  8.41483e+20
14.37  8.39113e+20
14.4873  8.40534e+20
14.6046  8.45183e+20
14.7219  8.52263e+20
14.8392  8.60937e+20
14.9565  8.70116e+20
15.0738  8.78996e+20
15.1911  8.86668e+20
15.3084  8.92392e+20
15.4257  8.95538e+20
15.543  8.95842e+20
15.6603  8.9304e+20
15.7776  8.87214e+20
15.8949  8.78499e+20
16.0122  8.67346e+20
16.1295  8.54112e+20
16.2468  8.3946e+20
16.3641  8.23991e+20
16.4815  8.0822e+20
16.5988  7.92551e+20
16.7161  7.77145e+20
16.8334  7.62216e+20
16.9507  7.47357e+20
17.068  7.32448e+20
17.1853  7.16978e+20
17.3026  7.0059e+20
17.4199  6.82739e+20
17.5372  6.63152e+20
17.6545  6.41697e+20
17.7718  6.18306e+20
17.8891  5.92931e+20
18.0064  5.65937e+20
18.1237  5.3752e+20
18.241  5.08096e+20
18.3583  4.78236e+20
18.4756  4.48569e+20
18.5929  4.19692e+20
18.7102  3.92329e+20
18.8275  3.67277e+20
18.9449  3.45022e+20
19.0622  3.25983e+20
19.1795  3.10386e+20
19.2968  2.98012e+20
19.4141  2.88627e+20
19.5314  2.81577e+20
19.6487  2.76135e+20
19.766  2.71708e+20
19.8833  2.67485e+20
20.0006  2.63153e+20
20.1179  2.58351e+20
20.2352  2.53124e+20
20.3525  2.47575e+20
20.4698  2.42026e+20
20.5871  2.36914e+20
20.7044  2.32716e+20
20.8217  2.29777e+20
20.939  2.28394e+20
21.0563  2.28728e+20
21.1736  2.30728e+20
21.291  2.34244e+20
21.4083  2.38786e+20
21.5256  2.43646e+20
21.6429  2.48114e+20
21.7602  2.51268e+20
21.8775  2.52285e+20
21.9948  2.50512e+20
22.1121  2.45574e+20
22.2294  2.37459e+20
22.3467  2.26685e+20
22.464  2.13923e+20
22.5813  2.00343e+20
22.6986  1.87205e+20
22.8159  1.757e+20
22.9332  1.6692e+20
23.0505  1.61635e+20
23.1678  1.60263e+20
23.2851  1.62807e+20
23.4024  1.68878e+20
23.5198  1.77926e+20
23.6371  1.88994e+20
23.7544  2.01191e+20
23.8717  2.13529e+20
23.989  2.25059e+20
24.1063  2.35009e+20
24.2236  2.4269e+20
24.3409  2.47687e+20
24.4582  2.49802e+20
24.5755  2.48843e+20
24.6928  2.45043e+20
24.8101  2.38569e+20
24.9274  2.29769e+20
25.0447  2.18939e+20
25.162  2.06412e+20
25.2793  1.92603e+20
25.3966  1.77738e+20
25.5139  1.62201e+20
25.6312  1.46258e+20
25.7485  1.30237e+20
25.8658  1.14539e+20
25.9832  9.94417e+19
26.1005  8.54238e+19
26.2178  7.26964e+19
26.3351  6.15215e+19
26.4524  5.20576e+19
26.5697  4.43937e+19
26.687  3.85219e+19
26.8043  3.44451e+19
26.9216  3.21256e+19
27.0389  3.15348e+19
27.1562  3.26761e+19
27.2735  3.55054e+19
27.3908  3.9964e+19
27.5081  4.59306e+19
27.6254  5.31513e+19
27.7427  6.13393e+19
27.86  7.00425e+19
27.9773  7.88244e+19
28.0946  8.72233e+19
28.212  9.47297e+19
28.3293  1.01032e+20
28.4466  1.05747e+20
28.5639  1.08721e+20
28.6812  1.09881e+20
28.7985  1.09182e+20
28.9158  1.06734e+20
29.0331  1.02664e+20
29.1504  9.72336e+19
29.2677  9.06986e+19
29.385  8.33619e+19
29.5023  7.55178e+19
29.6196  6.74375e+19
29.7369  5.94284e+19
29.8542  5.16805e+19
29.9715  4.43466e+19
30.0888  3.75126e+19
30.2061  3.12593e+19
30.3234  2.5611e+19
30.4407  2.06037e+19
30.558  1.62417e+19
30.6754  1.25162e+19
30.7927  9.44598e+18
30.91  7.0064e+18
31.0273  5.18431e+18
31.1446  3.95575e+18
31.2619  3.34512e+18
31.3792  3.37147e+18
31.4965  4.12985e+18
31.6138  5.73828e+18
31.7311  8.33532e+18
31.8484  1.2064e+19
31.9657  1.70339e+19
32.083  2.32497e+19
32.2003  3.06091e+19
32.3176  3.88921e+19
32.4349  4.77341e+19
32.5522  5.66829e+19
32.6695  6.52024e+19
32.7868  7.2805e+19
32.9042  7.8991e+19
33.0215  8.33434e+19
33.1388  8.56459e+19
33.2561  8.57021e+19
33.3734  8.36247e+19
33.4907  7.95294e+19
33.608  7.38126e+19
33.7253  6.69522e+19
33.8426  5.94114e+19
33.9599  5.18471e+19
34.0772  4.47138e+19
34.1945  3.84908e+19
34.3118  3.34678e+19
34.4291  2.98058e+19
34.5464  2.74931e+19
34.6637  2.63919e+19
34.781  2.63428e+19
34.8983  2.71057e+19
35.0156  2.8507e+19
35.1329  3.03953e+19
35.2503  3.26668e+19
35.3676  3.52476e+19
35.4849  3.80081e+19
35.6022  4.07617e+19
35.7195  4.3256e+19
35.8368  4.52147e+19
35.9541  4.62833e+19
36.0714  4.62856e+19
36.1887  4.50413e+19
36.306  4.26597e+19
36.4233  3.93981e+19
36.5406  3.56231e+19
36.6579  3.17806e+19
36.7752  2.82613e+19
36.8925  2.53138e+19
37.0098  2.30281e+19
37.1271  2.1238e+19
37.2444  1.97036e+19
37.3617  1.80869e+19
37.479  1.61418e+19
37.5964  1.37998e+19
37.7137  1.12091e+19
37.831  8.72762e+18
37.9483  6.8264e+18
38.0656  6.02091e+18
38.1829  6.6733e+18
38.3002  8.92638e+18
38.4175  1.26109e+19
38.5348  1.7303e+19
38.6521  2.23579e+19
38.7694  2.70686e+19
38.8867  3.07846e+19
39.004  3.30449e+19
39.1213  3.36499e+19
39.2386  3.26682e+19
39.3559  3.04297e+19
39.4732  2.73682e+19
39.5905  2.40015e+19
39.7078  2.07574e+19
39.8251  1.79883e+19
39.9425  1.58774e+19
40.0598  1.44777e+19
40.1771  1.37602e+19
40.2944  1.35864e+19
40.4117  1.37958e+19
40.529  1.42092e+19
40.6463  1.46486e+19
40.7636  1.49394e+19
40.8809  1.49079e+19
40.9982  1.44778e+19
41.1155  1.35852e+19
41.2328  1.22657e+19
41.3501  1.0621e+19
41.4674  8.84091e+18
41.5847  7.14428e+18
41.702  5.72982e+18
41.8193  4.76424e+18
41.9366  4.30003e+18
42.0539  4.29404e+18
42.1712  4.60332e+18
42.2885  5.03645e+18
42.4059  5.39987e+18
42.5232  5.53776e+18
42.6405  5.36505e+18
42.7578  4.88989e+18
42.8751  4.19516e+18
42.9924  3.42363e+18
43.1097  2.75835e+18
43.227  2.40569e+18
43.3443  2.60171e+18
43.4616  3.60974e+18
43.5789  5.72598e+18
43.6962  9.2468e+18
43.8135  1.44224e+19
43.9308  2.1372e+19
44.0481  3.00324e+19
44.1654  3.99986e+19
44.2827  5.06445e+19
44.4  6.10342e+19
44.5173  7.00561e+19
44.6347  7.65993e+19
44.752  7.9792e+19
44.8693  7.90755e+19
44.9866  7.44607e+19
45.1039  6.63705e+19
45.2212  5.58023e+19
45.3385  4.39538e+19
45.4558  3.21146e+19
45.5731  2.15042e+19
45.6904  1.29789e+19
45.8077  7.01945e+18
45.925  3.70892e+18
46.0423  2.79028e+18
46.1596  3.7899e+18
46.2769  6.16475e+18
46.3942  9.38437e+18
46.5115  1.30506e+19
46.6288  1.68369e+19
46.7461  2.0545e+19
46.8634  2.39981e+19
46.9808  2.70258e+19
47.0981  2.94439e+19
47.2154  3.10676e+19
47.3327  3.16709e+19
47.45  3.11582e+19
47.5673  2.94714e+19
47.6846  2.66915e+19
47.8019  2.30699e+19
47.9192  1.89136e+19
48.0365  1.46035e+19
48.1538  1.05306e+19
48.2711  7.02831e+18
48.3884  4.37423e+18
48.5057  2.70143e+18
48.623  2.03828e+18
48.7403  2.27281e+18
48.8576  3.19609e+18
48.9749  4.51374e+18
49.0922  5.91028e+18
49.2095  7.07578e+18
49.3269  7.74378e+18
49.4442  7.77866e+18
49.5615  7.15369e+18
49.6788  5.99431e+18
49.7961  4.51551e+18
49.9134  3.03136e+18
50.0307  1.83311e+18
50.148  1.1782e+18
50.2653  1.23215e+18
50.3826  2.02829e+18
50.4999  3.46974e+18
50.6172  5.37272e+18
50.7345  7.48982e+18
