#S 1 spectral density
#N 2
#UFWHM 33.9011
#L  abscissas [um]  spectral density
-58.5938  2.21583e+20
-58.4764  2.28768e+20
-58.3591  2.35406e+20
-58.2418  2.41438e+20
-58.1245  2.46769e+20
-58.0072  2.51224e+20
-57.8899  2.54617e+20
-57.7726  2.56882e+20
-57.6553  2.58118e+20
-57.538  2.58462e+20
-57.4207  2.58168e+20
-57.3034  2.57569e+20
-57.1861  2.56923e+20
-57.0688  2.56262e+20
-56.9515  2.55533e+20
-56.8342  2.54474e+20
-56.7169  2.52731e+20
-56.5996  2.49951e+20
-56.4823  2.45879e+20
-56.365  2.40427e+20
-56.2477  2.33709e+20
-56.1303  2.26137e+20
-56.013  2.18184e+20
-55.8957  2.10503e+20
-55.7784  2.03635e+20
-55.6611  1.98167e+20
-55.5438  1.94591e+20
-55.4265  1.93124e+20
-55.3092  1.94017e+20
-55.1919  1.97399e+20
-55.0746  2.03224e+20
-54.9573  2.1145e+20
-54.84  2.21726e+20
-54.7227  2.33733e+20
-54.6054  2.46809e+20
-54.4881  2.60265e+20
-54.3708  2.73435e+20
-54.2535  2.85307e+20
-54.1362  2.95161e+20
-54.0189  3.02538e+20
-53.9016  3.07084e+20
-53.7842  3.08678e+20
-53.6669  3.07705e+20
-53.5496  3.04566e+20
-53.4323  2.99946e+20
-53.315  2.94593e+20
-53.1977  2.89173e+20
-53.0804  2.84415e+20
-52.9631  2.80791e+20
-52.8458  2.78618e+20
-52.7285  2.78008e+20
-52.6112  2.78879e+20
-52.4939  2.80934e+20
-52.3766  2.83724e+20
-52.2593  2.86642e+20
-52.142  2.89117e+20
-52.0247  2.90618e+20
-51.9074  2.90557e+20
-51.7901  2.88703e+20
-51.6728  2.84928e+20
-51.5555  2.79199e+20
-51.4381  2.71905e+20
-51.3208  2.63526e+20
-51.2035  2.54557e+20
-51.0862  2.45706e+20
-50.9689  2.37622e+20
-50.8516  2.31037e+20
-50.7343  2.26518e+20
-50.617  2.24586e+20
-50.4997  2.25628e+20
-50.3824  2.29759e+20
-50.2651  2.36943e+20
-50.1478  2.46943e+20
-50.0305  2.59147e+20
-49.9132  2.72945e+20
-49.7959  2.87394e+20
-49.6786  3.01622e+20
-49.5613  3.14702e+20
-49.444  3.25815e+20
-49.3267  3.34309e+20
-49.2094  3.39803e+20
-49.092  3.42164e+20
-48.9747  3.41498e+20
-48.8574  3.37988e+20
-48.7401  3.3225e+20
-48.6228  3.24718e+20
-48.5055  3.1616e+20
-48.3882  3.07204e+20
-48.2709  2.98366e+20
-48.1536  2.90039e+20
-48.0363  2.82459e+20
-47.919  2.7568e+20
-47.8017  2.69555e+20
-47.6844  2.63831e+20
-47.5671  2.58309e+20
-47.4498  2.52676e+20
-47.3325  2.46795e+20
-47.2152  2.40643e+20
-47.0979  2.3433e+20
-46.9806  2.28177e+20
-46.8633  2.22539e+20
-46.7459  2.17806e+20
-46.6286  2.14423e+20
-46.5113  2.12679e+20
-46.394  2.13078e+20
-46.2767  2.15695e+20
-46.1594  2.20777e+20
-46.0421  2.28488e+20
-45.9248  2.38758e+20
-45.8075  2.5134e+20
-45.6902  2.65787e+20
-45.5729  2.81225e+20
-45.4556  2.96689e+20
-45.3383  3.10818e+20
-45.221  3.2233e+20
-45.1037  3.29814e+20
-44.9864  3.32143e+20
-44.8691  3.28887e+20
-44.7518  3.19953e+20
-44.6345  3.05795e+20
-44.5172  2.87437e+20
-44.3998  2.66281e+20
-44.2825  2.43707e+20
-44.1652  2.21257e+20
-44.0479  2.00159e+20
-43.9306  1.81375e+20
-43.8133  1.65663e+20
-43.696  1.5333e+20
-43.5787  1.44587e+20
-43.4614  1.39389e+20
-43.3441  1.37646e+20
-43.2268  1.39106e+20
-43.1095  1.43455e+20
-42.9922  1.50199e+20
-42.8749  1.58789e+20
-42.7576  1.68428e+20
-42.6403  1.78307e+20
-42.523  1.87623e+20
-42.4057  1.95618e+20
-42.2884  2.01758e+20
-42.171  2.05826e+20
-42.0537  2.07641e+20
-41.9364  2.07505e+20
-41.8191  2.05817e+20
-41.7018  2.03224e+20
-41.5845  2.00255e+20
-41.4672  1.97482e+20
-41.3499  1.9542e+20
-41.2326  1.94416e+20
-41.1153  1.94571e+20
-40.998  1.95891e+20
-40.8807  1.98085e+20
-40.7634  2.00787e+20
-40.6461  2.03478e+20
-40.5288  2.05581e+20
-40.4115  2.06537e+20
-40.2942  2.05828e+20
-40.1769  2.03259e+20
-40.0596  1.9878e+20
-39.9423  1.92607e+20
-39.825  1.85097e+20
-39.7076  1.76766e+20
-39.5903  1.6823e+20
-39.473  1.6006e+20
-39.3557  1.52676e+20
-39.2384  1.46504e+20
-39.1211  1.41772e+20
-39.0038  1.38652e+20
-38.8865  1.37368e+20
-38.7692  1.38087e+20
-38.6519  1.40978e+20
-38.5346  1.46176e+20
-38.4173  1.53694e+20
-38.3  1.63353e+20
-38.1827  1.74717e+20
-38.0654  1.87066e+20
-37.9481  1.99464e+20
-37.8308  2.10847e+20
-37.7135  2.20208e+20
-37.5962  2.2675e+20
-37.4789  2.29994e+20
-37.3615  2.29785e+20
-37.2442  2.26505e+20
-37.1269  2.20806e+20
-37.0096  2.13651e+20
-36.8923  2.05951e+20
-36.775  1.9861e+20
-36.6577  1.92327e+20
-36.5404  1.87567e+20
-36.4231  1.84547e+20
-36.3058  1.833e+20
-36.1885  1.83712e+20
-36.0712  1.8561e+20
-35.9539  1.88844e+20
-35.8366  1.93229e+20
-35.7193  1.98593e+20
-35.602  2.0473e+20
-35.4847  2.11419e+20
-35.3674  2.1839e+20
-35.2501  2.25385e+20
-35.1328  2.32059e+20
-35.0154  2.38165e+20
-34.8981  2.43635e+20
-34.7808  2.48442e+20
-34.6635  2.527e+20
-34.5462  2.56642e+20
-34.4289  2.60596e+20
-34.3116  2.64735e+20
-34.1943  2.69412e+20
-34.077  2.7475e+20
-33.9597  2.80794e+20
-33.8424  2.87544e+20
-33.7251  2.94957e+20
-33.6078  3.02876e+20
-33.4905  3.11227e+20
-33.3732  3.19841e+20
-33.2559  3.28666e+20
-33.1386  3.37529e+20
-33.0213  3.46384e+20
-32.904  3.55175e+20
-32.7867  3.63814e+20
-32.6693  3.72232e+20
-32.552  3.80407e+20
-32.4347  3.88353e+20
-32.3174  3.96146e+20
-32.2001  4.03784e+20
-32.0828  4.11358e+20
-31.9655  4.1888e+20
-31.8482  4.26465e+20
-31.7309  4.34162e+20
-31.6136  4.42029e+20
-31.4963  4.50176e+20
-31.379  4.58652e+20
-31.2617  4.67646e+20
-31.1444  4.77226e+20
-31.0271  4.87512e+20
-30.9098  4.98458e+20
-30.7925  5.10158e+20
-30.6752  5.22494e+20
-30.5579  5.35322e+20
-30.4406  5.48425e+20
-30.3232  5.61465e+20
-30.2059  5.7436e+20
-30.0886  5.86817e+20
-29.9713  5.9864e+20
-29.854  6.0975e+20
-29.7367  6.20189e+20
-29.6194  6.29874e+20
-29.5021  6.39026e+20
-29.3848  6.47852e+20
-29.2675  6.5655e+20
-29.1502  6.65457e+20
-29.0329  6.74935e+20
-28.9156  6.85302e+20
-28.7983  6.96956e+20
-28.681  7.10057e+20
-28.5637  7.24898e+20
-28.4464  7.41409e+20
-28.3291  7.59666e+20
-28.2118  7.79493e+20
-28.0944  8.00541e+20
-27.9771  8.22505e+20
-27.8598  8.44814e+20
-27.7425  8.67177e+20
-27.6252  8.88909e+20
-27.5079  9.09535e+20
-27.3906  9.28584e+20
-27.2733  9.45587e+20
-27.156  9.60247e+20
-27.0387  9.72415e+20
-26.9214  9.82178e+20
-26.8041  9.89855e+20
-26.6868  9.95889e+20
-26.5695  1.00109e+21
-26.4522  1.00623e+21
-26.3349  1.01239e+21
-26.2176  1.02038e+21
-26.1003  1.03124e+21
-25.983  1.04568e+21
-25.8657  1.0643e+21
-25.7483  1.08748e+21
-25.631  1.11527e+21
-25.5137  1.14796e+21
-25.3964  1.18501e+21
-25.2791  1.22596e+21
-25.1618  1.27011e+21
-25.0445  1.31664e+21
-24.9272  1.36438e+21
-24.8099  1.41214e+21
-24.6926  1.45881e+21
-24.5753  1.50319e+21
-24.458  1.54423e+21
-24.3407  1.58101e+21
-24.2234  1.61301e+21
-24.1061  1.63983e+21
-23.9888  1.66136e+21
-23.8715  1.67785e+21
-23.7542  1.68963e+21
-23.6369  1.69741e+21
-23.5196  1.70203e+21
-23.4023  1.7043e+21
-23.2849  1.70538e+21
-23.1676  1.70617e+21
-23.0503  1.708e+21
-22.933  1.71155e+21
-22.8157  1.71779e+21
-22.6984  1.72736e+21
-22.5811  1.7408e+21
-22.4638  1.75846e+21
-22.3465  1.78053e+21
-22.2292  1.80731e+21
-22.1119  1.8388e+21
-21.9946  1.87491e+21
-21.8773  1.91552e+21
-21.76  1.96025e+21
-21.6427  2.00874e+21
-21.5254  2.06015e+21
-21.4081  2.11365e+21
-21.2908  2.16789e+21
-21.1735  2.2216e+21
-21.0561  2.27346e+21
-20.9388  2.32204e+21
-20.8215  2.36672e+21
-20.7042  2.40604e+21
-20.5869  2.43971e+21
-20.4696  2.46743e+21
-20.3523  2.48911e+21
-20.235  2.50505e+21
-20.1177  2.51561e+21
-20.0004  2.52147e+21
-19.8831  2.52368e+21
-19.7658  2.5229e+21
-19.6485  2.52038e+21
-19.5312  2.51724e+21
-19.4139  2.51484e+21
-19.2966  2.51422e+21
-19.1793  2.51659e+21
-19.062  2.52288e+21
-18.9447  2.53386e+21
-18.8274  2.54998e+21
-18.71  2.57168e+21
-18.5927  2.59926e+21
-18.4754  2.63261e+21
-18.3581  2.672e+21
-18.2408  2.71695e+21
-18.1235  2.7673e+21
-18.0062  2.82262e+21
-17.8889  2.88237e+21
-17.7716  2.9458e+21
-17.6543  3.01166e+21
-17.537  3.07925e+21
-17.4197  3.14702e+21
-17.3024  3.2138e+21
-17.1851  3.27809e+21
-17.0678  3.3385e+21
-16.9505  3.39404e+21
-16.8332  3.44356e+21
-16.7159  3.48609e+21
-16.5986  3.52088e+21
-16.4813  3.54732e+21
-16.364  3.56527e+21
-16.2466  3.5749e+21
-16.1293  3.5771e+21
-16.012  3.5723e+21
-15.8947  3.56227e+21
-15.7774  3.54867e+21
-15.6601  3.5334e+21
-15.5428  3.51886e+21
-15.4255  3.50716e+21
-15.3082  3.50027e+21
-15.1909  3.50057e+21
-15.0736  3.50916e+21
-14.9563  3.52751e+21
-14.839  3.55611e+21
-14.7217  3.59542e+21
-14.6044  3.64494e+21
-14.4871  3.70392e+21
-14.3698  3.77119e+21
-14.2525  3.84502e+21
-14.1352  3.92327e+21
-14.0178  4.004e+21
-13.9005  4.08472e+21
-13.7832  4.16333e+21
-13.6659  4.23789e+21
-13.5486  4.30636e+21
-13.4313  4.36761e+21
-13.314  4.4206e+21
-13.1967  4.46522e+21
-13.0794  4.5016e+21
-12.9621  4.52994e+21
-12.8448  4.55165e+21
-12.7275  4.56771e+21
-12.6102  4.57962e+21
-12.4929  4.58856e+21
-12.3756  4.59583e+21
-12.2583  4.60272e+21
-12.141  4.61035e+21
-12.0237  4.61922e+21
-11.9064  4.62987e+21
-11.7891  4.64248e+21
-11.6718  4.65716e+21
-11.5544  4.67414e+21
-11.4371  4.69325e+21
-11.3198  4.7143e+21
-11.2025  4.73773e+21
-11.0852  4.76365e+21
-10.9679  4.79224e+21
-10.8506  4.82415e+21
-10.7333  4.85962e+21
-10.616  4.89888e+21
-10.4987  4.9426e+21
-10.3814  4.9903e+21
-10.2641  5.0421e+21
-10.1468  5.09742e+21
-10.0295  5.15535e+21
-9.91217  5.21487e+21
-9.79487  5.27442e+21
-9.67756  5.33263e+21
-9.56026  5.38751e+21
-9.44295  5.43719e+21
-9.32565  5.48047e+21
-9.20834  5.51539e+21
-9.09104  5.54108e+21
-8.97373  5.55678e+21
-8.85643  5.56215e+21
-8.73913  5.5579e+21
-8.62182  5.54458e+21
-8.50452  5.52401e+21
-8.38721  5.49812e+21
-8.26991  5.46892e+21
-8.1526  5.43918e+21
-8.03529  5.4111e+21
-7.91799  5.38724e+21
-7.80069  5.36973e+21
-7.68338  5.36016e+21
-7.56608  5.36003e+21
-7.44877  5.37052e+21
-7.33146  5.39172e+21
-7.21416  5.42358e+21
-7.09685  5.46558e+21
-6.97955  5.51659e+21
-6.86224  5.57553e+21
-6.74494  5.64023e+21
-6.62763  5.70888e+21
-6.51033  5.77946e+21
-6.39302  5.84972e+21
-6.27572  5.91752e+21
-6.15842  5.981e+21
-6.04111  6.03808e+21
-5.92381  6.08726e+21
-5.8065  6.12756e+21
-5.68919  6.15772e+21
-5.57189  6.17737e+21
-5.45458  6.18643e+21
-5.33728  6.1848e+21
-5.21997  6.17332e+21
-5.10267  6.15279e+21
-4.98536  6.12481e+21
-4.86806  6.09065e+21
-4.75075  6.05215e+21
-4.63345  6.01171e+21
-4.51614  5.97119e+21
-4.39884  5.93284e+21
-4.28154  5.89885e+21
-4.16423  5.87121e+21
-4.04692  5.85203e+21
-3.92962  5.84274e+21
-3.81231  5.84452e+21
-3.69501  5.85866e+21
-3.5777  5.88519e+21
-3.4604  5.92406e+21
-3.34309  5.9746e+21
-3.22579  6.03546e+21
-3.10849  6.10499e+21
-2.99118  6.18095e+21
-2.87387  6.26058e+21
-2.75657  6.34143e+21
-2.63926  6.42039e+21
-2.52196  6.49455e+21
-2.40465  6.5615e+21
-2.28735  6.61864e+21
-2.17005  6.66448e+21
-2.05274  6.6971e+21
-1.93544  6.71617e+21
-1.81813  6.72129e+21
-1.70083  6.71308e+21
-1.58352  6.69251e+21
-1.46622  6.66119e+21
-1.34891  6.62088e+21
-1.2316  6.57389e+21
-1.1143  6.52227e+21
-0.996995  6.46862e+21
-0.87969  6.41487e+21
-0.762385  6.36324e+21
-0.64508  6.31531e+21
-0.527775  6.27299e+21
-0.41047  6.2374e+21
-0.293165  6.2099e+21
-0.17586  6.19113e+21
-0.058555  6.18179e+21
0.05875  6.18217e+21
0.176055  6.19238e+21
0.29336  6.21192e+21
0.410665  6.24016e+21
0.52797  6.27633e+21
0.645275  6.3192e+21
0.76258  6.36761e+21
0.879885  6.41966e+21
0.99719  6.47359e+21
1.1145  6.5276e+21
1.2318  6.57909e+21
1.3491  6.62607e+21
1.46641  6.66623e+21
1.58371  6.69747e+21
1.70102  6.71793e+21
1.81832  6.72598e+21
1.93563  6.72076e+21
2.05294  6.70151e+21
2.17024  6.66861e+21
2.28754  6.62286e+21
2.40485  6.56553e+21
2.52216  6.49868e+21
2.63946  6.42421e+21
2.75677  6.34545e+21
2.87407  6.26465e+21
2.99137  6.18508e+21
3.10868  6.1092e+21
3.22599  6.03989e+21
3.34329  5.97918e+21
3.4606  5.92904e+21
3.5779  5.89027e+21
3.69521  5.8642e+21
3.81251  5.85057e+21
3.92982  5.84924e+21
4.04712  5.85901e+21
4.16443  5.87884e+21
4.28173  5.90699e+21
4.39903  5.94145e+21
4.51634  5.98014e+21
4.63364  6.02122e+21
4.75095  6.06198e+21
4.86825  6.10057e+21
4.98556  6.13489e+21
5.10286  6.16286e+21
5.22017  6.18329e+21
5.33748  6.19441e+21
5.45478  6.19568e+21
5.57209  6.18643e+21
5.68939  6.16617e+21
5.8067  6.13562e+21
5.924  6.09496e+21
6.0413  6.04523e+21
6.15861  5.98776e+21
6.27591  5.92414e+21
6.39322  5.8564e+21
6.51052  5.78618e+21
6.62783  5.71583e+21
6.74514  5.64733e+21
6.86244  5.58286e+21
6.97975  5.52459e+21
7.09705  5.47407e+21
7.21436  5.43274e+21
7.33166  5.40129e+21
7.44897  5.38072e+21
7.56627  5.37092e+21
7.68358  5.37136e+21
7.80088  5.38127e+21
7.91819  5.3991e+21
8.03549  5.42325e+21
8.1528  5.45156e+21
8.2701  5.48131e+21
8.38741  5.51051e+21
8.50471  5.53648e+21
8.62202  5.55697e+21
8.73932  5.57011e+21
8.85662  5.57439e+21
8.97393  5.56901e+21
9.09123  5.55322e+21
9.20854  5.52752e+21
9.32584  5.49275e+21
9.44315  5.44969e+21
9.56045  5.39993e+21
9.67776  5.34534e+21
9.79506  5.28729e+21
9.91237  5.22801e+21
10.0297  5.16877e+21
10.147  5.11111e+21
10.2643  5.05615e+21
10.3816  5.0045e+21
10.4989  4.95712e+21
10.6162  4.91371e+21
10.7335  4.87454e+21
10.8508  4.83918e+21
10.9681  4.80741e+21
11.0854  4.77906e+21
11.2027  4.75339e+21
11.32  4.73003e+21
11.4373  4.7089e+21
11.5546  4.68995e+21
11.6719  4.67312e+21
11.7893  4.65857e+21
11.9066  4.64603e+21
12.0239  4.63544e+21
12.1412  4.62674e+21
12.2585  4.61929e+21
12.3758  4.61227e+21
12.4931  4.605e+21
12.6104  4.59597e+21
12.7277  4.58416e+21
12.845  4.5682e+21
12.9623  4.54633e+21
13.0796  4.51774e+21
13.1969  4.48124e+21
13.3142  4.43645e+21
13.4315  4.38308e+21
13.5488  4.32166e+21
13.6661  4.253e+21
13.7834  4.17825e+21
13.9007  4.09936e+21
14.018  4.01857e+21
14.1354  3.93778e+21
14.2527  3.85948e+21
14.37  3.78575e+21
14.4873  3.71856e+21
14.6046  3.65977e+21
14.7219  3.61048e+21
14.8392  3.57154e+21
14.9565  3.54323e+21
15.0738  3.52524e+21
15.1911  3.51697e+21
15.3084  3.51716e+21
15.4257  3.52426e+21
15.543  3.53619e+21
15.6603  3.55092e+21
15.7776  3.56635e+21
15.8949  3.58012e+21
16.0122  3.58992e+21
16.1295  3.59444e+21
16.2468  3.59217e+21
16.3641  3.58209e+21
16.4815  3.56377e+21
16.5988  3.53676e+21
16.7161  3.50161e+21
16.8334  3.4587e+21
16.9507  3.40879e+21
17.068  3.35278e+21
17.1853  3.29198e+21
17.3026  3.22738e+21
17.4199  3.16049e+21
17.5372  3.09272e+21
17.6545  3.02519e+21
17.7718  2.95926e+21
17.8891  2.89602e+21
18.0064  2.8364e+21
18.1237  2.78126e+21
18.241  2.73111e+21
18.3583  2.68639e+21
18.4756  2.64725e+21
18.5929  2.61407e+21
18.7102  2.58678e+21
18.8275  2.56517e+21
18.9449  2.5492e+21
19.0622  2.53827e+21
19.1795  2.53212e+21
19.2968  2.52979e+21
19.4141  2.5304e+21
19.5314  2.53283e+21
19.6487  2.5359e+21
19.766  2.5384e+21
19.8833  2.53903e+21
20.0006  2.53683e+21
20.1179  2.53086e+21
20.2352  2.52015e+21
20.3525  2.50408e+21
20.4698  2.48218e+21
20.5871  2.45438e+21
20.7044  2.42038e+21
20.8217  2.38078e+21
20.939  2.33608e+21
21.0563  2.28713e+21
21.1736  2.23511e+21
21.291  2.18105e+21
21.4083  2.1267e+21
21.5256  2.0731e+21
21.6429  2.02155e+21
21.7602  1.97293e+21
21.8775  1.9281e+21
21.9948  1.88741e+21
22.1121  1.85135e+21
22.2294  1.81995e+21
22.3467  1.79331e+21
22.464  1.77131e+21
22.5813  1.75381e+21
22.6986  1.7405e+21
22.8159  1.73115e+21
22.9332  1.7251e+21
23.0505  1.7217e+21
23.1678  1.72007e+21
23.2851  1.71934e+21
23.4024  1.71837e+21
23.5198  1.71603e+21
23.6371  1.71139e+21
23.7544  1.70338e+21
23.8717  1.69143e+21
23.989  1.67458e+21
24.1063  1.65268e+21
24.2236  1.62547e+21
24.3409  1.59306e+21
24.4582  1.55581e+21
24.5755  1.51431e+21
24.6928  1.46954e+21
24.8101  1.42256e+21
24.9274  1.3745e+21
25.0447  1.32652e+21
25.162  1.27977e+21
25.2793  1.23545e+21
25.3966  1.1944e+21
25.5139  1.15738e+21
25.6312  1.12484e+21
25.7485  1.09695e+21
25.8658  1.07387e+21
25.9832  1.05524e+21
26.1005  1.04097e+21
26.2178  1.0301e+21
26.3351  1.02206e+21
26.4524  1.01592e+21
26.5697  1.01062e+21
26.687  1.00533e+21
26.8043  9.99125e+20
26.9216  9.9121e+20
27.0389  9.81251e+20
27.1562  9.68813e+20
27.2735  9.53947e+20
27.3908  9.36688e+20
27.5081  9.17468e+20
27.6254  8.96687e+20
27.7427  8.74805e+20
27.86  8.52399e+20
27.9773  8.30014e+20
28.0946  8.08053e+20
28.212  7.86954e+20
28.3293  7.67143e+20
28.4466  7.48867e+20
28.5639  7.32371e+20
28.6812  7.17482e+20
28.7985  7.04309e+20
28.9158  6.92635e+20
29.0331  6.82174e+20
29.1504  6.72618e+20
29.2677  6.63544e+20
29.385  6.54706e+20
29.5023  6.45781e+20
29.6196  6.36491e+20
29.7369  6.26614e+20
29.8542  6.16044e+20
29.9715  6.04733e+20
30.0888  5.92783e+20
30.2061  5.80245e+20
30.3234  5.67297e+20
30.4407  5.54097e+20
30.558  5.40939e+20
30.6754  5.28038e+20
30.7927  5.1568e+20
30.91  5.03858e+20
31.0273  4.92805e+20
31.1446  4.82467e+20
31.2619  4.72754e+20
31.3792  4.63662e+20
31.4965  4.55058e+20
31.6138  4.46765e+20
31.7311  4.38791e+20
31.8484  4.30956e+20
31.9657  4.23274e+20
32.083  4.15611e+20
32.2003  4.07956e+20
32.3176  4.00249e+20
32.4349  3.92375e+20
32.5522  3.84357e+20
32.6695  3.76119e+20
32.7868  3.67646e+20
32.9042  3.58958e+20
33.0215  3.50108e+20
33.1388  3.41187e+20
33.2561  3.32255e+20
33.3734  3.23375e+20
33.4907  3.14664e+20
33.608  3.06212e+20
33.7253  2.98197e+20
33.8426  2.90699e+20
33.9599  2.83817e+20
34.0772  2.7765e+20
34.1945  2.72203e+20
34.3118  2.67431e+20
34.4291  2.6311e+20
34.5464  2.59033e+20
34.6637  2.54915e+20
34.781  2.50512e+20
34.8983  2.45573e+20
35.0156  2.39965e+20
35.1329  2.33693e+20
35.2503  2.269e+20
35.3676  2.19834e+20
35.4849  2.12785e+20
35.6022  2.05998e+20
35.7195  1.99815e+20
35.8368  1.9443e+20
35.9541  1.90019e+20
36.0714  1.86796e+20
36.1887  1.84911e+20
36.306  1.84518e+20
36.4233  1.85824e+20
36.5406  1.88881e+20
36.6579  1.93696e+20
36.7752  2.00001e+20
36.8925  2.07351e+20
37.0098  2.15052e+20
37.1271  2.22175e+20
37.2444  2.27787e+20
37.3617  2.30966e+20
37.479  2.31045e+20
37.5964  2.27698e+20
37.7137  2.20998e+20
37.831  2.11512e+20
37.9483  2.00011e+20
38.0656  1.87538e+20
38.1829  1.75135e+20
38.3002  1.63722e+20
38.4175  1.54033e+20
38.5348  1.46498e+20
38.6521  1.41275e+20
38.7694  1.38373e+20
38.8867  1.37651e+20
39.004  1.38939e+20
39.1213  1.42014e+20
39.2386  1.46742e+20
39.3559  1.52905e+20
39.4732  1.60263e+20
39.5905  1.68443e+20
39.7078  1.76966e+20
39.8251  1.85226e+20
39.9425  1.92695e+20
40.0598  1.98846e+20
40.1771  2.03283e+20
40.2944  2.05752e+20
40.4117  2.06394e+20
40.529  2.054e+20
40.6463  2.03238e+20
40.7636  2.00519e+20
40.8809  1.9778e+20
40.9982  1.95526e+20
41.1155  1.94212e+20
41.2328  1.94003e+20
41.3501  1.94989e+20
41.4674  1.96973e+20
41.5847  1.99665e+20
41.702  2.02596e+20
41.8193  2.05127e+20
41.9366  2.06721e+20
42.0539  2.06776e+20
42.1712  2.04865e+20
42.2885  2.00792e+20
42.4059  1.94559e+20
42.5232  1.86545e+20
42.6405  1.77214e+20
42.7578  1.67379e+20
42.8751  1.57805e+20
42.9924  1.49282e+20
43.1097  1.42634e+20
43.227  1.38384e+20
43.3443  1.37012e+20
43.4616  1.38864e+20
43.5789  1.44118e+20
43.6962  1.52957e+20
43.8135  1.65316e+20
43.9308  1.81092e+20
44.0481  1.99858e+20
44.1654  2.20892e+20
44.2827  2.43297e+20
44.4  2.65801e+20
44.5173  2.86834e+20
44.6347  3.05015e+20
44.752  3.19082e+20
44.8693  3.27841e+20
44.9866  3.30914e+20
45.1039  3.28397e+20
45.2212  3.20837e+20
45.3385  3.09309e+20
45.4558  2.95129e+20
45.5731  2.7972e+20
45.6904  2.64298e+20
45.8077  2.49964e+20
45.925  2.37443e+20
46.0423  2.27301e+20
46.1596  2.1967e+20
46.2769  2.14657e+20
46.3942  2.12158e+20
46.5115  2.1187e+20
46.6288  2.1369e+20
46.7461  2.17147e+20
46.8634  2.21913e+20
46.9808  2.27664e+20
47.0981  2.33852e+20
47.2154  2.40204e+20
47.3327  2.46353e+20
47.45  2.52307e+20
47.5673  2.58e+20
47.6846  2.6353e+20
47.8019  2.69253e+20
47.9192  2.75419e+20
48.0365  2.82236e+20
48.1538  2.89842e+20
48.2711  2.98183e+20
48.3884  3.07012e+20
48.5057  3.15971e+20
48.623  3.24494e+20
48.7403  3.31931e+20
48.8576  3.37631e+20
48.9749  3.41029e+20
49.0922  3.41673e+20
49.2095  3.39289e+20
49.3269  3.33755e+20
49.4442  3.2526e+20
49.5615  3.14099e+20
49.6788  3.01051e+20
49.7961  2.86856e+20
49.9134  2.72481e+20
50.0307  2.58783e+20
50.148  2.46586e+20
50.2653  2.36719e+20
50.3826  2.29605e+20
50.4999  2.25548e+20
50.6172  2.24566e+20
50.7345  2.26557e+20
50.8518  2.31129e+20
