#S 1 spectral density
#N 2
#UFWHM 11.3786
#L  abscissas [um]  spectral density
-58.5938  3.5642e+18
-58.4764  2.70953e+18
-58.3591  3.38588e+18
-58.2418  5.628e+18
-58.1245  9.16047e+18
-58.0072  1.34498e+19
-57.8899  1.78169e+19
-57.7726  2.15535e+19
-57.6553  2.41247e+19
-57.538  2.51892e+19
-57.4207  2.46954e+19
-57.3034  2.28474e+19
-57.1861  2.00236e+19
-57.0688  1.66715e+19
-56.9515  1.31989e+19
-56.8342  9.94153e+18
-56.7169  7.09941e+18
-56.5996  4.80332e+18
-56.4823  3.07507e+18
-56.365  1.92008e+18
-56.2477  1.32843e+18
-56.1303  1.26087e+18
-56.013  1.65748e+18
-55.8957  2.40293e+18
-55.7784  3.34078e+18
-55.6611  4.25352e+18
-55.5438  4.90919e+18
-55.4265  5.15456e+18
-55.3092  4.88705e+18
-55.1919  4.15789e+18
-55.0746  3.13265e+18
-54.9573  2.06914e+18
-54.84  1.26399e+18
-54.7227  9.60827e+17
-54.6054  1.30792e+18
-54.4881  2.30281e+18
-54.3708  3.81276e+18
-54.2535  5.59588e+18
-54.1362  7.36536e+18
-54.0189  8.85139e+18
-53.9016  9.87823e+18
-53.7842  1.03651e+19
-53.6669  1.03623e+19
-53.5496  9.96824e+18
-53.4323  9.34442e+18
-53.315  8.63553e+18
-53.1977  7.96233e+18
-53.0804  7.39035e+18
-52.9631  6.91158e+18
-52.8458  6.48539e+18
-52.7285  6.05474e+18
-52.6112  5.55734e+18
-52.4939  4.95356e+18
-52.3766  4.24394e+18
-52.2593  3.48471e+18
-52.142  2.74742e+18
-52.0247  2.15001e+18
-51.9074  1.82086e+18
-51.7901  1.87743e+18
-51.6728  2.39567e+18
-51.5555  3.39778e+18
-51.4381  4.80967e+18
-51.3208  6.46895e+18
-51.2035  8.15337e+18
-51.0862  9.57578e+18
-50.9689  1.04941e+19
-50.8516  1.07199e+19
-50.7343  1.01549e+19
-50.617  8.89633e+18
-50.4997  7.16616e+18
-50.3824  5.30081e+18
-50.2651  3.71929e+18
-50.1478  2.78813e+18
-50.0305  2.81894e+18
-49.9132  3.96633e+18
-49.7959  6.21375e+18
-49.6786  9.37232e+18
-49.5613  1.31098e+19
-49.444  1.69946e+19
-49.3267  2.05553e+19
-49.2094  2.33818e+19
-49.092  2.51409e+19
-48.9747  2.56332e+19
-48.8574  2.47984e+19
-48.7401  2.2754e+19
-48.6228  1.97501e+19
-48.5055  1.61647e+19
-48.3882  1.24527e+19
-48.2709  9.01333e+18
-48.1536  6.2251e+18
-48.0363  4.3581e+18
-47.919  3.52489e+18
-47.8017  3.69544e+18
-47.6844  4.72639e+18
-47.5671  6.393e+18
-47.4498  8.44235e+18
-47.3325  1.06579e+19
-47.2152  1.28649e+19
-47.0979  1.49703e+19
-46.9806  1.69045e+19
-46.8633  1.86249e+19
-46.7459  2.00742e+19
-46.6286  2.11371e+19
-46.5113  2.17261e+19
-46.394  2.16878e+19
-46.2767  2.10203e+19
-46.1594  1.97635e+19
-46.0421  1.80609e+19
-45.9248  1.61847e+19
-45.8075  1.44503e+19
-45.6902  1.31202e+19
-45.5729  1.23728e+19
-45.4556  1.21768e+19
-45.3383  1.2392e+19
-45.221  1.26927e+19
-45.1037  1.27637e+19
-44.9864  1.23179e+19
-44.8691  1.1265e+19
-44.7518  9.71586e+18
-44.6345  7.97044e+18
-44.5172  6.45011e+18
-44.3998  5.60181e+18
-44.2825  5.73566e+18
-44.1652  6.94909e+18
-44.0479  9.07965e+18
-43.9306  1.17103e+19
-43.8133  1.42962e+19
-43.696  1.62894e+19
-43.5787  1.72435e+19
-43.4614  1.69305e+19
-43.3441  1.54338e+19
-43.2268  1.30483e+19
-43.1095  1.02539e+19
-42.9922  7.56312e+18
-42.8749  5.43908e+18
-42.7576  4.18672e+18
-42.6403  3.88751e+18
-42.523  4.45028e+18
-42.4057  5.61495e+18
-42.2884  7.06408e+18
-42.171  8.4775e+18
-42.0537  9.56715e+18
-41.9364  1.01786e+19
-41.8191  1.02387e+19
-41.7018  9.80144e+18
-41.5845  8.95412e+18
-41.4672  7.8648e+18
-41.3499  6.70613e+18
-41.2326  5.64687e+18
-41.1153  4.81673e+18
-40.998  4.29873e+18
-40.8807  4.09563e+18
-40.7634  4.1507e+18
-40.6461  4.33254e+18
-40.5288  4.48372e+18
-40.4115  4.4665e+18
-40.2942  4.18926e+18
-40.1769  3.68379e+18
-40.0596  3.08929e+18
-39.9423  2.65641e+18
-39.825  2.68081e+18
-39.7076  3.44007e+18
-39.5903  5.11573e+18
-39.473  7.70113e+18
-39.3557  1.10271e+19
-39.2384  1.47027e+19
-39.1211  1.82582e+19
-39.0038  2.12419e+19
-38.8865  2.32923e+19
-38.7692  2.42008e+19
-38.6519  2.40379e+19
-38.5346  2.30515e+19
-38.4173  2.16408e+19
-38.3  2.01795e+19
-38.1827  1.8996e+19
-38.0654  1.82321e+19
-37.9481  1.78065e+19
-37.8308  1.75119e+19
-37.7135  1.70011e+19
-37.5962  1.6001e+19
-37.4789  1.43366e+19
-37.3615  1.19778e+19
-37.2442  9.16106e+18
-37.1269  6.23427e+18
-37.0096  3.65089e+18
-36.8923  1.8192e+18
-36.775  1.04495e+18
-36.6577  1.46205e+18
-36.5404  3.02703e+18
-36.4231  5.55396e+18
-36.3058  8.78085e+18
-36.1885  1.24292e+19
-36.0712  1.62663e+19
-35.9539  2.01226e+19
-35.8366  2.38779e+19
-35.7193  2.74839e+19
-35.602  3.08182e+19
-35.4847  3.37423e+19
-35.3674  3.60292e+19
-35.2501  3.74325e+19
-35.1328  3.77193e+19
-35.0154  3.66944e+19
-34.8981  3.43537e+19
-34.7808  3.0794e+19
-34.6635  2.6267e+19
-34.5462  2.11992e+19
-34.4289  1.60213e+19
-34.3116  1.11887e+19
-34.1943  7.06625e+18
-34.077  3.91965e+18
-33.9597  1.85154e+18
-33.8424  8.37994e+17
-33.7251  7.44738e+17
-33.6078  1.3812e+18
-33.4905  2.52146e+18
-33.3732  3.94822e+18
-33.2559  5.46823e+18
-33.1386  6.92218e+18
-33.0213  8.18878e+18
-32.904  9.2014e+18
-32.7867  9.91325e+18
-32.6693  1.03079e+19
-32.552  1.04147e+19
-32.4347  1.02594e+19
-32.3174  9.9177e+18
-32.2001  9.43127e+18
-32.0828  8.85206e+18
-31.9655  8.21951e+18
-31.8482  7.56237e+18
-31.7309  6.90691e+18
-31.6136  6.27111e+18
-31.4963  5.70324e+18
-31.379  5.26025e+18
-31.2617  5.01887e+18
-31.1444  5.04918e+18
-31.0271  5.3791e+18
-30.9098  6.01184e+18
-30.7925  6.8784e+18
-30.6752  7.86453e+18
-30.5579  8.80481e+18
-30.4406  9.52478e+18
-30.3232  9.86376e+18
-30.2059  9.73353e+18
-30.0886  9.10741e+18
-29.9713  8.03997e+18
-29.854  6.6699e+18
-29.7367  5.20416e+18
-29.6194  3.83413e+18
-29.5021  2.7727e+18
-29.3848  2.1717e+18
-29.2675  2.12449e+18
-29.1502  2.65551e+18
-29.0329  3.71836e+18
-28.9156  5.19011e+18
-28.7983  6.90113e+18
-28.681  8.66016e+18
-28.5637  1.02473e+19
-28.4464  1.15026e+19
-28.3291  1.22834e+19
-28.2118  1.25395e+19
-28.0944  1.23178e+19
-27.9771  1.17324e+19
-27.8598  1.09859e+19
-27.7425  1.02834e+19
-27.6252  9.82788e+18
-27.5079  9.78282e+18
-27.3906  1.02078e+19
-27.2733  1.10749e+19
-27.156  1.22598e+19
-27.0387  1.3594e+19
-26.9214  1.48773e+19
-26.8041  1.59593e+19
-26.6868  1.67373e+19
-26.5695  1.72213e+19
-26.4522  1.74872e+19
-26.3349  1.76842e+19
-26.2176  1.8038e+19
-26.1003  1.87527e+19
-25.983  2.00651e+19
-25.8657  2.21672e+19
-25.7483  2.52281e+19
-25.631  2.93898e+19
-25.5137  3.47247e+19
-25.3964  4.12087e+19
-25.2791  4.87416e+19
-25.1618  5.71217e+19
-25.0445  6.5993e+19
-24.9272  7.49176e+19
-24.8099  8.33374e+19
-24.6926  9.07023e+19
-24.5753  9.65271e+19
-24.458  1.00283e+20
-24.3407  1.01701e+20
-24.2234  1.00648e+20
-24.1061  9.71749e+19
-23.9888  9.15221e+19
-23.8715  8.40799e+19
-23.7542  7.53644e+19
-23.6369  6.59885e+19
-23.5196  5.65745e+19
-23.4023  4.77856e+19
-23.2849  4.01847e+19
-23.1676  3.42593e+19
-23.0503  3.03716e+19
-22.933  2.86494e+19
-22.8157  2.90304e+19
-22.6984  3.12483e+19
-22.5811  3.48806e+19
-22.4638  3.93641e+19
-22.3465  4.41663e+19
-22.2292  4.87336e+19
-22.1119  5.27063e+19
-21.9946  5.58093e+19
-21.8773  5.80057e+19
-21.76  5.93769e+19
-21.6427  6.00636e+19
-21.5254  6.02898e+19
-21.4081  6.02911e+19
-21.2908  6.03134e+19
-21.1735  6.05542e+19
-21.0561  6.12496e+19
-20.9388  6.25794e+19
-20.8215  6.47634e+19
-20.7042  6.80764e+19
-20.5869  7.26845e+19
-20.4696  7.86836e+19
-20.3523  8.6103e+19
-20.235  9.47782e+19
-20.1177  1.04515e+20
-20.0004  1.14937e+20
-19.8831  1.25551e+20
-19.7658  1.36095e+20
-19.6485  1.46229e+20
-19.5312  1.55736e+20
-19.4139  1.64558e+20
-19.2966  1.72727e+20
-19.1793  1.80273e+20
-19.062  1.87243e+20
-18.9447  1.93717e+20
-18.8274  1.99728e+20
-18.71  2.05062e+20
-18.5927  2.09769e+20
-18.4754  2.13711e+20
-18.3581  2.16826e+20
-18.2408  2.19242e+20
-18.1235  2.21089e+20
-18.0062  2.22687e+20
-17.8889  2.24463e+20
-17.7716  2.26879e+20
-17.6543  2.30764e+20
-17.537  2.36706e+20
-17.4197  2.45605e+20
-17.3024  2.58233e+20
-17.1851  2.75353e+20
-17.0678  2.97521e+20
-16.9505  3.24949e+20
-16.8332  3.57608e+20
-16.7159  3.94936e+20
-16.5986  4.35985e+20
-16.4813  4.79393e+20
-16.364  5.23536e+20
-16.2466  5.6662e+20
-16.1293  6.06686e+20
-16.012  6.42358e+20
-15.8947  6.72249e+20
-15.7774  6.95816e+20
-15.6601  7.12831e+20
-15.5428  7.23868e+20
-15.4255  7.2985e+20
-15.3082  7.32478e+20
-15.1909  7.33625e+20
-15.0736  7.35478e+20
-14.9563  7.40066e+20
-14.839  7.49711e+20
-14.7217  7.66036e+20
-14.6044  7.9049e+20
-14.4871  8.24106e+20
-14.3698  8.67219e+20
-14.2525  9.19543e+20
-14.1352  9.80163e+20
-14.0178  1.04803e+21
-13.9005  1.12127e+21
-13.7832  1.19795e+21
-13.6659  1.27606e+21
-13.5486  1.35361e+21
-13.4313  1.42896e+21
-13.314  1.50066e+21
-13.1967  1.56771e+21
-13.0794  1.62989e+21
-12.9621  1.68669e+21
-12.8448  1.73878e+21
-12.7275  1.78643e+21
-12.6102  1.83059e+21
-12.4929  1.87197e+21
-12.3756  1.91126e+21
-12.2583  1.94923e+21
-12.141  1.98646e+21
-12.0237  2.02325e+21
-11.9064  2.05984e+21
-11.7891  2.09647e+21
-11.6718  2.13324e+21
-11.5544  2.1706e+21
-11.4371  2.20913e+21
-11.3198  2.24929e+21
-11.2025  2.29215e+21
-11.0852  2.33905e+21
-10.9679  2.39135e+21
-10.8506  2.45072e+21
-10.7333  2.51854e+21
-10.616  2.59623e+21
-10.4987  2.6853e+21
-10.3814  2.78613e+21
-10.2641  2.89927e+21
-10.1468  3.02451e+21
-10.0295  3.16119e+21
-9.91217  3.30793e+21
-9.79487  3.46349e+21
-9.67756  3.62565e+21
-9.56026  3.79218e+21
-9.44295  3.96078e+21
-9.32565  4.1294e+21
-9.20834  4.29566e+21
-9.09104  4.45765e+21
-8.97373  4.61398e+21
-8.85643  4.76386e+21
-8.73913  4.90625e+21
-8.62182  5.04143e+21
-8.50452  5.16999e+21
-8.38721  5.293e+21
-8.26991  5.4117e+21
-8.1526  5.52801e+21
-8.03529  5.64344e+21
-7.91799  5.76015e+21
-7.80069  5.8802e+21
-7.68338  6.0049e+21
-7.56608  6.13639e+21
-7.44877  6.27589e+21
-7.33146  6.42423e+21
-7.21416  6.58182e+21
-7.09685  6.74898e+21
-6.97955  6.92488e+21
-6.86224  7.10892e+21
-6.74494  7.30006e+21
-6.62763  7.49606e+21
-6.51033  7.6956e+21
-6.39302  7.89674e+21
-6.27572  8.09775e+21
-6.15842  8.29716e+21
-6.04111  8.49365e+21
-5.92381  8.68641e+21
-5.8065  8.87545e+21
-5.68919  9.06055e+21
-5.57189  9.24252e+21
-5.45458  9.42199e+21
-5.33728  9.60078e+21
-5.21997  9.77981e+21
-5.10267  9.96131e+21
-4.98536  1.01465e+22
-4.86806  1.03373e+22
-4.75075  1.05351e+22
-4.63345  1.07417e+22
-4.51614  1.0958e+22
-4.39884  1.1185e+22
-4.28154  1.14236e+22
-4.16423  1.16748e+22
-4.04692  1.19386e+22
-3.92962  1.22155e+22
-3.81231  1.25057e+22
-3.69501  1.28088e+22
-3.5777  1.31245e+22
-3.4604  1.34514e+22
-3.34309  1.37881e+22
-3.22579  1.41322e+22
-3.10849  1.44812e+22
-2.99118  1.48315e+22
-2.87387  1.51791e+22
-2.75657  1.55199e+22
-2.63926  1.58492e+22
-2.52196  1.61624e+22
-2.40465  1.64548e+22
-2.28735  1.67224e+22
-2.17005  1.69617e+22
-2.05274  1.71702e+22
-1.93544  1.73459e+22
-1.81813  1.74881e+22
-1.70083  1.75976e+22
-1.58352  1.76759e+22
-1.46622  1.77253e+22
-1.34891  1.77493e+22
-1.2316  1.77517e+22
-1.1143  1.77369e+22
-0.996995  1.77087e+22
-0.87969  1.76718e+22
-0.762385  1.76301e+22
-0.64508  1.75874e+22
-0.527775  1.75468e+22
-0.41047  1.7511e+22
-0.293165  1.74822e+22
-0.17586  1.74622e+22
-0.058555  1.7452e+22
0.05875  1.74522e+22
0.176055  1.74629e+22
0.29336  1.7483e+22
0.410665  1.75121e+22
0.52797  1.75479e+22
0.645275  1.75885e+22
0.76258  1.76309e+22
0.879885  1.7672e+22
0.99719  1.77081e+22
1.1145  1.77353e+22
1.2318  1.77489e+22
1.3491  1.77454e+22
1.46641  1.77201e+22
1.58371  1.76691e+22
1.70102  1.75895e+22
1.81832  1.74785e+22
1.93563  1.73346e+22
2.05294  1.71576e+22
2.17024  1.6948e+22
2.28754  1.67076e+22
2.40485  1.64391e+22
2.52216  1.61459e+22
2.63946  1.58321e+22
2.75677  1.55024e+22
2.87407  1.51612e+22
2.99137  1.48132e+22
3.10868  1.44628e+22
3.22599  1.41137e+22
3.34329  1.37694e+22
3.4606  1.34327e+22
3.5779  1.31058e+22
3.69521  1.27902e+22
3.81251  1.24872e+22
3.92982  1.21971e+22
4.04712  1.19203e+22
4.16443  1.16569e+22
4.28173  1.14062e+22
4.39903  1.11678e+22
4.51634  1.09413e+22
4.63364  1.07257e+22
4.75095  1.05198e+22
4.86825  1.03223e+22
4.98556  1.01321e+22
5.10286  9.94736e+21
5.22017  9.76622e+21
5.33748  9.58737e+21
5.45478  9.40901e+21
5.57209  9.22952e+21
5.68939  9.04759e+21
5.8067  8.86248e+21
5.924  8.67332e+21
6.0413  8.48036e+21
6.15861  8.28387e+21
6.27591  8.08437e+21
6.39322  7.88351e+21
6.51052  7.6825e+21
6.62783  7.48313e+21
6.74514  7.28742e+21
6.86244  7.09702e+21
6.97975  6.91345e+21
7.09705  6.73819e+21
7.21436  6.57188e+21
7.33166  6.41484e+21
7.44897  6.26725e+21
7.56627  6.12848e+21
7.68358  5.99748e+21
7.80088  5.873e+21
7.91819  5.75325e+21
8.03549  5.6367e+21
8.1528  5.52132e+21
8.2701  5.40487e+21
8.38741  5.28591e+21
8.50471  5.16268e+21
8.62202  5.03367e+21
8.73932  4.89797e+21
8.85662  4.75534e+21
8.97393  4.6054e+21
9.09123  4.44872e+21
9.20854  4.28668e+21
9.32584  4.12066e+21
9.44315  3.95219e+21
9.56045  3.78374e+21
9.67776  3.6176e+21
9.79506  3.45594e+21
9.91237  3.30078e+21
10.0297  3.15441e+21
10.147  3.01827e+21
10.2643  2.89351e+21
10.3816  2.78073e+21
10.4989  2.6803e+21
10.6162  2.59156e+21
10.7335  2.51402e+21
10.8508  2.44642e+21
10.9681  2.38725e+21
11.0854  2.33526e+21
11.2027  2.28858e+21
11.32  2.24584e+21
11.4373  2.20585e+21
11.5546  2.16766e+21
11.6719  2.13045e+21
11.7893  2.09396e+21
11.9066  2.05768e+21
12.0239  2.02117e+21
12.1412  1.98473e+21
12.2585  1.94775e+21
12.3758  1.90994e+21
12.4931  1.87073e+21
12.6104  1.82942e+21
12.7277  1.78532e+21
12.845  1.73771e+21
12.9623  1.68552e+21
13.0796  1.6286e+21
13.1969  1.56639e+21
13.3142  1.49924e+21
13.4315  1.42736e+21
13.5488  1.35201e+21
13.6661  1.27435e+21
13.7834  1.19624e+21
13.9007  1.11957e+21
14.018  1.04644e+21
14.1354  9.7863e+20
14.2527  9.17975e+20
14.37  8.65802e+20
14.4873  8.22729e+20
14.6046  7.89176e+20
14.7219  7.64691e+20
14.8392  7.48408e+20
14.9565  7.38785e+20
15.0738  7.34079e+20
15.1911  7.32239e+20
15.3084  7.30969e+20
15.4257  7.28185e+20
15.543  7.22033e+20
15.6603  7.10928e+20
15.7776  6.93851e+20
15.8949  6.70262e+20
16.0122  6.40326e+20
16.1295  6.04698e+20
16.2468  5.64593e+20
16.3641  5.21653e+20
16.4815  4.77632e+20
16.5988  4.34385e+20
16.7161  3.93473e+20
16.8334  3.56364e+20
16.9507  3.23877e+20
17.068  2.96635e+20
17.1853  2.74656e+20
17.3026  2.57698e+20
17.4199  2.45149e+20
17.5372  2.3631e+20
17.6545  2.3042e+20
17.7718  2.26626e+20
17.8891  2.24155e+20
18.0064  2.22414e+20
18.1237  2.20779e+20
18.241  2.18859e+20
18.3583  2.16365e+20
18.4756  2.1316e+20
18.5929  2.09153e+20
18.7102  2.04332e+20
18.8275  1.98931e+20
18.9449  1.92935e+20
19.0622  1.86398e+20
19.1795  1.79432e+20
19.2968  1.71881e+20
19.4141  1.63774e+20
19.5314  1.54968e+20
19.6487  1.45471e+20
19.766  1.35445e+20
19.8833  1.24931e+20
20.0006  1.14363e+20
20.1179  1.04065e+20
20.2352  9.44525e+19
20.3525  8.5845e+19
20.4698  7.85002e+19
20.5871  7.25683e+19
20.7044  6.80574e+19
20.8217  6.48227e+19
20.939  6.26862e+19
21.0563  6.14112e+19
21.1736  6.07569e+19
21.291  6.05393e+19
21.4083  6.05479e+19
21.5256  6.05391e+19
21.6429  6.03063e+19
21.7602  5.96153e+19
21.8775  5.82345e+19
21.9948  5.60017e+19
22.1121  5.28286e+19
22.2294  4.87853e+19
22.3467  4.41752e+19
22.464  3.93169e+19
22.5813  3.47894e+19
22.6986  3.11438e+19
22.8159  2.89329e+19
22.9332  2.85755e+19
23.0505  3.03456e+19
23.1678  3.42917e+19
23.2851  4.02634e+19
23.4024  4.79323e+19
23.5198  5.67707e+19
23.6371  6.62161e+19
23.7544  7.56006e+19
23.8717  8.42943e+19
23.989  9.17229e+19
24.1063  9.7315e+19
24.2236  1.00718e+20
24.3409  1.017e+20
24.4582  1.0019e+20
24.5755  9.63484e+19
24.6928  9.04942e+19
24.8101  8.30658e+19
24.9274  7.46024e+19
25.0447  6.56765e+19
25.162  5.68171e+19
25.2793  4.8485e+19
25.3966  4.09528e+19
25.5139  3.44924e+19
25.6312  2.91827e+19
25.7485  2.50362e+19
25.8658  2.19816e+19
25.9832  1.98787e+19
26.1005  1.85647e+19
26.2178  1.78446e+19
26.3351  1.74978e+19
26.4524  1.72885e+19
26.5697  1.70253e+19
26.687  1.65442e+19
26.8043  1.57688e+19
26.9216  1.47078e+19
27.0389  1.34353e+19
27.1562  1.21271e+19
27.2735  1.0972e+19
27.3908  1.01402e+19
27.5081  9.74569e+18
27.6254  9.82419e+18
27.7427  1.03015e+19
27.86  1.10215e+19
27.9773  1.17756e+19
28.0946  1.2355e+19
28.212  1.25609e+19
28.3293  1.22848e+19
28.4466  1.14792e+19
28.5639  1.02029e+19
28.6812  8.59711e+18
28.7985  6.83468e+18
28.9158  5.12278e+18
29.0331  3.66183e+18
29.1504  2.61327e+18
29.2677  2.09973e+18
29.385  2.16068e+18
29.5023  2.77357e+18
29.6196  3.84143e+18
29.7369  5.20501e+18
29.8542  6.66257e+18
29.9715  8.00161e+18
30.0888  9.05163e+18
30.2061  9.66587e+18
30.3234  9.78883e+18
30.4407  9.43586e+18
30.558  8.71822e+18
30.6754  7.79495e+18
30.7927  6.82318e+18
30.91  5.97059e+18
31.0273  5.36131e+18
31.1446  5.05458e+18
31.2619  5.04431e+18
31.3792  5.29842e+18
31.4965  5.7556e+18
31.6138  6.33636e+18
31.7311  6.9772e+18
31.8484  7.63617e+18
31.9657  8.2991e+18
32.083  8.92858e+18
32.2003  9.49527e+18
32.3176  9.97599e+18
32.4349  1.03061e+19
32.5522  1.04411e+19
32.6695  1.03187e+19
32.7868  9.90246e+18
32.9042  9.17794e+18
33.0215  8.14855e+18
33.1388  6.87452e+18
33.2561  5.41406e+18
33.3734  3.89905e+18
33.4907  2.48047e+18
33.608  1.35331e+18
33.7253  7.39245e+17
33.8426  8.55539e+17
33.9599  1.89636e+18
34.0772  3.99251e+18
34.1945  7.16082e+18
34.3118  1.12918e+19
34.4291  1.61209e+19
34.5464  2.12762e+19
34.6637  2.63327e+19
34.781  3.08102e+19
34.8983  3.43407e+19
35.0156  3.664e+19
35.1329  3.76115e+19
35.2503  3.72935e+19
35.3676  3.58441e+19
35.4849  3.35585e+19
35.6022  3.0642e+19
35.7195  2.72951e+19
35.8368  2.36915e+19
35.9541  1.99334e+19
36.0714  1.60903e+19
36.1887  1.22593e+19
36.306  8.63693e+18
36.4233  5.44543e+18
36.5406  2.95668e+18
36.6579  1.43445e+18
36.7752  1.06209e+18
36.8925  1.87587e+18
37.0098  3.74128e+18
37.1271  6.33617e+18
37.2444  9.26588e+18
37.3617  1.2067e+19
37.479  1.43934e+19
37.5964  1.60421e+19
37.7137  1.70021e+19
37.831  1.74825e+19
37.9483  1.77511e+19
38.0656  1.81708e+19
38.1829  1.89346e+19
38.3002  2.012e+19
38.4175  2.15728e+19
38.5348  2.29855e+19
38.6521  2.39586e+19
38.7694  2.41081e+19
38.8867  2.31823e+19
39.004  2.11333e+19
39.1213  1.81493e+19
39.2386  1.45841e+19
39.3559  1.09203e+19
39.4732  7.61803e+18
39.5905  5.04887e+18
39.7078  3.40244e+18
39.8251  2.66392e+18
39.9425  2.65726e+18
40.0598  3.09935e+18
40.1771  3.69887e+18
40.2944  4.19927e+18
40.4117  4.47037e+18
40.529  4.48576e+18
40.6463  4.32545e+18
40.7636  4.14861e+18
40.8809  4.10241e+18
40.9982  4.30518e+18
41.1155  4.82864e+18
41.2328  5.65815e+18
41.3501  6.71752e+18
41.4674  7.8601e+18
41.5847  8.93481e+18
41.702  9.7667e+18
41.8193  1.01875e+19
41.9366  1.01105e+19
42.0539  9.48501e+18
42.1712  8.38423e+18
42.2885  6.98332e+18
42.4059  5.54472e+18
42.5232  4.40578e+18
42.6405  3.87424e+18
42.7578  4.21717e+18
42.8751  5.51484e+18
42.9924  7.67807e+18
43.1097  1.03905e+19
43.227  1.32005e+19
43.3443  1.55769e+19
43.4616  1.7052e+19
43.5789  1.73238e+19
43.6962  1.63358e+19
43.8135  1.43207e+19
43.9308  1.17016e+19
44.0481  9.05495e+18
44.1654  6.92692e+18
44.2827  5.72205e+18
44.4  5.60247e+18
44.5173  6.45944e+18
44.6347  7.97795e+18
44.752  9.72095e+18
44.8693  1.12571e+19
44.9866  1.22718e+19
45.1039  1.26935e+19
45.2212  1.26028e+19
45.3385  1.22859e+19
45.4558  1.20954e+19
45.5731  1.2304e+19
45.6904  1.30908e+19
45.8077  1.44476e+19
45.925  1.62126e+19
46.0423  1.81048e+19
46.1596  1.98177e+19
46.2769  2.10838e+19
46.3942  2.17378e+19
46.5115  2.17533e+19
46.6288  2.11545e+19
46.7461  2.00778e+19
46.8634  1.86266e+19
46.9808  1.68805e+19
47.0981  1.49387e+19
47.2154  1.28242e+19
47.3327  1.06127e+19
47.45  8.39481e+18
47.5673  6.35066e+18
47.6846  4.69476e+18
47.8019  3.68836e+18
47.9192  3.54551e+18
48.0365  4.41197e+18
48.1538  6.30942e+18
48.2711  9.10718e+18
48.3884  1.25483e+19
48.5057  1.6257e+19
48.623  1.9807e+19
48.7403  2.27753e+19
48.8576  2.47688e+19
48.9749  2.5554e+19
49.0922  2.50357e+19
49.2095  2.32613e+19
49.3269  2.04174e+19
49.4442  1.68599e+19
49.5615  1.2987e+19
49.6788  9.27769e+18
49.7961  6.14116e+18
49.9134  3.92664e+18
50.0307  2.80985e+18
50.148  2.80048e+18
50.2653  3.74798e+18
50.3826  5.34948e+18
50.4999  7.20908e+18
50.6172  8.93801e+18
50.7345  1.01887e+19
