#S 1 spectral density
#N 2
#UFWHM 10.4401
#L  abscissas [um]  spectral density
-58.5938  4.35707e+18
-58.4764  2.26989e+18
-58.3591  1.67847e+18
-58.2418  2.67301e+18
-58.1245  5.02978e+18
-58.0072  8.25015e+18
-57.8899  1.17062e+19
-57.7726  1.4782e+19
-57.6553  1.69806e+19
-57.538  1.80674e+19
-57.4207  1.80632e+19
-57.3034  1.71816e+19
-57.1861  1.57903e+19
-57.0688  1.4263e+19
-56.9515  1.29141e+19
-56.8342  1.18975e+19
-56.7169  1.12748e+19
-56.5996  1.09588e+19
-56.4823  1.08658e+19
-56.365  1.08993e+19
-56.2477  1.10144e+19
-56.1303  1.12295e+19
-56.013  1.15933e+19
-55.8957  1.21298e+19
-55.7784  1.28198e+19
-55.6611  1.3566e+19
-55.5438  1.42246e+19
-55.4265  1.46604e+19
-55.3092  1.47134e+19
-55.1919  1.43137e+19
-55.0746  1.34968e+19
-54.9573  1.23378e+19
-54.84  1.10225e+19
-54.7227  9.68226e+18
-54.6054  8.48543e+18
-54.4881  7.49869e+18
-54.3708  6.72602e+18
-54.2535  6.15318e+18
-54.1362  5.74862e+18
-54.0189  5.49138e+18
-53.9016  5.42119e+18
-53.7842  5.62039e+18
-53.6669  6.18588e+18
-53.5496  7.2347e+18
-53.4323  8.82275e+18
-53.315  1.0946e+19
-53.1977  1.35211e+19
-53.0804  1.63677e+19
-52.9631  1.92723e+19
-52.8458  2.19978e+19
-52.7285  2.42794e+19
-52.6112  2.59463e+19
-52.4939  2.68265e+19
-52.3766  2.68599e+19
-52.2593  2.60241e+19
-52.142  2.44002e+19
-52.0247  2.21424e+19
-51.9074  1.94393e+19
-51.7901  1.65449e+19
-51.6728  1.37187e+19
-51.5555  1.11918e+19
-51.4381  9.17041e+18
-51.3208  7.74446e+18
-51.2035  6.93341e+18
-51.0862  6.65774e+18
-50.9689  6.77245e+18
-50.8516  7.09917e+18
-50.7343  7.4864e+18
-50.617  7.81153e+18
-50.4997  8.03864e+18
-50.3824  8.20719e+18
-50.2651  8.40467e+18
-50.1478  8.76332e+18
-50.0305  9.40982e+18
-49.9132  1.04131e+19
-49.7959  1.18122e+19
-49.6786  1.35602e+19
-49.5613  1.55606e+19
-49.444  1.7669e+19
-49.3267  1.97075e+19
-49.2094  2.14734e+19
-49.092  2.27793e+19
-48.9747  2.34568e+19
-48.8574  2.34061e+19
-48.7401  2.25684e+19
-48.6228  2.09758e+19
-48.5055  1.87493e+19
-48.3882  1.60434e+19
-48.2709  1.3115e+19
-48.1536  1.02059e+19
-48.0363  7.53982e+18
-47.919  5.30219e+18
-47.8017  3.60127e+18
-47.6844  2.46717e+18
-47.5671  1.87629e+18
-47.4498  1.77381e+18
-47.3325  2.08763e+18
-47.2152  2.77035e+18
-47.0979  3.7619e+18
-46.9806  5.02648e+18
-46.8633  6.49082e+18
-46.7459  8.04576e+18
-46.6286  9.56896e+18
-46.5113  1.08992e+19
-46.394  1.19414e+19
-46.2767  1.26285e+19
-46.1594  1.30191e+19
-46.0421  1.32932e+19
-45.9248  1.368e+19
-45.8075  1.44215e+19
-45.6902  1.57069e+19
-45.5729  1.75517e+19
-45.4556  1.98443e+19
-45.3383  2.22235e+19
-45.221  2.43242e+19
-45.1037  2.56876e+19
-44.9864  2.60062e+19
-44.8691  2.52197e+19
-44.7518  2.34974e+19
-44.6345  2.12226e+19
-44.5172  1.89592e+19
-44.3998  1.72472e+19
-44.2825  1.64664e+19
-44.1652  1.67584e+19
-44.0479  1.79377e+19
-43.9306  1.95915e+19
-43.8133  2.11062e+19
-43.696  2.18744e+19
-43.5787  2.14579e+19
-43.4614  1.96739e+19
-43.3441  1.66546e+19
-43.2268  1.28307e+19
-43.1095  8.83781e+18
-42.9922  5.38032e+18
-42.8749  3.07877e+18
-42.7576  2.37087e+18
-42.6403  3.43845e+18
-42.523  6.20971e+18
-42.4057  1.04051e+19
-42.2884  1.5588e+19
-42.171  2.12614e+19
-42.0537  2.70115e+19
-41.9364  3.24254e+19
-41.8191  3.72283e+19
-41.7018  4.12304e+19
-41.5845  4.43404e+19
-41.4672  4.65367e+19
-41.3499  4.78157e+19
-41.2326  4.82063e+19
-41.1153  4.77389e+19
-40.998  4.64143e+19
-40.8807  4.42531e+19
-40.7634  4.12039e+19
-40.6461  3.73173e+19
-40.5288  3.26173e+19
-40.4115  2.7283e+19
-40.2942  2.16222e+19
-40.1769  1.60463e+19
-40.0596  1.10977e+19
-39.9423  7.39062e+18
-39.825  5.48991e+18
-39.7076  5.78419e+18
-39.5903  8.41153e+18
-39.473  1.31672e+19
-39.3557  1.94788e+19
-39.2384  2.65245e+19
-39.1211  3.33029e+19
-39.0038  3.88222e+19
-38.8865  4.22889e+19
-38.7692  4.32909e+19
-38.6519  4.17509e+19
-38.5346  3.80355e+19
-38.4173  3.27723e+19
-38.3  2.68113e+19
-38.1827  2.09464e+19
-38.0654  1.58126e+19
-37.9481  1.18247e+19
-37.8308  9.07863e+18
-37.7135  7.46382e+18
-37.5962  6.69093e+18
-37.4789  6.43964e+18
-37.3615  6.44698e+18
-37.2442  6.54882e+18
-37.1269  6.69703e+18
-37.0096  6.92041e+18
-36.8923  7.29249e+18
-36.775  7.85133e+18
-36.6577  8.58777e+18
-36.5404  9.41813e+18
-36.4231  1.02403e+19
-36.3058  1.09709e+19
-36.1885  1.15853e+19
-36.0712  1.21669e+19
-35.9539  1.28703e+19
-35.8366  1.39433e+19
-35.7193  1.56134e+19
-35.602  1.8026e+19
-35.4847  2.12655e+19
-35.3674  2.52345e+19
-35.2501  2.97186e+19
-35.1328  3.44139e+19
-35.0154  3.89939e+19
-34.8981  4.31469e+19
-34.7808  4.66668e+19
-34.6635  4.94089e+19
-34.5462  5.13372e+19
-34.4289  5.25426e+19
-34.3116  5.30606e+19
-34.1943  5.30004e+19
-34.077  5.24344e+19
-33.9597  5.14177e+19
-33.8424  5.00065e+19
-33.7251  4.82641e+19
-33.6078  4.62724e+19
-33.4905  4.41458e+19
-33.3732  4.19942e+19
-33.2559  3.99481e+19
-33.1386  3.80656e+19
-33.0213  3.63909e+19
-32.904  3.49016e+19
-32.7867  3.35333e+19
-32.6693  3.21697e+19
-32.552  3.07098e+19
-32.4347  2.90598e+19
-32.3174  2.72405e+19
-32.2001  2.52859e+19
-32.0828  2.33246e+19
-31.9655  2.15638e+19
-31.8482  2.02664e+19
-31.7309  1.97322e+19
-31.6136  2.02586e+19
-31.4963  2.21338e+19
-31.379  2.55852e+19
-31.2617  3.0762e+19
-31.1444  3.76804e+19
-31.0271  4.62183e+19
-30.9098  5.61679e+19
-30.7925  6.70294e+19
-30.6752  7.83232e+19
-30.5579  8.94082e+19
-30.4406  9.9648e+19
-30.3232  1.08492e+20
-30.2059  1.15388e+20
-30.0886  1.19963e+20
-29.9713  1.22088e+20
-29.854  1.21698e+20
-29.7367  1.18839e+20
-29.6194  1.13828e+20
-29.5021  1.07017e+20
-29.3848  9.88124e+19
-29.2675  8.97485e+19
-29.1502  8.02934e+19
-29.0329  7.10013e+19
-28.9156  6.2341e+19
-28.7983  5.46849e+19
-28.681  4.8379e+19
-28.5637  4.35639e+19
-28.4464  4.03439e+19
-28.3291  3.86367e+19
-28.2118  3.82909e+19
-28.0944  3.91245e+19
-27.9771  4.09046e+19
-27.8598  4.34305e+19
-27.7425  4.65718e+19
-27.6252  5.01458e+19
-27.5079  5.41419e+19
-27.3906  5.84881e+19
-27.2733  6.3177e+19
-27.156  6.82274e+19
-27.0387  7.35872e+19
-26.9214  7.92855e+19
-26.8041  8.52851e+19
-26.6868  9.15159e+19
-26.5695  9.783e+19
-26.4522  1.04036e+20
-26.3349  1.09936e+20
-26.2176  1.15112e+20
-26.1003  1.19345e+20
-25.983  1.2225e+20
-25.8657  1.23581e+20
-25.7483  1.23311e+20
-25.631  1.21481e+20
-25.5137  1.18513e+20
-25.3964  1.1485e+20
-25.2791  1.11165e+20
-25.1618  1.08205e+20
-25.0445  1.06724e+20
-24.9272  1.07275e+20
-24.8099  1.10363e+20
-24.6926  1.16209e+20
-24.5753  1.24814e+20
-24.458  1.3594e+20
-24.3407  1.49214e+20
-24.2234  1.64026e+20
-24.1061  1.79756e+20
-23.9888  1.95658e+20
-23.8715  2.11035e+20
-23.7542  2.2517e+20
-23.6369  2.37596e+20
-23.5196  2.47966e+20
-23.4023  2.56002e+20
-23.2849  2.61805e+20
-23.1676  2.65609e+20
-23.0503  2.67732e+20
-22.933  2.68802e+20
-22.8157  2.69181e+20
-22.6984  2.6941e+20
-22.5811  2.69892e+20
-22.4638  2.70869e+20
-22.3465  2.7262e+20
-22.2292  2.75141e+20
-22.1119  2.78429e+20
-21.9946  2.82307e+20
-21.8773  2.86654e+20
-21.76  2.91184e+20
-21.6427  2.95491e+20
-21.5254  2.99189e+20
-21.4081  3.0191e+20
-21.2908  3.03369e+20
-21.1735  3.03463e+20
-21.0561  3.02229e+20
-20.9388  2.99948e+20
-20.8215  2.97079e+20
-20.7042  2.94435e+20
-20.5869  2.92723e+20
-20.4696  2.92601e+20
-20.3523  2.94629e+20
-20.235  2.99073e+20
-20.1177  3.05923e+20
-20.0004  3.14897e+20
-19.8831  3.25252e+20
-19.7658  3.366e+20
-19.6485  3.48158e+20
-19.5312  3.59502e+20
-19.4139  3.70249e+20
-19.2966  3.80447e+20
-19.1793  3.90263e+20
-19.062  4.0015e+20
-18.9447  4.1066e+20
-18.8274  4.22461e+20
-18.71  4.36138e+20
-18.5927  4.52262e+20
-18.4754  4.71165e+20
-18.3581  4.92853e+20
-18.2408  5.17201e+20
-18.1235  5.43622e+20
-18.0062  5.7134e+20
-17.8889  5.99203e+20
-17.7716  6.25872e+20
-17.6543  6.50171e+20
-17.537  6.70688e+20
-17.4197  6.86575e+20
-17.3024  6.97182e+20
-17.1851  7.02376e+20
-17.0678  7.02506e+20
-16.9505  6.98393e+20
-16.8332  6.91257e+20
-16.7159  6.82689e+20
-16.5986  6.74361e+20
-16.4813  6.68062e+20
-16.364  6.6555e+20
-16.2466  6.68327e+20
-16.1293  6.77374e+20
-16.012  6.93829e+20
-15.8947  7.17833e+20
-15.7774  7.49424e+20
-15.6601  7.87974e+20
-15.5428  8.32476e+20
-15.4255  8.81213e+20
-15.3082  9.3251e+20
-15.1909  9.84208e+20
-15.0736  1.03413e+21
-14.9563  1.08008e+21
-14.839  1.12047e+21
-14.7217  1.15352e+21
-14.6044  1.17854e+21
-14.4871  1.19518e+21
-14.3698  1.20373e+21
-14.2525  1.20488e+21
-14.1352  1.19982e+21
-14.0178  1.19019e+21
-13.9005  1.17763e+21
-13.7832  1.16382e+21
-13.6659  1.15042e+21
-13.5486  1.13895e+21
-13.4313  1.13059e+21
-13.314  1.12625e+21
-13.1967  1.12646e+21
-13.0794  1.13189e+21
-12.9621  1.14242e+21
-12.8448  1.15822e+21
-12.7275  1.17895e+21
-12.6102  1.20466e+21
-12.4929  1.23506e+21
-12.3756  1.2698e+21
-12.2583  1.30896e+21
-12.141  1.35242e+21
-12.0237  1.40015e+21
-11.9064  1.45203e+21
-11.7891  1.50816e+21
-11.6718  1.5686e+21
-11.5544  1.63337e+21
-11.4371  1.7024e+21
-11.3198  1.77555e+21
-11.2025  1.85255e+21
-11.0852  1.93325e+21
-10.9679  2.01725e+21
-10.8506  2.10413e+21
-10.7333  2.19327e+21
-10.616  2.2843e+21
-10.4987  2.37693e+21
-10.3814  2.47065e+21
-10.2641  2.56531e+21
-10.1468  2.66134e+21
-10.0295  2.75908e+21
-9.91217  2.85912e+21
-9.79487  2.96294e+21
-9.67756  3.0717e+21
-9.56026  3.18686e+21
-9.44295  3.30974e+21
-9.32565  3.44203e+21
-9.20834  3.58452e+21
-9.09104  3.73777e+21
-8.97373  3.90186e+21
-8.85643  4.07639e+21
-8.73913  4.25993e+21
-8.62182  4.45088e+21
-8.50452  4.64684e+21
-8.38721  4.84564e+21
-8.26991  5.04392e+21
-8.1526  5.23935e+21
-8.03529  5.42876e+21
-7.91799  5.61002e+21
-7.80069  5.78132e+21
-7.68338  5.941e+21
-7.56608  6.08865e+21
-7.44877  6.22438e+21
-7.33146  6.34883e+21
-7.21416  6.46312e+21
-7.09685  6.56917e+21
-6.97955  6.66901e+21
-6.86224  6.76509e+21
-6.74494  6.86034e+21
-6.62763  6.95672e+21
-6.51033  7.05716e+21
-6.39302  7.16422e+21
-6.27572  7.28045e+21
-6.15842  7.40812e+21
-6.04111  7.54944e+21
-5.92381  7.7064e+21
-5.8065  7.88081e+21
-5.68919  8.07358e+21
-5.57189  8.28573e+21
-5.45458  8.51741e+21
-5.33728  8.76843e+21
-5.21997  9.03762e+21
-5.10267  9.32373e+21
-4.98536  9.62433e+21
-4.86806  9.93669e+21
-4.75075  1.02577e+22
-4.63345  1.05842e+22
-4.51614  1.09124e+22
-4.39884  1.12386e+22
-4.28154  1.15601e+22
-4.16423  1.18739e+22
-4.04692  1.21774e+22
-3.92962  1.24696e+22
-3.81231  1.27498e+22
-3.69501  1.30175e+22
-3.5777  1.32739e+22
-3.4604  1.352e+22
-3.34309  1.37571e+22
-3.22579  1.39867e+22
-3.10849  1.42111e+22
-2.99118  1.44312e+22
-2.87387  1.46484e+22
-2.75657  1.48635e+22
-2.63926  1.50766e+22
-2.52196  1.52876e+22
-2.40465  1.54958e+22
-2.28735  1.57e+22
-2.17005  1.58991e+22
-2.05274  1.6092e+22
-1.93544  1.62771e+22
-1.81813  1.64535e+22
-1.70083  1.66203e+22
-1.58352  1.67769e+22
-1.46622  1.69234e+22
-1.34891  1.70594e+22
-1.2316  1.71853e+22
-1.1143  1.73011e+22
-0.996995  1.74069e+22
-0.87969  1.75028e+22
-0.762385  1.75879e+22
-0.64508  1.76626e+22
-0.527775  1.7726e+22
-0.41047  1.77774e+22
-0.293165  1.78162e+22
-0.17586  1.7842e+22
-0.058555  1.78545e+22
0.05875  1.78535e+22
0.176055  1.78387e+22
0.29336  1.78107e+22
0.410665  1.77698e+22
0.52797  1.77163e+22
0.645275  1.7651e+22
0.76258  1.75746e+22
0.879885  1.74877e+22
0.99719  1.73904e+22
1.1145  1.72834e+22
1.2318  1.71662e+22
1.3491  1.70394e+22
1.46641  1.69024e+22
1.58371  1.6755e+22
1.70102  1.65975e+22
1.81832  1.64298e+22
1.93563  1.62526e+22
2.05294  1.60667e+22
2.17024  1.58733e+22
2.28754  1.56734e+22
2.40485  1.54684e+22
2.52216  1.52597e+22
2.63946  1.50481e+22
2.75677  1.48342e+22
2.87407  1.46187e+22
2.99137  1.44008e+22
3.10868  1.418e+22
3.22599  1.39551e+22
3.34329  1.37249e+22
3.4606  1.34874e+22
3.5779  1.32408e+22
3.69521  1.2984e+22
3.81251  1.27158e+22
3.92982  1.24352e+22
4.04712  1.21425e+22
4.16443  1.18386e+22
4.28173  1.15246e+22
4.39903  1.12027e+22
4.51634  1.08761e+22
4.63364  1.05478e+22
4.75095  1.02211e+22
4.86825  9.8998e+21
4.98556  9.58726e+21
5.10286  9.28681e+21
5.22017  9.00067e+21
5.33748  8.73162e+21
5.45478  8.48081e+21
5.57209  8.24963e+21
5.68939  8.03789e+21
5.8067  7.84561e+21
5.924  7.67185e+21
6.0413  7.5156e+21
6.15861  7.37494e+21
6.27591  7.24771e+21
6.39322  7.13228e+21
6.51052  7.02573e+21
6.62783  6.9256e+21
6.74514  6.82943e+21
6.86244  6.73476e+21
6.97975  6.63856e+21
7.09705  6.53877e+21
7.21436  6.43277e+21
7.33166  6.31818e+21
7.44897  6.19375e+21
7.56627  6.05807e+21
7.68358  5.91033e+21
7.80088  5.75064e+21
7.91819  5.57954e+21
8.03549  5.39866e+21
8.1528  5.20976e+21
8.2701  5.01502e+21
8.38741  4.81741e+21
8.50471  4.61957e+21
8.62202  4.42462e+21
8.73932  4.23463e+21
8.85662  4.05217e+21
8.97393  3.87874e+21
9.09123  3.71559e+21
9.20854  3.56323e+21
9.32584  3.42164e+21
9.44315  3.2901e+21
9.56045  3.16762e+21
9.67776  3.05311e+21
9.79506  2.94474e+21
9.91237  2.84134e+21
10.0297  2.7416e+21
10.147  2.64434e+21
10.2643  2.54881e+21
10.3816  2.45449e+21
10.4989  2.36129e+21
10.6162  2.26924e+21
10.7335  2.17875e+21
10.8508  2.09019e+21
10.9681  2.00394e+21
11.0854  1.92065e+21
11.2027  1.84062e+21
11.32  1.76419e+21
11.4373  1.69162e+21
11.5546  1.62316e+21
11.6719  1.55885e+21
11.7893  1.49895e+21
11.9066  1.44328e+21
12.0239  1.39168e+21
12.1412  1.34447e+21
12.2585  1.30142e+21
12.3758  1.26264e+21
12.4931  1.2282e+21
12.6104  1.1982e+21
12.7277  1.1729e+21
12.845  1.15246e+21
12.9623  1.13694e+21
13.0796  1.12677e+21
13.1969  1.12163e+21
13.3142  1.12166e+21
13.4315  1.1262e+21
13.5488  1.13474e+21
13.6661  1.14635e+21
13.7834  1.15976e+21
13.9007  1.17361e+21
14.018  1.18619e+21
14.1354  1.19577e+21
14.2527  1.20072e+21
14.37  1.19957e+21
14.4873  1.19093e+21
14.6046  1.17422e+21
14.7219  1.14913e+21
14.8392  1.11609e+21
14.9565  1.07585e+21
15.0738  1.02996e+21
15.1911  9.80238e+20
15.3084  9.28712e+20
15.4257  8.77559e+20
15.543  8.28979e+20
15.6603  7.84777e+20
15.7776  7.46506e+20
15.8949  7.15159e+20
16.0122  6.91431e+20
16.1295  6.75255e+20
16.2468  6.66311e+20
16.3641  6.63801e+20
16.4815  6.66518e+20
16.5988  6.72975e+20
16.7161  6.81393e+20
16.8334  6.90198e+20
16.9507  6.97422e+20
17.068  7.017e+20
17.1853  7.01691e+20
17.3026  6.96671e+20
17.4199  6.86144e+20
17.5372  6.70324e+20
17.6545  6.49872e+20
17.7718  6.25794e+20
17.8891  5.99183e+20
18.0064  5.7152e+20
18.1237  5.43954e+20
18.241  5.17624e+20
18.3583  4.93405e+20
18.4756  4.71818e+20
18.5929  4.53044e+20
18.7102  4.3696e+20
18.8275  4.23316e+20
18.9449  4.11539e+20
19.0622  4.00988e+20
19.1795  3.91075e+20
19.2968  3.81105e+20
19.4141  3.70797e+20
19.5314  3.59866e+20
19.6487  3.48359e+20
19.766  3.36644e+20
19.8833  3.25138e+20
20.0006  3.14582e+20
20.1179  3.05544e+20
20.2352  2.98652e+20
20.3525  2.94132e+20
20.4698  2.92049e+20
20.5871  2.92127e+20
20.7044  2.93889e+20
20.8217  2.96565e+20
20.939  2.99432e+20
21.0563  3.01726e+20
21.1736  3.02956e+20
21.291  3.02907e+20
21.4083  3.01456e+20
21.5256  2.98689e+20
21.6429  2.95028e+20
21.7602  2.90774e+20
21.8775  2.86311e+20
21.9948  2.82025e+20
22.1121  2.78171e+20
22.2294  2.74925e+20
22.3467  2.72534e+20
22.464  2.70856e+20
22.5813  2.69916e+20
22.6986  2.69526e+20
22.8159  2.69373e+20
22.9332  2.69036e+20
23.0505  2.68054e+20
23.1678  2.65913e+20
23.2851  2.62118e+20
23.4024  2.56239e+20
23.5198  2.48166e+20
23.6371  2.37743e+20
23.7544  2.25236e+20
23.8717  2.11012e+20
23.989  1.95582e+20
24.1063  1.79642e+20
24.2236  1.6387e+20
24.3409  1.4903e+20
24.4582  1.3582e+20
24.5755  1.24701e+20
24.6928  1.16193e+20
24.8101  1.10443e+20
24.9274  1.07471e+20
25.0447  1.07003e+20
25.162  1.08558e+20
25.2793  1.1157e+20
25.3966  1.1525e+20
25.5139  1.18918e+20
25.6312  1.2187e+20
25.7485  1.23603e+20
25.8658  1.23837e+20
25.9832  1.22377e+20
26.1005  1.19454e+20
26.2178  1.152e+20
26.3351  1.09945e+20
26.4524  1.04053e+20
26.5697  9.78372e+19
26.687  9.15315e+19
26.8043  8.53374e+19
26.9216  7.93627e+19
27.0389  7.36834e+19
27.1562  6.83314e+19
27.2735  6.33019e+19
27.3908  5.85932e+19
27.5081  5.4242e+19
27.6254  5.02323e+19
27.7427  4.66256e+19
27.86  4.3481e+19
27.9773  4.0931e+19
28.0946  3.91537e+19
28.212  3.83153e+19
28.3293  3.86814e+19
28.4466  4.04015e+19
28.5639  4.36696e+19
28.6812  4.85281e+19
28.7985  5.49047e+19
28.9158  6.26144e+19
29.0331  7.13388e+19
29.1504  8.06779e+19
29.2677  9.01558e+19
29.385  9.92526e+19
29.5023  1.07447e+20
29.6196  1.1421e+20
29.7369  1.1915e+20
29.8542  1.21934e+20
29.9715  1.22281e+20
30.0888  1.20071e+20
30.2061  1.15366e+20
30.3234  1.08391e+20
30.4407  9.9517e+19
30.558  8.92325e+19
30.6754  7.81341e+19
30.7927  6.68551e+19
30.91  5.60044e+19
31.0273  4.61242e+19
31.1446  3.75857e+19
31.2619  3.06972e+19
31.3792  2.5532e+19
31.4965  2.2091e+19
31.6138  2.0222e+19
31.7311  1.96735e+19
31.8484  2.01818e+19
31.9657  2.14486e+19
32.083  2.3184e+19
32.2003  2.51184e+19
32.3176  2.70704e+19
32.4349  2.8892e+19
32.5522  3.05504e+19
32.6695  3.20371e+19
32.7868  3.34461e+19
32.9042  3.48718e+19
33.0215  3.64013e+19
33.1388  3.81399e+19
33.2561  4.00542e+19
33.3734  4.21597e+19
33.4907  4.43264e+19
33.608  4.64703e+19
33.7253  4.84817e+19
33.8426  5.02181e+19
33.9599  5.16403e+19
34.0772  5.26383e+19
34.1945  5.31942e+19
34.3118  5.32412e+19
34.4291  5.27066e+19
34.5464  5.14956e+19
34.6637  4.95044e+19
34.781  4.67361e+19
34.8983  4.3184e+19
35.0156  3.89891e+19
35.1329  3.43927e+19
35.2503  2.96723e+19
35.3676  2.51926e+19
35.4849  2.12214e+19
35.6022  1.79921e+19
35.7195  1.55778e+19
35.8368  1.39373e+19
35.9541  1.28688e+19
36.0714  1.21738e+19
36.1887  1.16016e+19
36.306  1.0985e+19
36.4233  1.02585e+19
36.5406  9.43632e+18
36.6579  8.60361e+18
36.7752  7.86646e+18
36.8925  7.29883e+18
37.0098  6.91657e+18
37.1271  6.68484e+18
37.2444  6.53249e+18
37.3617  6.43283e+18
37.479  6.43508e+18
37.5964  6.70294e+18
37.7137  7.51368e+18
37.831  9.16954e+18
37.9483  1.19694e+19
38.0656  1.59946e+19
38.1829  2.11583e+19
38.3002  2.70264e+19
38.4175  3.2984e+19
38.5348  3.81907e+19
38.6521  4.18468e+19
38.7694  4.33136e+19
38.8867  4.22397e+19
39.004  3.86805e+19
39.1213  3.30858e+19
39.2386  2.62775e+19
39.3559  1.92402e+19
39.4732  1.29582e+19
39.5905  8.26985e+18
39.7078  5.71771e+18
39.8251  5.50198e+18
39.9425  7.48835e+18
40.0598  1.12539e+19
40.1771  1.62476e+19
40.2944  2.18616e+19
40.4117  2.7533e+19
40.529  3.28454e+19
40.6463  3.75237e+19
40.7636  4.13857e+19
40.8809  4.4365e+19
40.9982  4.64987e+19
41.1155  4.77584e+19
41.2328  4.81834e+19
41.3501  4.77315e+19
41.4674  4.64132e+19
41.5847  4.41816e+19
41.702  4.10255e+19
41.8193  3.70047e+19
41.9366  3.21816e+19
42.0539  2.67646e+19
42.1712  2.10361e+19
42.2885  1.53739e+19
42.4059  1.0232e+19
42.5232  6.08806e+18
42.6405  3.37094e+18
42.7578  2.35476e+18
42.8751  3.1134e+18
42.9924  5.44854e+18
43.1097  8.92455e+18
43.227  1.29153e+19
43.3443  1.67203e+19
43.4616  1.97079e+19
43.5789  2.1449e+19
43.6962  2.18258e+19
43.8135  2.10108e+19
43.9308  1.95008e+19
44.0481  1.78678e+19
44.1654  1.67081e+19
44.2827  1.64601e+19
44.4  1.72847e+19
44.5173  1.90414e+19
44.6347  2.13246e+19
44.752  2.36091e+19
44.8693  2.53256e+19
44.9866  2.61028e+19
45.1039  2.57369e+19
45.2212  2.43627e+19
45.3385  2.22665e+19
45.4558  1.98613e+19
45.5731  1.7592e+19
45.6904  1.57582e+19
45.8077  1.45008e+19
45.925  1.3775e+19
46.0423  1.34034e+19
46.1596  1.31288e+19
46.2769  1.27176e+19
46.3942  1.20208e+19
46.5115  1.09592e+19
46.6288  9.60794e+18
46.7461  8.06788e+18
46.8634  6.49529e+18
46.9808  5.03012e+18
47.0981  3.75967e+18
47.2154  2.76049e+18
47.3327  2.08022e+18
47.45  1.77241e+18
47.5673  1.89188e+18
47.6846  2.50537e+18
47.8019  3.6696e+18
47.9192  5.40148e+18
48.0365  7.67071e+18
48.1538  1.03595e+19
48.2711  1.32872e+19
48.3884  1.62162e+19
48.5057  1.89013e+19
48.623  2.11073e+19
48.7403  2.26443e+19
48.8576  2.34398e+19
48.9749  2.34523e+19
49.0922  2.27308e+19
49.2095  2.13803e+19
49.3269  1.96031e+19
49.4442  1.75524e+19
49.5615  1.54496e+19
49.6788  1.34449e+19
49.7961  1.1715e+19
49.9134  1.03213e+19
50.0307  9.33046e+18
50.148  8.71519e+18
50.2653  8.37551e+18
50.3826  8.18773e+18
50.4999  8.0389e+18
50.6172  7.81986e+18
50.7345  7.49895e+18
50.8518  7.11167e+18
