#S 1 spectral density
#N 2
#UFWHM 40.001
#L  abscissas [um]  spectral density
-58.5938  1.99384e+20
-58.4764  1.87389e+20
-58.3591  1.7486e+20
-58.2418  1.62959e+20
-58.1245  1.52548e+20
-58.0072  1.44291e+20
-57.8899  1.38697e+20
-57.7726  1.35914e+20
-57.6553  1.36062e+20
-57.538  1.39058e+20
-57.4207  1.44706e+20
-57.3034  1.52632e+20
-57.1861  1.62304e+20
-57.0688  1.73022e+20
-56.9515  1.8394e+20
-56.8342  1.94075e+20
-56.7169  2.02468e+20
-56.5996  2.08362e+20
-56.4823  2.11117e+20
-56.365  2.10469e+20
-56.2477  2.06567e+20
-56.1303  1.99743e+20
-56.013  1.906e+20
-55.8957  1.7993e+20
-55.7784  1.68518e+20
-55.6611  1.57093e+20
-55.5438  1.46227e+20
-55.4265  1.3645e+20
-55.3092  1.28136e+20
-55.1919  1.21517e+20
-55.0746  1.16817e+20
-54.9573  1.14076e+20
-54.84  1.13289e+20
-54.7227  1.14348e+20
-54.6054  1.16932e+20
-54.4881  1.20698e+20
-54.3708  1.25091e+20
-54.2535  1.29683e+20
-54.1362  1.33958e+20
-54.0189  1.37533e+20
-53.9016  1.40153e+20
-53.7842  1.41759e+20
-53.6669  1.42385e+20
-53.5496  1.42269e+20
-53.4323  1.41666e+20
-53.315  1.40861e+20
-53.1977  1.40157e+20
-53.0804  1.3966e+20
-52.9631  1.39531e+20
-52.8458  1.39769e+20
-52.7285  1.40314e+20
-52.6112  1.41022e+20
-52.4939  1.41703e+20
-52.3766  1.42131e+20
-52.2593  1.42091e+20
-52.142  1.41357e+20
-52.0247  1.39771e+20
-51.9074  1.37294e+20
-51.7901  1.33875e+20
-51.6728  1.29604e+20
-51.5555  1.24645e+20
-51.4381  1.19195e+20
-51.3208  1.13421e+20
-51.2035  1.07588e+20
-51.0862  1.01861e+20
-50.9689  9.64479e+19
-50.8516  9.15049e+19
-50.7343  8.71827e+19
-50.617  8.36741e+19
-50.4997  8.11386e+19
-50.3824  7.97377e+19
-50.2651  7.95992e+19
-50.1478  8.07566e+19
-50.0305  8.32126e+19
-49.9132  8.6812e+19
-49.7959  9.13551e+19
-49.6786  9.65317e+19
-49.5613  1.02e+20
-49.444  1.07352e+20
-49.3267  1.12254e+20
-49.2094  1.16375e+20
-49.092  1.19402e+20
-48.9747  1.21178e+20
-48.8574  1.21615e+20
-48.7401  1.20681e+20
-48.6228  1.18514e+20
-48.5055  1.15271e+20
-48.3882  1.11223e+20
-48.2709  1.06703e+20
-48.1536  1.02057e+20
-48.0363  9.76308e+19
-47.919  9.3717e+19
-47.8017  9.05845e+19
-47.6844  8.84112e+19
-47.5671  8.73506e+19
-47.4498  8.74741e+19
-47.3325  8.88486e+19
-47.2152  9.14673e+19
-47.0979  9.52701e+19
-46.9806  1.00115e+20
-46.8633  1.05756e+20
-46.7459  1.11825e+20
-46.6286  1.17875e+20
-46.5113  1.23425e+20
-46.394  1.28033e+20
-46.2767  1.31354e+20
-46.1594  1.33246e+20
-46.0421  1.33777e+20
-45.9248  1.33226e+20
-45.8075  1.32041e+20
-45.6902  1.30724e+20
-45.5729  1.29745e+20
-45.4556  1.29452e+20
-45.3383  1.30042e+20
-45.221  1.31528e+20
-45.1037  1.33828e+20
-44.9864  1.36825e+20
-44.8691  1.40405e+20
-44.7518  1.44569e+20
-44.6345  1.4939e+20
-44.5172  1.54973e+20
-44.3998  1.61343e+20
-44.2825  1.68462e+20
-44.1652  1.76044e+20
-44.0479  1.8359e+20
-43.9306  1.90456e+20
-43.8133  1.95916e+20
-43.696  1.99306e+20
-43.5787  2.00226e+20
-43.4614  1.9851e+20
-43.3441  1.94384e+20
-43.2268  1.88378e+20
-43.1095  1.8131e+20
-42.9922  1.74056e+20
-42.8749  1.67573e+20
-42.7576  1.6257e+20
-42.6403  1.59627e+20
-42.523  1.59007e+20
-42.4057  1.60769e+20
-42.2884  1.64733e+20
-42.171  1.70568e+20
-42.0537  1.77751e+20
-41.9364  1.85768e+20
-41.8191  1.94026e+20
-41.7018  2.01995e+20
-41.5845  2.09126e+20
-41.4672  2.15021e+20
-41.3499  2.1941e+20
-41.2326  2.22194e+20
-41.1153  2.23468e+20
-40.998  2.23535e+20
-40.8807  2.22825e+20
-40.7634  2.21904e+20
-40.6461  2.21464e+20
-40.5288  2.22131e+20
-40.4115  2.24557e+20
-40.2942  2.2923e+20
-40.1769  2.36633e+20
-40.0596  2.4703e+20
-39.9423  2.60488e+20
-39.825  2.76781e+20
-39.7076  2.95423e+20
-39.5903  3.15684e+20
-39.473  3.36522e+20
-39.3557  3.56694e+20
-39.2384  3.74916e+20
-39.1211  3.90012e+20
-39.0038  4.00903e+20
-38.8865  4.07126e+20
-38.7692  4.08555e+20
-38.6519  4.05591e+20
-38.5346  3.99118e+20
-38.4173  3.90408e+20
-38.3  3.80838e+20
-38.1827  3.71877e+20
-38.0654  3.64676e+20
-37.9481  3.60278e+20
-37.8308  3.59293e+20
-37.7135  3.62129e+20
-37.5962  3.68899e+20
-37.4789  3.79554e+20
-37.3615  3.93857e+20
-37.2442  4.11468e+20
-37.1269  4.32046e+20
-37.0096  4.55007e+20
-36.8923  4.79598e+20
-36.775  5.04881e+20
-36.6577  5.29854e+20
-36.5404  5.534e+20
-36.4231  5.74464e+20
-36.3058  5.92175e+20
-36.1885  6.05984e+20
-36.0712  6.15647e+20
-35.9539  6.21458e+20
-35.8366  6.2387e+20
-35.7193  6.23845e+20
-35.602  6.22218e+20
-35.4847  6.2012e+20
-35.3674  6.18438e+20
-35.2501  6.17979e+20
-35.1328  6.19224e+20
-35.0154  6.22432e+20
-34.8981  6.27857e+20
-34.7808  6.35326e+20
-34.6635  6.44628e+20
-34.5462  6.55466e+20
-34.4289  6.67491e+20
-34.3116  6.80045e+20
-34.1943  6.92787e+20
-34.077  7.05224e+20
-33.9597  7.16884e+20
-33.8424  7.27499e+20
-33.7251  7.36935e+20
-33.6078  7.45243e+20
-33.4905  7.5262e+20
-33.3732  7.5937e+20
-33.2559  7.66018e+20
-33.1386  7.72976e+20
-33.0213  7.80741e+20
-32.904  7.89722e+20
-32.7867  8.0015e+20
-32.6693  8.12164e+20
-32.552  8.25639e+20
-32.4347  8.40653e+20
-32.3174  8.56796e+20
-32.2001  8.73815e+20
-32.0828  8.91347e+20
-31.9655  9.08993e+20
-31.8482  9.26527e+20
-31.7309  9.43648e+20
-31.6136  9.60361e+20
-31.4963  9.76682e+20
-31.379  9.92729e+20
-31.2617  1.00895e+21
-31.1444  1.02553e+21
-31.0271  1.04308e+21
-30.9098  1.06192e+21
-30.7925  1.08236e+21
-30.6752  1.10444e+21
-30.5579  1.1282e+21
-30.4406  1.1533e+21
-30.3232  1.17917e+21
-30.2059  1.20559e+21
-30.0886  1.23154e+21
-29.9713  1.25639e+21
-29.854  1.27943e+21
-29.7367  1.30012e+21
-29.6194  1.31775e+21
-29.5021  1.33202e+21
-29.3848  1.34284e+21
-29.2675  1.35035e+21
-29.1502  1.35475e+21
-29.0329  1.35665e+21
-28.9156  1.35681e+21
-28.7983  1.35612e+21
-28.681  1.35553e+21
-28.5637  1.35612e+21
-28.4464  1.35871e+21
-28.3291  1.36423e+21
-28.2118  1.37335e+21
-28.0944  1.38642e+21
-27.9771  1.40385e+21
-27.8598  1.42544e+21
-27.7425  1.45128e+21
-27.6252  1.48065e+21
-27.5079  1.51305e+21
-27.3906  1.54771e+21
-27.2733  1.58352e+21
-27.156  1.61976e+21
-27.0387  1.65524e+21
-26.9214  1.68931e+21
-26.8041  1.72126e+21
-26.6868  1.7504e+21
-26.5695  1.77652e+21
-26.4522  1.79924e+21
-26.3349  1.81883e+21
-26.2176  1.83527e+21
-26.1003  1.8488e+21
-25.983  1.85949e+21
-25.8657  1.86767e+21
-25.7483  1.87368e+21
-25.631  1.8775e+21
-25.5137  1.88009e+21
-25.3964  1.8813e+21
-25.2791  1.88176e+21
-25.1618  1.88186e+21
-25.0445  1.88207e+21
-24.9272  1.88276e+21
-24.8099  1.88443e+21
-24.6926  1.88753e+21
-24.5753  1.89286e+21
-24.458  1.90065e+21
-24.3407  1.91167e+21
-24.2234  1.92644e+21
-24.1061  1.9457e+21
-23.9888  1.96973e+21
-23.8715  1.9991e+21
-23.7542  2.03378e+21
-23.6369  2.07388e+21
-23.5196  2.11877e+21
-23.4023  2.16797e+21
-23.2849  2.22057e+21
-23.1676  2.27522e+21
-23.0503  2.33082e+21
-22.933  2.38536e+21
-22.8157  2.43742e+21
-22.6984  2.48525e+21
-22.5811  2.52719e+21
-22.4638  2.56206e+21
-22.3465  2.58859e+21
-22.2292  2.60658e+21
-22.1119  2.6159e+21
-21.9946  2.61714e+21
-21.8773  2.61123e+21
-21.76  2.59962e+21
-21.6427  2.58427e+21
-21.5254  2.56702e+21
-21.4081  2.54986e+21
-21.2908  2.53457e+21
-21.1735  2.52271e+21
-21.0561  2.51597e+21
-20.9388  2.51514e+21
-20.8215  2.5217e+21
-20.7042  2.53565e+21
-20.5869  2.55742e+21
-20.4696  2.58689e+21
-20.3523  2.62346e+21
-20.235  2.66652e+21
-20.1177  2.71478e+21
-20.0004  2.7669e+21
-19.8831  2.82178e+21
-19.7658  2.87759e+21
-19.6485  2.93314e+21
-19.5312  2.98705e+21
-19.4139  3.03849e+21
-19.2966  3.08635e+21
-19.1793  3.13019e+21
-19.062  3.16943e+21
-18.9447  3.20378e+21
-18.8274  3.23284e+21
-18.71  3.25668e+21
-18.5927  3.27522e+21
-18.4754  3.28855e+21
-18.3581  3.29713e+21
-18.2408  3.30085e+21
-18.1235  3.30038e+21
-18.0062  3.29601e+21
-17.8889  3.28835e+21
-17.7716  3.27799e+21
-17.6543  3.2653e+21
-17.537  3.25134e+21
-17.4197  3.23679e+21
-17.3024  3.22285e+21
-17.1851  3.21036e+21
-17.0678  3.20079e+21
-16.9505  3.19561e+21
-16.8332  3.1962e+21
-16.7159  3.2038e+21
-16.5986  3.2194e+21
-16.4813  3.24359e+21
-16.364  3.27685e+21
-16.2466  3.31899e+21
-16.1293  3.36968e+21
-16.012  3.42752e+21
-15.8947  3.49124e+21
-15.7774  3.55911e+21
-15.6601  3.62885e+21
-15.5428  3.69858e+21
-15.4255  3.76551e+21
-15.3082  3.82749e+21
-15.1909  3.88271e+21
-15.0736  3.92899e+21
-14.9563  3.96517e+21
-14.839  3.99052e+21
-14.7217  4.0048e+21
-14.6044  4.0085e+21
-14.4871  4.00268e+21
-14.3698  3.98896e+21
-14.2525  3.96931e+21
-14.1352  3.94576e+21
-14.0178  3.92089e+21
-13.9005  3.89676e+21
-13.7832  3.87552e+21
-13.6659  3.85906e+21
-13.5486  3.84856e+21
-13.4313  3.84515e+21
-13.314  3.84917e+21
-13.1967  3.86096e+21
-13.0794  3.88029e+21
-12.9621  3.90631e+21
-12.8448  3.93852e+21
-12.7275  3.97566e+21
-12.6102  4.01688e+21
-12.4929  4.06078e+21
-12.3756  4.10631e+21
-12.2583  4.15259e+21
-12.141  4.19875e+21
-12.0237  4.24391e+21
-11.9064  4.2874e+21
-11.7891  4.32863e+21
-11.6718  4.36717e+21
-11.5544  4.40285e+21
-11.4371  4.43525e+21
-11.3198  4.46395e+21
-11.2025  4.48881e+21
-11.0852  4.50968e+21
-10.9679  4.52615e+21
-10.8506  4.53827e+21
-10.7333  4.54567e+21
-10.616  4.54839e+21
-10.4987  4.5468e+21
-10.3814  4.5408e+21
-10.2641  4.53098e+21
-10.1468  4.51813e+21
-10.0295  4.50297e+21
-9.91217  4.48685e+21
-9.79487  4.47091e+21
-9.67756  4.45682e+21
-9.56026  4.44592e+21
-9.44295  4.43958e+21
-9.32565  4.43932e+21
-9.20834  4.44601e+21
-9.09104  4.46059e+21
-8.97373  4.48333e+21
-8.85643  4.51422e+21
-8.73913  4.55278e+21
-8.62182  4.59817e+21
-8.50452  4.64927e+21
-8.38721  4.70446e+21
-8.26991  4.76178e+21
-8.1526  4.81938e+21
-8.03529  4.87497e+21
-7.91799  4.92656e+21
-7.80069  4.97212e+21
-7.68338  5.00992e+21
-7.56608  5.03857e+21
-7.44877  5.0574e+21
-7.33146  5.0657e+21
-7.21416  5.06367e+21
-7.09685  5.05188e+21
-6.97955  5.03123e+21
-6.86224  5.00352e+21
-6.74494  4.97012e+21
-6.62763  4.93288e+21
-6.51033  4.89414e+21
-6.39302  4.85577e+21
-6.27572  4.8197e+21
-6.15842  4.78792e+21
-6.04111  4.7621e+21
-5.92381  4.74354e+21
-5.8065  4.73355e+21
-5.68919  4.73275e+21
-5.57189  4.74171e+21
-5.45458  4.76054e+21
-5.33728  4.78888e+21
-5.21997  4.82631e+21
-5.10267  4.8717e+21
-4.98536  4.92406e+21
-4.86806  4.98162e+21
-4.75075  5.0426e+21
-4.63345  5.10515e+21
-4.51614  5.16708e+21
-4.39884  5.22632e+21
-4.28154  5.28041e+21
-4.16423  5.32748e+21
-4.04692  5.36579e+21
-3.92962  5.39388e+21
-3.81231  5.41074e+21
-3.69501  5.41579e+21
-3.5777  5.40903e+21
-3.4604  5.39089e+21
-3.34309  5.36243e+21
-3.22579  5.32503e+21
-3.10849  5.28053e+21
-2.99118  5.23102e+21
-2.87387  5.17877e+21
-2.75657  5.1264e+21
-2.63926  5.07605e+21
-2.52196  5.03013e+21
-2.40465  4.99065e+21
-2.28735  4.95914e+21
-2.17005  4.93734e+21
-2.05274  4.92557e+21
-1.93544  4.92458e+21
-1.81813  4.93452e+21
-1.70083  4.95474e+21
-1.58352  4.98459e+21
-1.46622  5.02305e+21
-1.34891  5.06876e+21
-1.2316  5.11993e+21
-1.1143  5.17482e+21
-0.996995  5.23148e+21
-0.87969  5.28803e+21
-0.762385  5.34232e+21
-0.64508  5.39253e+21
-0.527775  5.43707e+21
-0.41047  5.47436e+21
-0.293165  5.50343e+21
-0.17586  5.5231e+21
-0.058555  5.53291e+21
0.05875  5.53268e+21
0.176055  5.52236e+21
0.29336  5.50232e+21
0.410665  5.4729e+21
0.52797  5.43534e+21
0.645275  5.39063e+21
0.76258  5.34034e+21
0.879885  5.28605e+21
0.99719  5.22967e+21
1.1145  5.17324e+21
1.2318  5.11863e+21
1.3491  5.06777e+21
1.46641  5.02249e+21
1.58371  4.98451e+21
1.70102  4.95517e+21
1.81832  4.93537e+21
1.93563  4.92597e+21
2.05294  4.92726e+21
2.17024  4.93936e+21
2.28754  4.96171e+21
2.40485  4.99347e+21
2.52216  5.03344e+21
2.63946  5.07949e+21
2.75677  5.13012e+21
2.87407  5.18284e+21
2.99137  5.23514e+21
3.10868  5.28485e+21
3.22599  5.32946e+21
3.34329  5.36697e+21
3.4606  5.39552e+21
3.5779  5.41351e+21
3.69521  5.42022e+21
3.81251  5.41511e+21
3.92982  5.39807e+21
4.04712  5.36982e+21
4.16443  5.33132e+21
4.28173  5.28399e+21
4.39903  5.22968e+21
4.51634  5.17033e+21
4.63364  5.10829e+21
4.75095  5.04568e+21
4.86825  4.98465e+21
4.98556  4.9273e+21
5.10286  4.87514e+21
5.22017  4.83012e+21
5.33748  4.79313e+21
5.45478  4.76525e+21
5.57209  4.74699e+21
5.68939  4.73856e+21
5.8067  4.74008e+21
5.924  4.75075e+21
6.0413  4.7698e+21
6.15861  4.79613e+21
6.27591  4.82836e+21
6.39322  4.86487e+21
6.51052  4.90355e+21
6.62783  4.94244e+21
6.74514  4.97955e+21
6.86244  5.0129e+21
6.97975  5.04053e+21
7.09705  5.06089e+21
7.21436  5.07245e+21
7.33166  5.07404e+21
7.44897  5.0655e+21
7.56627  5.04652e+21
7.68358  5.0175e+21
7.80088  4.97951e+21
7.91819  4.93383e+21
8.03549  4.88223e+21
8.1528  4.82675e+21
8.2701  4.76923e+21
8.38741  4.7121e+21
8.50471  4.65718e+21
8.62202  4.60635e+21
8.73932  4.56126e+21
8.85662  4.52296e+21
8.97393  4.49237e+21
9.09123  4.46988e+21
9.20854  4.45549e+21
9.32584  4.44897e+21
9.44315  4.44944e+21
9.56045  4.45578e+21
9.67776  4.46677e+21
9.79506  4.4808e+21
9.91237  4.49674e+21
10.0297  4.51285e+21
10.147  4.52786e+21
10.2643  4.54072e+21
10.3816  4.55039e+21
10.4989  4.55639e+21
10.6162  4.55806e+21
10.7335  4.55517e+21
10.8508  4.54764e+21
10.9681  4.53554e+21
11.0854  4.51918e+21
11.2027  4.49847e+21
11.32  4.47354e+21
11.4373  4.4448e+21
11.5546  4.4125e+21
11.6719  4.37688e+21
11.7893  4.33842e+21
11.9066  4.29717e+21
12.0239  4.2537e+21
12.1412  4.20873e+21
12.2585  4.16268e+21
12.3758  4.11643e+21
12.4931  4.07096e+21
12.6104  4.02709e+21
12.7277  3.9861e+21
12.845  3.94917e+21
12.9623  3.91713e+21
13.0796  3.89129e+21
13.1969  3.87224e+21
13.3142  3.86071e+21
13.4315  3.85691e+21
13.5488  3.86065e+21
13.6661  3.87149e+21
13.7834  3.88822e+21
13.9007  3.90962e+21
14.018  3.93397e+21
14.1354  3.95904e+21
14.2527  3.98263e+21
14.37  4.00231e+21
14.4873  4.01593e+21
14.6046  4.02159e+21
14.7219  4.01769e+21
14.8392  4.00316e+21
14.9565  3.97756e+21
15.0738  3.94095e+21
15.1911  3.89435e+21
15.3084  3.83893e+21
15.4257  3.77661e+21
15.543  3.70938e+21
15.6603  3.6396e+21
15.7776  3.56977e+21
15.8949  3.50211e+21
16.0122  3.43839e+21
16.1295  3.38068e+21
16.2468  3.3304e+21
16.3641  3.2886e+21
16.4815  3.25578e+21
16.5988  3.23191e+21
16.7161  3.2168e+21
16.8334  3.2098e+21
16.9507  3.20956e+21
17.068  3.21504e+21
17.1853  3.22489e+21
17.3026  3.23744e+21
17.4199  3.25166e+21
17.5372  3.26633e+21
17.6545  3.28022e+21
17.7718  3.29272e+21
17.8891  3.30297e+21
18.0064  3.31044e+21
18.1237  3.3145e+21
18.241  3.31472e+21
18.3583  3.3107e+21
18.4756  3.30193e+21
18.5929  3.28827e+21
18.7102  3.26958e+21
18.8275  3.24555e+21
18.9449  3.21628e+21
19.0622  3.18181e+21
19.1795  3.14248e+21
19.2968  3.09856e+21
19.4141  3.05057e+21
19.5314  2.99922e+21
19.6487  2.94522e+21
19.766  2.88962e+21
19.8833  2.8338e+21
20.0006  2.779e+21
20.1179  2.72685e+21
20.2352  2.67857e+21
20.3525  2.63567e+21
20.4698  2.59911e+21
20.5871  2.56987e+21
20.7044  2.54819e+21
20.8217  2.5344e+21
20.939  2.52817e+21
21.0563  2.5291e+21
21.1736  2.53619e+21
21.291  2.54808e+21
21.4083  2.56368e+21
21.5256  2.58115e+21
21.6429  2.59847e+21
21.7602  2.61391e+21
21.8775  2.62546e+21
21.9948  2.63123e+21
22.1121  2.62986e+21
22.2294  2.62037e+21
22.3467  2.60205e+21
22.464  2.57504e+21
22.5813  2.53981e+21
22.6986  2.49745e+21
22.8159  2.44923e+21
22.9332  2.39679e+21
23.0505  2.34186e+21
23.1678  2.28605e+21
23.2851  2.23116e+21
23.4024  2.17857e+21
23.5198  2.12925e+21
23.6371  2.08435e+21
23.7544  2.04438e+21
23.8717  2.00986e+21
23.989  1.98068e+21
24.1063  1.9568e+21
24.2236  1.93788e+21
24.3409  1.92332e+21
24.4582  1.91252e+21
24.5755  1.90489e+21
24.6928  1.89979e+21
24.8101  1.89681e+21
24.9274  1.8952e+21
25.0447  1.89459e+21
25.162  1.89434e+21
25.2793  1.89425e+21
25.3966  1.89372e+21
25.5139  1.89243e+21
25.6312  1.88986e+21
25.7485  1.88576e+21
25.8658  1.87976e+21
25.9832  1.87138e+21
26.1005  1.86065e+21
26.2178  1.84714e+21
26.3351  1.83061e+21
26.4524  1.81099e+21
26.5697  1.78811e+21
26.687  1.76194e+21
26.8043  1.7327e+21
26.9216  1.70078e+21
27.0389  1.66662e+21
27.1562  1.63096e+21
27.2735  1.59466e+21
27.3908  1.55864e+21
27.5081  1.52391e+21
27.6254  1.49138e+21
27.7427  1.46188e+21
27.86  1.43596e+21
27.9773  1.41425e+21
28.0946  1.39686e+21
28.212  1.38363e+21
28.3293  1.37456e+21
28.4466  1.36901e+21
28.5639  1.36647e+21
28.6812  1.36588e+21
28.7985  1.36647e+21
28.9158  1.3672e+21
29.0331  1.36711e+21
29.1504  1.36521e+21
29.2677  1.36079e+21
29.385  1.35328e+21
29.5023  1.34243e+21
29.6196  1.32805e+21
29.7369  1.31034e+21
29.8542  1.28951e+21
29.9715  1.26627e+21
30.0888  1.2412e+21
30.2061  1.2151e+21
30.3234  1.1886e+21
30.4407  1.16239e+21
30.558  1.1372e+21
30.6754  1.11324e+21
30.7927  1.09109e+21
30.91  1.07052e+21
31.0273  1.05161e+21
31.1446  1.03398e+21
31.2619  1.01725e+21
31.3792  1.001e+21
31.4965  9.84901e+20
31.6138  9.68548e+20
31.7311  9.51808e+20
31.8484  9.34595e+20
31.9657  9.17031e+20
32.083  8.99272e+20
32.2003  8.81688e+20
32.3176  8.6455e+20
32.4349  8.48323e+20
32.5522  8.33226e+20
32.6695  8.19609e+20
32.7868  8.07558e+20
32.9042  7.96986e+20
33.0215  7.87917e+20
33.1388  7.80033e+20
33.2561  7.73024e+20
33.3734  7.66275e+20
33.4907  7.59432e+20
33.608  7.52016e+20
33.7253  7.43693e+20
33.8426  7.34197e+20
33.9599  7.23531e+20
34.0772  7.11863e+20
34.1945  6.99491e+20
34.3118  6.86794e+20
34.4291  6.74183e+20
34.5464  6.62221e+20
34.6637  6.5138e+20
34.781  6.42078e+20
34.8983  6.34679e+20
35.0156  6.29352e+20
35.1329  6.26071e+20
35.2503  6.24886e+20
35.3676  6.25355e+20
35.4849  6.27075e+20
35.6022  6.29075e+20
35.7195  6.3064e+20
35.8368  6.30593e+20
35.9541  6.27995e+20
36.0714  6.22057e+20
36.1887  6.12181e+20
36.306  5.98133e+20
36.4233  5.80212e+20
36.5406  5.58899e+20
36.6579  5.35136e+20
36.7752  5.09932e+20
36.8925  4.84428e+20
37.0098  4.59676e+20
37.1271  4.36592e+20
37.2444  4.15904e+20
37.3617  3.98209e+20
37.479  3.83919e+20
37.5964  3.73283e+20
37.7137  3.66573e+20
37.831  3.63826e+20
37.9483  3.64941e+20
38.0656  3.69473e+20
38.1829  3.76793e+20
38.3002  3.85859e+20
38.4175  3.95482e+20
38.5348  4.04203e+20
38.6521  4.10578e+20
38.7694  4.13426e+20
38.8867  4.11862e+20
39.004  4.05458e+20
39.1213  3.94258e+20
39.2386  3.78933e+20
39.3559  3.6045e+20
39.4732  3.40039e+20
39.5905  3.19031e+20
39.7078  2.98627e+20
39.8251  2.79823e+20
39.9425  2.63436e+20
40.0598  2.49948e+20
40.1771  2.39547e+20
40.2944  2.32093e+20
40.4117  2.27431e+20
40.529  2.25018e+20
40.6463  2.24339e+20
40.7636  2.24794e+20
40.8809  2.25679e+20
40.9982  2.26314e+20
41.1155  2.26194e+20
41.2328  2.24803e+20
41.3501  2.219e+20
41.4674  2.17356e+20
41.5847  2.11315e+20
41.702  2.04065e+20
41.8193  1.95998e+20
41.9366  1.87649e+20
42.0539  1.79592e+20
42.1712  1.72393e+20
42.2885  1.66605e+20
42.4059  1.62707e+20
42.5232  1.61046e+20
42.6405  1.61794e+20
42.7578  1.64892e+20
42.8751  1.7003e+20
42.9924  1.76631e+20
43.1097  1.83962e+20
43.227  1.9108e+20
43.3443  1.97052e+20
43.4616  2.01118e+20
43.5789  2.02712e+20
43.6962  2.01651e+20
43.8135  1.98033e+20
43.9308  1.92356e+20
44.0481  1.85265e+20
44.1654  1.77498e+20
44.2827  1.69719e+20
44.4  1.62421e+20
44.5173  1.55877e+20
44.6347  1.50169e+20
44.752  1.45246e+20
44.8693  1.41024e+20
44.9866  1.37409e+20
45.1039  1.34435e+20
45.2212  1.32182e+20
45.3385  1.30758e+20
45.4558  1.30268e+20
45.5731  1.30657e+20
45.6904  1.31721e+20
45.8077  1.33114e+20
45.925  1.34337e+20
46.0423  1.3488e+20
46.1596  1.34305e+20
46.2769  1.32344e+20
46.3942  1.28933e+20
46.5115  1.24224e+20
46.6288  1.18566e+20
46.7461  1.12422e+20
46.8634  1.06267e+20
46.9808  1.00559e+20
47.0981  9.56553e+19
47.2154  9.18167e+19
47.3327  8.91847e+19
47.45  8.77963e+19
47.5673  8.76698e+19
47.6846  8.87402e+19
47.8019  9.09204e+19
47.9192  9.40561e+19
48.0365  9.79549e+19
48.1538  1.02358e+20
48.2711  1.06959e+20
48.3884  1.11419e+20
48.5057  1.15374e+20
48.623  1.18512e+20
48.7403  1.2058e+20
48.8576  1.21401e+20
48.9749  1.20871e+20
49.0922  1.19007e+20
49.2095  1.15896e+20
49.3269  1.11738e+20
49.4442  1.06808e+20
49.5615  1.01468e+20
49.6788  9.60301e+19
49.7961  9.09055e+19
49.9134  8.64118e+19
50.0307  8.28761e+19
50.148  8.05113e+19
50.2653  7.94122e+19
50.3826  7.96235e+19
50.4999  8.10733e+19
50.6172  8.36411e+19
50.7345  8.7155e+19
50.8518  9.14517e+19
