#S 1 spectral density
#N 2
#UFWHM 5.04412
#L  abscissas [um]  spectral density
-58.5938  1.15604e+20
-58.4764  1.20616e+20
-58.3591  1.21414e+20
-58.2418  1.18248e+20
-58.1245  1.11727e+20
-58.0072  1.02824e+20
-57.8899  9.25921e+19
-57.7726  8.20541e+19
-57.6553  7.2038e+19
-57.538  6.30876e+19
-57.4207  5.55071e+19
-57.3034  4.9208e+19
-57.1861  4.39213e+19
-57.0688  3.92073e+19
-56.9515  3.4629e+19
-56.8342  2.98698e+19
-56.7169  2.48135e+19
-56.5996  1.96231e+19
-56.4823  1.47249e+19
-56.365  1.07315e+19
-56.2477  8.30761e+18
-56.1303  8.01817e+18
-56.013  1.01668e+19
-55.8957  1.47056e+19
-55.7784  2.11924e+19
-55.6611  2.88509e+19
-55.5438  3.66672e+19
-55.4265  4.36773e+19
-55.3092  4.90602e+19
-55.1919  5.233e+19
-55.0746  5.343e+19
-54.9573  5.26495e+19
-54.84  5.05652e+19
-54.7227  4.78213e+19
-54.6054  4.49331e+19
-54.4881  4.21596e+19
-54.3708  3.94729e+19
-54.2535  3.66474e+19
-54.1362  3.33705e+19
-54.0189  2.94942e+19
-53.9016  2.52083e+19
-53.7842  2.11401e+19
-53.6669  1.83239e+19
-53.5496  1.80255e+19
-53.4323  2.14392e+19
-53.315  2.93779e+19
-53.1977  4.19558e+19
-53.0804  5.84701e+19
-52.9631  7.73472e+19
-52.8458  9.64267e+19
-52.7285  1.13326e+20
-52.6112  1.25797e+20
-52.4939  1.32211e+20
-52.3766  1.31865e+20
-52.2593  1.25175e+20
-52.142  1.13358e+20
-52.0247  9.8376e+19
-51.9074  8.24629e+19
-51.7901  6.77196e+19
-51.6728  5.58604e+19
-51.5555  4.78584e+19
-51.4381  4.40701e+19
-51.3208  4.42454e+19
-51.2035  4.77587e+19
-51.0862  5.37587e+19
-50.9689  6.14818e+19
-50.8516  7.02599e+19
-50.7343  7.95338e+19
-50.617  8.88983e+19
-50.4997  9.79958e+19
-50.3824  1.06386e+20
-50.2651  1.13614e+20
-50.1478  1.19224e+20
-50.0305  1.22856e+20
-49.9132  1.24181e+20
-49.7959  1.23237e+20
-49.6786  1.20292e+20
-49.5613  1.15792e+20
-49.444  1.10427e+20
-49.3267  1.04888e+20
-49.2094  9.97561e+19
-49.092  9.5444e+19
-48.9747  9.2053e+19
-48.8574  8.95488e+19
-48.7401  8.75277e+19
-48.6228  8.55852e+19
-48.5055  8.3202e+19
-48.3882  7.98585e+19
-48.2709  7.52428e+19
-48.1536  6.91776e+19
-48.0363  6.17932e+19
-47.919  5.34538e+19
-47.8017  4.48632e+19
-47.6844  3.69068e+19
-47.5671  3.07336e+19
-47.4498  2.754e+19
-47.3325  2.84829e+19
-47.2152  3.44968e+19
-47.0979  4.61079e+19
-46.9806  6.33298e+19
-46.8633  8.55491e+19
-46.7459  1.11555e+20
-46.6286  1.39531e+20
-46.5113  1.6738e+20
-46.394  1.92782e+20
-46.2767  2.13668e+20
-46.1594  2.28185e+20
-46.0421  2.352e+20
-45.9248  2.3423e+20
-45.8075  2.25454e+20
-45.6902  2.09793e+20
-45.5729  1.88611e+20
-45.4556  1.63735e+20
-45.3383  1.36934e+20
-45.221  1.1011e+20
-45.1037  8.47741e+19
-44.9864  6.21909e+19
-44.8691  4.33996e+19
-44.7518  2.89609e+19
-44.6345  1.92138e+19
-44.5172  1.42421e+19
-44.3998  1.39034e+19
-44.2825  1.78361e+19
-44.1652  2.55064e+19
-44.0479  3.61321e+19
-43.9306  4.87867e+19
-43.8133  6.23153e+19
-43.696  7.54831e+19
-43.5787  8.70789e+19
-43.4614  9.59896e+19
-43.3441  1.01428e+20
-43.2268  1.02898e+20
-43.1095  1.00398e+20
-42.9922  9.44039e+19
-42.8749  8.57424e+19
-42.7576  7.55176e+19
-42.6403  6.50038e+19
-42.523  5.541e+19
-42.4057  4.77829e+19
-42.2884  4.28635e+19
-42.171  4.10143e+19
-42.0537  4.21845e+19
-41.9364  4.59787e+19
-41.8191  5.1789e+19
-41.7018  5.87484e+19
-41.5845  6.60747e+19
-41.4672  7.30503e+19
-41.3499  7.91959e+19
-41.2326  8.43249e+19
-41.1153  8.85254e+19
-40.998  9.20988e+19
-40.8807  9.54532e+19
-40.7634  9.89377e+19
-40.6461  1.0273e+20
-40.5288  1.0668e+20
-40.4115  1.10326e+20
-40.2942  1.13033e+20
-40.1769  1.14009e+20
-40.0596  1.12618e+20
-39.9423  1.08619e+20
-39.825  1.02243e+20
-39.7076  9.42545e+19
-39.5903  8.58328e+19
-39.473  7.83751e+19
-39.3557  7.31814e+19
-39.2384  7.11492e+19
-39.1211  7.24667e+19
-39.0038  7.66457e+19
-38.8865  8.25043e+19
-38.7692  8.84485e+19
-38.6519  9.28873e+19
-38.5346  9.45947e+19
-38.4173  9.29123e+19
-38.3  8.81159e+19
-38.1827  8.11966e+19
-38.0654  7.36709e+19
-37.9481  6.73375e+19
-37.8308  6.37532e+19
-37.7135  6.39358e+19
-37.5962  6.81224e+19
-37.4789  7.58135e+19
-37.3615  8.58055e+19
-37.2442  9.64804e+19
-37.1269  1.06225e+20
-37.0096  1.13598e+20
-36.8923  1.17655e+20
-36.775  1.17912e+20
-36.6577  1.14477e+20
-36.5404  1.07872e+20
-36.4231  9.87257e+19
-36.3058  8.78259e+19
-36.1885  7.58475e+19
-36.0712  6.33893e+19
-35.9539  5.09807e+19
-35.8366  3.91573e+19
-35.7193  2.85645e+19
-35.602  1.99114e+19
-35.4847  1.41384e+19
-35.3674  1.21766e+19
-35.2501  1.49441e+19
-35.1328  2.31616e+19
-35.0154  3.72235e+19
-34.8981  5.70475e+19
-34.7808  8.20693e+19
-34.6635  1.11261e+20
-34.5462  1.4301e+20
-34.4289  1.75467e+20
-34.3116  2.06516e+20
-34.1943  2.3408e+20
-34.077  2.56042e+20
-33.9597  2.70743e+20
-33.8424  2.76806e+20
-33.7251  2.73683e+20
-33.6078  2.61376e+20
-33.4905  2.40639e+20
-33.3732  2.13096e+20
-33.2559  1.80897e+20
-33.1386  1.46658e+20
-33.0213  1.13227e+20
-32.904  8.31707e+19
-32.7867  5.86989e+19
-32.6693  4.11625e+19
-32.552  3.10937e+19
-32.4347  2.80079e+19
-32.3174  3.06391e+19
-32.2001  3.71516e+19
-32.0828  4.5443e+19
-31.9655  5.35458e+19
-31.8482  5.98723e+19
-31.7309  6.34628e+19
-31.6136  6.40036e+19
-31.4963  6.17595e+19
-31.379  5.7449e+19
-31.2617  5.19549e+19
-31.1444  4.61995e+19
-31.0271  4.09338e+19
-30.9098  3.67192e+19
-30.7925  3.3993e+19
-30.6752  3.30326e+19
-30.5579  3.41381e+19
-30.4406  3.76693e+19
-30.3232  4.39767e+19
-30.2059  5.33814e+19
-30.0886  6.59671e+19
-29.9713  8.14956e+19
-29.854  9.92742e+19
-29.7367  1.18058e+20
-29.6194  1.36347e+20
-29.5021  1.52331e+20
-29.3848  1.64387e+20
-29.2675  1.71234e+20
-29.1502  1.72216e+20
-29.0329  1.6744e+20
-28.9156  1.57777e+20
-28.7983  1.44645e+20
-28.681  1.29849e+20
-28.5637  1.15189e+20
-28.4464  1.02178e+20
-28.3291  9.17836e+19
-28.2118  8.43232e+19
-28.0944  7.94836e+19
-27.9771  7.64372e+19
-27.8598  7.41219e+19
-27.7425  7.14143e+19
-27.6252  6.74135e+19
-27.5079  6.16326e+19
-27.3906  5.40928e+19
-27.2733  4.52938e+19
-27.156  3.60621e+19
-27.0387  2.7477e+19
-26.9214  2.05913e+19
-26.8041  1.63353e+19
-26.6868  1.53349e+19
-26.5695  1.78809e+19
-26.4522  2.39132e+19
-26.3349  3.30948e+19
-26.2176  4.48793e+19
-26.1003  5.86816e+19
-25.983  7.39003e+19
-25.8657  8.99957e+19
-25.7483  1.06625e+20
-25.631  1.23466e+20
-25.5137  1.40308e+20
-25.3964  1.56945e+20
-25.2791  1.73069e+20
-25.1618  1.88293e+20
-25.0445  2.02078e+20
-24.9272  2.13807e+20
-24.8099  2.22865e+20
-24.6926  2.28618e+20
-24.5753  2.3058e+20
-24.458  2.28548e+20
-24.3407  2.22608e+20
-24.2234  2.13036e+20
-24.1061  2.00459e+20
-23.9888  1.8561e+20
-23.8715  1.6934e+20
-23.7542  1.52341e+20
-23.6369  1.35479e+20
-23.5196  1.19418e+20
-23.4023  1.04794e+20
-23.2849  9.24372e+19
-23.1676  8.32047e+19
-23.0503  7.81085e+19
-22.933  7.82992e+19
-22.8157  8.47224e+19
-22.6984  9.80875e+19
-22.5811  1.18485e+20
-22.4638  1.45151e+20
-22.3465  1.76482e+20
-22.2292  2.09873e+20
-22.1119  2.42165e+20
-21.9946  2.69874e+20
-21.8773  2.89941e+20
-21.76  2.99973e+20
-21.6427  2.98715e+20
-21.5254  2.86551e+20
-21.4081  2.65098e+20
-21.2908  2.37289e+20
-21.1735  2.06659e+20
-21.0561  1.76903e+20
-20.9388  1.51298e+20
-20.8215  1.32066e+20
-20.7042  1.20457e+20
-20.5869  1.16286e+20
-20.4696  1.18472e+20
-20.3523  1.25134e+20
-20.235  1.34164e+20
-20.1177  1.43486e+20
-20.0004  1.51494e+20
-19.8831  1.57217e+20
-19.7658  1.60137e+20
-19.6485  1.60481e+20
-19.5312  1.58627e+20
-19.4139  1.55374e+20
-19.2966  1.51536e+20
-19.1793  1.47775e+20
-19.062  1.44812e+20
-18.9447  1.43259e+20
-18.8274  1.43556e+20
-18.71  1.463e+20
-18.5927  1.51879e+20
-18.4754  1.60588e+20
-18.3581  1.72732e+20
-18.2408  1.88071e+20
-18.1235  2.06399e+20
-18.0062  2.2687e+20
-17.8889  2.48402e+20
-17.7716  2.69652e+20
-17.6543  2.88835e+20
-17.537  3.04294e+20
-17.4197  3.1435e+20
-17.3024  3.17547e+20
-17.1851  3.12843e+20
-17.0678  2.99733e+20
-16.9505  2.7845e+20
-16.8332  2.49849e+20
-16.7159  2.1543e+20
-16.5986  1.77321e+20
-16.4813  1.38103e+20
-16.364  1.00438e+20
-16.2466  6.70574e+19
-16.1293  4.0337e+19
-16.012  2.19374e+19
-15.8947  1.27911e+19
-15.7774  1.2905e+19
-15.6601  2.14054e+19
-15.5428  3.67258e+19
-15.4255  5.68597e+19
-15.3082  7.9739e+19
-15.1909  1.03473e+20
-15.0736  1.26834e+20
-14.9563  1.49278e+20
-14.839  1.70965e+20
-14.7217  1.9278e+20
-14.6044  2.15888e+20
-14.4871  2.41465e+20
-14.3698  2.70629e+20
-14.2525  3.0395e+20
-14.1352  3.41602e+20
-14.0178  3.83289e+20
-13.9005  4.28452e+20
-13.7832  4.76623e+20
-13.6659  5.27373e+20
-13.5486  5.80342e+20
-13.4313  6.35534e+20
-13.314  6.92675e+20
-13.1967  7.51338e+20
-13.0794  8.1024e+20
-12.9621  8.6755e+20
-12.8448  9.20422e+20
-12.7275  9.65712e+20
-12.6102  9.99698e+20
-12.4929  1.01922e+21
-12.3756  1.02177e+21
-12.2583  1.00589e+21
-12.141  9.71812e+20
-12.0237  9.21299e+20
-11.9064  8.57651e+20
-11.7891  7.85049e+20
-11.6718  7.08579e+20
-11.5544  6.33586e+20
-11.4371  5.65414e+20
-11.3198  5.08942e+20
-11.2025  4.68408e+20
-11.0852  4.47416e+20
-10.9679  4.48736e+20
-10.8506  4.74139e+20
-10.7333  5.24544e+20
-10.616  5.998e+20
-10.4987  6.98459e+20
-10.3814  8.18032e+20
-10.2641  9.55084e+20
-10.1468  1.10509e+21
-10.0295  1.26306e+21
-9.91217  1.42415e+21
-9.79487  1.58334e+21
-9.67756  1.73664e+21
-9.56026  1.88142e+21
-9.44295  2.01569e+21
-9.32565  2.13932e+21
-9.20834  2.25298e+21
-9.09104  2.35844e+21
-8.97373  2.45771e+21
-8.85643  2.5529e+21
-8.73913  2.646e+21
-8.62182  2.7383e+21
-8.50452  2.82996e+21
-8.38721  2.92121e+21
-8.26991  3.01067e+21
-8.1526  3.09723e+21
-8.03529  3.179e+21
-7.91799  3.25454e+21
-7.80069  3.3219e+21
-7.68338  3.37997e+21
-7.56608  3.42783e+21
-7.44877  3.46513e+21
-7.33146  3.49187e+21
-7.21416  3.50872e+21
-7.09685  3.51673e+21
-6.97955  3.51797e+21
-6.86224  3.51453e+21
-6.74494  3.50918e+21
-6.62763  3.50522e+21
-6.51033  3.50664e+21
-6.39302  3.51734e+21
-6.27572  3.54155e+21
-6.15842  3.58346e+21
-6.04111  3.64672e+21
-5.92381  3.73411e+21
-5.8065  3.84731e+21
-5.68919  3.98659e+21
-5.57189  4.15052e+21
-5.45458  4.33613e+21
-5.33728  4.53789e+21
-5.21997  4.74928e+21
-5.10267  4.96244e+21
-4.98536  5.16918e+21
-4.86806  5.36076e+21
-4.75075  5.5301e+21
-4.63345  5.67114e+21
-4.51614  5.78041e+21
-4.39884  5.85653e+21
-4.28154  5.90159e+21
-4.16423  5.92014e+21
-4.04692  5.91866e+21
-3.92962  5.90606e+21
-3.81231  5.8933e+21
-3.69501  5.89131e+21
-3.5777  5.91214e+21
-3.4604  5.96726e+21
-3.34309  6.06705e+21
-3.22579  6.22098e+21
-3.10849  6.43685e+21
-2.99118  6.71911e+21
-2.87387  7.07021e+21
-2.75657  7.48906e+21
-2.63926  7.97165e+21
-2.52196  8.51029e+21
-2.40465  9.09483e+21
-2.28735  9.71276e+21
-2.17005  1.03497e+22
-2.05274  1.09913e+22
-1.93544  1.16229e+22
-1.81813  1.22314e+22
-1.70083  1.28054e+22
-1.58352  1.3337e+22
-1.46622  1.38194e+22
-1.34891  1.42491e+22
-1.2316  1.46261e+22
-1.1143  1.49508e+22
-0.996995  1.52261e+22
-0.87969  1.54564e+22
-0.762385  1.56451e+22
-0.64508  1.57974e+22
-0.527775  1.59174e+22
-0.41047  1.60087e+22
-0.293165  1.60743e+22
-0.17586  1.61172e+22
-0.058555  1.61388e+22
0.05875  1.61397e+22
0.176055  1.612e+22
0.29336  1.60793e+22
0.410665  1.60151e+22
0.52797  1.59256e+22
0.645275  1.5807e+22
0.76258  1.56563e+22
0.879885  1.54683e+22
0.99719  1.52391e+22
1.1145  1.49641e+22
1.2318  1.46395e+22
1.3491  1.42622e+22
1.46641  1.38318e+22
1.58371  1.33484e+22
1.70102  1.28159e+22
1.81832  1.22404e+22
1.93563  1.16308e+22
2.05294  1.09982e+22
2.17024  1.03561e+22
2.28754  9.71866e+21
2.40485  9.1007e+21
2.52216  8.51644e+21
2.63946  7.97831e+21
2.75677  7.4968e+21
2.87407  7.07898e+21
2.99137  6.72941e+21
3.10868  6.44846e+21
3.22599  6.23422e+21
3.34329  6.08157e+21
3.4606  5.98279e+21
3.5779  5.92869e+21
3.69521  5.90851e+21
3.81251  5.91072e+21
3.92982  5.9232e+21
4.04712  5.93511e+21
4.16443  5.93574e+21
4.28173  5.91597e+21
4.39903  5.86913e+21
4.51634  5.79112e+21
4.63364  5.67997e+21
4.75095  5.53701e+21
4.86825  5.36595e+21
4.98556  5.17277e+21
5.10286  4.96505e+21
5.22017  4.75065e+21
5.33748  4.53894e+21
5.45478  4.33706e+21
5.57209  4.15187e+21
5.68939  3.9885e+21
5.8067  3.85001e+21
5.924  3.73796e+21
6.0413  3.65206e+21
6.15861  3.59025e+21
6.27591  3.5498e+21
6.39322  3.52701e+21
6.51052  3.51764e+21
6.62783  3.51747e+21
6.74514  3.52225e+21
6.86244  3.5285e+21
6.97975  3.53241e+21
7.09705  3.53149e+21
7.21436  3.52337e+21
7.33166  3.50613e+21
7.44897  3.47901e+21
7.56627  3.44106e+21
7.68358  3.39235e+21
7.80088  3.33347e+21
7.91819  3.26515e+21
8.03549  3.1889e+21
8.1528  3.10644e+21
8.2701  3.01935e+21
8.38741  2.92949e+21
8.50471  2.83808e+21
8.62202  2.74643e+21
8.73932  2.65421e+21
8.85662  2.56117e+21
8.97393  2.46583e+21
9.09123  2.36646e+21
9.20854  2.26066e+21
9.32584  2.1464e+21
9.44315  2.02202e+21
9.56045  1.88683e+21
9.67776  1.74111e+21
9.79506  1.58658e+21
9.91237  1.42657e+21
10.0297  1.26468e+21
10.147  1.10593e+21
10.2643  9.55466e+20
10.3816  8.18283e+20
10.4989  6.98681e+20
10.6162  6.00357e+20
10.7335  5.25578e+20
10.8508  4.75722e+20
10.9681  4.50944e+20
11.0854  4.5036e+20
11.2027  4.71987e+20
11.32  5.13144e+20
11.4373  5.70088e+20
11.5546  6.38534e+20
11.6719  7.13618e+20
11.7893  7.89957e+20
11.9066  8.62123e+20
12.0239  9.25358e+20
12.1412  9.75171e+20
12.2585  1.00837e+21
12.3758  1.0234e+21
12.4931  1.02009e+21
12.6104  9.99874e+20
12.7277  9.65199e+20
12.845  9.19428e+20
12.9623  8.66256e+20
13.0796  8.08745e+20
13.1969  7.49801e+20
13.3142  6.91163e+20
13.4315  6.34046e+20
13.5488  5.7896e+20
13.6661  5.26061e+20
13.7834  4.7549e+20
13.9007  4.27406e+20
14.018  3.82338e+20
14.1354  3.40822e+20
14.2527  3.03324e+20
14.37  2.70099e+20
14.4873  2.4109e+20
14.6046  2.15561e+20
14.7219  1.92539e+20
14.8392  1.70725e+20
14.9565  1.48949e+20
15.0738  1.26471e+20
15.1911  1.03026e+20
15.3084  7.92687e+19
15.4257  5.64427e+19
15.543  3.63978e+19
15.6603  2.12288e+19
15.7776  1.29278e+19
15.8949  1.30534e+19
16.0122  2.24292e+19
16.1295  4.10499e+19
16.2468  6.79406e+19
16.3641  1.01378e+20
16.4815  1.39013e+20
16.5988  1.78164e+20
16.7161  2.16054e+20
16.8334  2.50216e+20
16.9507  2.78538e+20
17.068  2.99475e+20
17.1853  3.12232e+20
17.3026  3.16644e+20
17.4199  3.13268e+20
17.5372  3.03156e+20
17.6545  2.87622e+20
17.7718  2.68475e+20
17.8891  2.47434e+20
18.0064  2.26121e+20
18.1237  2.05863e+20
18.241  1.87876e+20
18.3583  1.72832e+20
18.4756  1.61037e+20
18.5929  1.52576e+20
18.7102  1.47321e+20
18.8275  1.44785e+20
18.9449  1.44705e+20
19.0622  1.46448e+20
19.1795  1.49537e+20
19.2968  1.53405e+20
19.4141  1.57305e+20
19.5314  1.60513e+20
19.6487  1.62316e+20
19.766  1.61897e+20
19.8833  1.58842e+20
20.0006  1.52977e+20
20.1179  1.4482e+20
20.2352  1.35371e+20
20.3525  1.26298e+20
20.4698  1.19717e+20
20.5871  1.17657e+20
20.7044  1.21987e+20
20.8217  1.33799e+20
20.939  1.53121e+20
21.0563  1.78862e+20
21.1736  2.08573e+20
21.291  2.39023e+20
21.4083  2.66558e+20
21.5256  2.87599e+20
21.6429  2.99326e+20
21.7602  3.00082e+20
21.8775  2.89693e+20
21.9948  2.69341e+20
22.1121  2.41394e+20
22.2294  2.0907e+20
22.3467  1.75778e+20
22.464  1.44676e+20
22.5813  1.18265e+20
22.6986  9.81782e+19
22.8159  8.50855e+19
22.9332  7.89229e+19
23.0505  7.89842e+19
23.1678  8.42673e+19
23.2851  9.3698e+19
23.4024  1.06192e+20
23.5198  1.20943e+20
23.6371  1.37123e+20
23.7544  1.54058e+20
23.8717  1.71041e+20
23.989  1.8731e+20
24.1063  2.02104e+20
24.2236  2.14497e+20
24.3409  2.23814e+20
24.4582  2.29551e+20
24.5755  2.31224e+20
24.6928  2.28939e+20
24.8101  2.22909e+20
24.9274  2.1363e+20
25.0447  2.01678e+20
25.162  1.87711e+20
25.2793  1.72401e+20
25.3966  1.56223e+20
25.5139  1.39599e+20
25.6312  1.22782e+20
25.7485  1.05962e+20
25.8658  8.94024e+19
25.9832  7.33257e+19
26.1005  5.81787e+19
26.2178  4.4429e+19
26.3351  3.26994e+19
26.4524  2.36061e+19
26.5697  1.76758e+19
26.687  1.52468e+19
26.8043  1.63655e+19
26.9216  2.07309e+19
27.0389  2.76875e+19
27.1562  3.63068e+19
27.2735  4.55006e+19
27.3908  5.42576e+19
27.5081  6.1679e+19
27.6254  6.73391e+19
27.7427  7.12431e+19
27.86  7.38548e+19
27.9773  7.61114e+19
28.0946  7.91273e+19
28.212  8.39974e+19
28.3293  9.15058e+19
28.4466  1.01987e+20
28.5639  1.15061e+20
28.6812  1.2974e+20
28.7985  1.44498e+20
28.9158  1.57523e+20
29.0331  1.67017e+20
29.1504  1.7161e+20
29.2677  1.70418e+20
29.385  1.6344e+20
29.5023  1.51246e+20
29.6196  1.35191e+20
29.7369  1.16957e+20
29.8542  9.82537e+19
29.9715  8.064e+19
30.0888  6.52357e+19
30.2061  5.28334e+19
30.3234  4.35885e+19
30.4407  3.7422e+19
30.558  3.40176e+19
30.6754  3.29792e+19
30.7927  3.40257e+19
30.91  3.68226e+19
31.0273  4.10454e+19
31.1446  4.63309e+19
31.2619  5.20745e+19
31.3792  5.75314e+19
31.4965  6.17703e+19
31.6138  6.3906e+19
31.7311  6.32538e+19
31.8484  5.95725e+19
31.9657  5.31709e+19
32.083  4.50318e+19
32.2003  3.67673e+19
32.3176  3.03436e+19
32.4349  2.78492e+19
32.5522  3.11063e+19
32.6695  4.13739e+19
32.7868  5.90916e+19
32.9042  8.37213e+19
33.0215  1.1387e+20
33.1388  1.47389e+20
33.2561  1.81601e+20
33.3734  2.13789e+20
33.4907  2.41216e+20
33.608  2.61782e+20
33.7253  2.74008e+20
33.8426  2.76959e+20
33.9599  2.70694e+20
34.0772  2.55888e+20
34.1945  2.33788e+20
34.3118  2.06153e+20
34.4291  1.74986e+20
34.5464  1.42512e+20
34.6637  1.10724e+20
34.781  8.16225e+19
34.8983  5.66379e+19
35.0156  3.69011e+19
35.1329  2.29723e+19
35.2503  1.48948e+19
35.3676  1.22724e+19
35.4849  1.43857e+19
35.6022  2.03108e+19
35.7195  2.90944e+19
35.8368  3.98428e+19
35.9541  5.17686e+19
36.0714  6.42833e+19
36.1887  7.68038e+19
36.306  8.88211e+19
36.4233  9.96819e+19
36.5406  1.08727e+20
36.6579  1.15192e+20
36.7752  1.18404e+20
36.8925  1.17875e+20
37.0098  1.13603e+20
37.1271  1.06009e+20
37.2444  9.6108e+19
37.3617  8.53657e+19
37.479  7.53813e+19
37.5964  6.77395e+19
37.7137  6.36708e+19
37.831  6.36491e+19
37.9483  6.73934e+19
38.0656  7.38388e+19
38.1829  8.14299e+19
38.3002  8.83642e+19
38.4175  9.31609e+19
38.5348  9.47594e+19
38.6521  9.3016e+19
38.7694  8.85221e+19
38.8867  8.25452e+19
39.004  7.6698e+19
39.1213  7.25337e+19
39.2386  7.1212e+19
39.3559  7.32555e+19
39.4732  7.84343e+19
39.5905  8.58593e+19
39.7078  9.42608e+19
39.8251  1.02233e+20
39.9425  1.08593e+20
40.0598  1.12574e+20
40.1771  1.1395e+20
40.2944  1.13011e+20
40.4117  1.10312e+20
40.529  1.06679e+20
40.6463  1.02731e+20
40.7636  9.8923e+19
40.8809  9.53754e+19
40.9982  9.19288e+19
41.1155  8.82541e+19
41.2328  8.39507e+19
41.3501  7.87335e+19
41.4674  7.25161e+19
41.5847  6.55281e+19
41.702  5.82345e+19
41.8193  5.13769e+19
41.9366  4.57198e+19
42.0539  4.2092e+19
42.1712  4.11287e+19
42.2885  4.31678e+19
42.4059  4.82576e+19
42.5232  5.59915e+19
42.6405  6.56317e+19
42.7578  7.6083e+19
42.8751  8.61974e+19
42.9924  9.46866e+19
43.1097  1.00438e+20
43.227  1.02688e+20
43.3443  1.00962e+20
43.4616  9.53303e+19
43.5789  8.62586e+19
43.6962  7.45759e+19
43.8135  6.13806e+19
43.9308  4.79337e+19
44.0481  3.53937e+19
44.1654  2.49151e+19
44.2827  1.7428e+19
44.4  1.36737e+19
44.5173  1.41994e+19
44.6347  1.93548e+19
44.752  2.92748e+19
44.8693  4.3881e+19
44.9866  6.28482e+19
45.1039  8.55137e+19
45.2212  1.10974e+20
45.3385  1.37855e+20
45.4558  1.64589e+20
45.5731  1.89375e+20
45.6904  2.10375e+20
45.8077  2.25777e+20
45.925  2.34296e+20
46.0423  2.35002e+20
46.1596  2.27734e+20
46.2769  2.1294e+20
46.3942  1.91932e+20
46.5115  1.6641e+20
46.6288  1.38595e+20
46.7461  1.10708e+20
46.8634  8.4863e+19
46.9808  6.28232e+19
47.0981  4.57965e+19
47.2154  3.43525e+19
47.3327  2.84902e+19
47.45  2.76444e+19
47.5673  3.08887e+19
47.6846  3.70835e+19
47.8019  4.50098e+19
47.9192  5.35789e+19
48.0365  6.18784e+19
48.1538  6.92133e+19
48.2711  7.52449e+19
48.3884  7.98598e+19
48.5057  8.32006e+19
48.623  8.56218e+19
48.7403  8.75718e+19
48.8576  8.96103e+19
48.9749  9.21782e+19
49.0922  9.55822e+19
49.2095  9.98862e+19
49.3269  1.05012e+20
49.4442  1.10514e+20
49.5615  1.1582e+20
49.6788  1.20214e+20
49.7961  1.23085e+20
49.9134  1.23944e+20
50.0307  1.22575e+20
50.148  1.1899e+20
50.2653  1.1342e+20
50.3826  1.06261e+20
50.4999  9.79517e+19
50.6172  8.89478e+19
50.7345  7.96345e+19
50.8518  7.03799e+19
