#S 1 spectral density
#N 2
#UFWHM 18.1823
#L  abscissas [um]  spectral density
-58.5938  7.78284e+18
-58.4764  6.53799e+18
-58.3591  5.6239e+18
-58.2418  5.22581e+18
-58.1245  5.34543e+18
-58.0072  5.80897e+18
-57.8899  6.34024e+18
-57.7726  6.65504e+18
-57.6553  6.54185e+18
-57.538  5.9473e+18
-57.4207  4.95481e+18
-57.3034  3.78456e+18
-57.1861  2.69084e+18
-57.0688  1.90887e+18
-56.9515  1.57399e+18
-56.8342  1.71206e+18
-56.7169  2.23195e+18
-56.5996  2.99486e+18
-56.4823  3.8427e+18
-56.365  4.66349e+18
-56.2477  5.41979e+18
-56.1303  6.11228e+18
-56.013  6.76499e+18
-55.8957  7.39972e+18
-55.7784  7.97481e+18
-55.6611  8.40865e+18
-55.5438  8.58535e+18
-55.4265  8.38891e+18
-55.3092  7.79281e+18
-55.1919  6.85365e+18
-55.0746  5.73628e+18
-54.9573  4.68827e+18
-54.84  3.97783e+18
-54.7227  3.81657e+18
-54.6054  4.33158e+18
-54.4881  5.49388e+18
-54.3708  7.12557e+18
-54.2535  8.95609e+18
-54.1362  1.0677e+19
-54.0189  1.19677e+19
-53.9016  1.26433e+19
-53.7842  1.26409e+19
-53.6669  1.19875e+19
-53.5496  1.08602e+19
-53.4323  9.48514e+18
-53.315  8.10464e+18
-53.1977  6.93531e+18
-53.0804  6.12099e+18
-52.9631  5.73858e+18
-52.8458  5.7651e+18
-52.7285  6.10959e+18
-52.6112  6.63152e+18
-52.4939  7.16776e+18
-52.3766  7.55116e+18
-52.2593  7.6424e+18
-52.142  7.35673e+18
-52.0247  6.69023e+18
-51.9074  5.7173e+18
-51.7901  4.58305e+18
-51.6728  3.47664e+18
-51.5555  2.60382e+18
-51.4381  2.13381e+18
-51.3208  2.15481e+18
-51.2035  2.67014e+18
-51.0862  3.56774e+18
-50.9689  4.66282e+18
-50.8516  5.733e+18
-50.7343  6.54324e+18
-50.617  6.93972e+18
-50.4997  6.82762e+18
-50.3824  6.232e+18
-50.2651  5.25702e+18
-50.1478  4.07422e+18
-50.0305  2.87502e+18
-49.9132  1.85235e+18
-49.7959  1.14582e+18
-49.6786  8.39484e+17
-49.5613  9.4373e+17
-49.444  1.40826e+18
-49.3267  2.13468e+18
-49.2094  2.98591e+18
-49.092  3.82353e+18
-48.9747  4.49725e+18
-48.8574  4.919e+18
-48.7401  5.02111e+18
-48.6228  4.82638e+18
-48.5055  4.39899e+18
-48.3882  3.86302e+18
-48.2709  3.36935e+18
-48.1536  3.05478e+18
-48.0363  3.02302e+18
-47.919  3.29739e+18
-47.8017  3.83356e+18
-47.6844  4.51586e+18
-47.5671  5.1988e+18
-47.4498  5.73554e+18
-47.3325  6.01792e+18
-47.2152  6.00497e+18
-47.0979  5.71226e+18
-46.9806  5.20913e+18
-46.8633  4.57255e+18
-46.7459  3.87521e+18
-46.6286  3.15603e+18
-46.5113  2.42207e+18
-46.394  1.69137e+18
-46.2767  9.96038e+17
-46.1594  4.33644e+17
-46.0421  1.62597e+17
-45.9248  3.781e+17
-45.8075  1.25745e+18
-45.6902  2.89421e+18
-45.5729  5.24195e+18
-45.4556  8.0516e+18
-45.3383  1.09584e+19
-45.221  1.34525e+19
-45.1037  1.5096e+19
-44.9864  1.55857e+19
-44.8691  1.48254e+19
-44.7518  1.30196e+19
-44.6345  1.06438e+19
-44.5172  8.32135e+18
-44.3998  6.67876e+18
-44.2825  6.22662e+18
-44.1652  7.18453e+18
-44.0479  9.44986e+18
-43.9306  1.26125e+19
-43.8133  1.60394e+19
-43.696  1.90344e+19
-43.5787  2.09756e+19
-43.4614  2.14667e+19
-43.3441  2.04085e+19
-43.2268  1.79761e+19
-43.1095  1.45869e+19
-42.9922  1.07871e+19
-42.8749  7.12181e+18
-42.7576  4.0412e+18
-42.6403  1.81821e+18
-42.523  5.64239e+17
-42.4057  2.15635e+17
-42.2884  6.05638e+17
-42.171  1.50563e+18
-42.0537  2.69882e+18
-41.9364  3.97954e+18
-41.8191  5.22463e+18
-41.7018  6.32346e+18
-41.5845  7.24922e+18
-41.4672  8.00664e+18
-41.3499  8.61478e+18
-41.2326  9.10169e+18
-41.1153  9.51958e+18
-40.998  9.88556e+18
-40.8807  1.01907e+19
-40.7634  1.03658e+19
-40.6461  1.03456e+19
-40.5288  1.0006e+19
-40.4115  9.29762e+18
-40.2942  8.21954e+18
-40.1769  6.8373e+18
-40.0596  5.34765e+18
-39.9423  4.03831e+18
-39.825  3.22586e+18
-39.7076  3.18644e+18
-39.5903  4.06928e+18
-39.473  5.84951e+18
-39.3557  8.31095e+18
-39.2384  1.10414e+19
-39.1211  1.35592e+19
-39.0038  1.5377e+19
-38.8865  1.61439e+19
-38.7692  1.5707e+19
-38.6519  1.41542e+19
-38.5346  1.18058e+19
-38.4173  9.1237e+18
-38.3  6.58809e+18
-38.1827  4.5912e+18
-38.0654  3.34558e+18
-37.9481  2.85352e+18
-37.8308  2.92091e+18
-37.7135  3.24644e+18
-37.5962  3.505e+18
-37.4789  3.45352e+18
-37.3615  3.0078e+18
-37.2442  2.24045e+18
-37.1269  1.35594e+18
-37.0096  6.09134e+17
-36.8923  2.3507e+17
-36.775  3.56382e+17
-36.6577  9.50919e+17
-36.5404  1.8637e+18
-36.4231  2.84785e+18
-36.3058  3.64119e+18
-36.1885  4.04836e+18
-36.0712  3.99723e+18
-35.9539  3.53961e+18
-35.8366  2.84735e+18
-35.7193  2.13871e+18
-35.602  1.63085e+18
-35.4847  1.46618e+18
-35.3674  1.67668e+18
-35.2501  2.185e+18
-35.1328  2.84059e+18
-35.0154  3.46514e+18
-34.8981  3.89695e+18
-34.7808  4.05176e+18
-34.6635  3.9458e+18
-34.5462  3.65293e+18
-34.4289  3.29132e+18
-34.3116  3.00295e+18
-34.1943  2.87487e+18
-34.077  2.94106e+18
-33.9597  3.17507e+18
-33.8424  3.4967e+18
-33.7251  3.79968e+18
-33.6078  3.99844e+18
-33.4905  4.02742e+18
-33.3732  3.87011e+18
-33.2559  3.55831e+18
-33.1386  3.14896e+18
-33.0213  2.72444e+18
-32.904  2.35588e+18
-32.7867  2.10352e+18
-32.6693  2.01269e+18
-32.552  2.09452e+18
-32.4347  2.34153e+18
-32.3174  2.72149e+18
-32.2001  3.17393e+18
-32.0828  3.62802e+18
-31.9655  3.99418e+18
-31.8482  4.20399e+18
-31.7309  4.19795e+18
-31.6136  3.95934e+18
-31.4963  3.5251e+18
-31.379  2.98671e+18
-31.2617  2.4739e+18
-31.1444  2.13687e+18
-31.0271  2.11527e+18
-30.9098  2.49183e+18
-30.7925  3.2994e+18
-30.6752  4.46664e+18
-30.5579  5.8451e+18
-30.4406  7.25217e+18
-30.3232  8.46352e+18
-30.2059  9.30441e+18
-30.0886  9.62149e+18
-29.9713  9.35576e+18
-29.854  8.54556e+18
-29.7367  7.29266e+18
-29.6194  5.77334e+18
-29.5021  4.19722e+18
-29.3848  2.79527e+18
-29.2675  1.77289e+18
-29.1502  1.29093e+18
-29.0329  1.44578e+18
-28.9156  2.25683e+18
-28.7983  3.65581e+18
-28.681  5.48611e+18
-28.5637  7.52842e+18
-28.4464  9.51996e+18
-28.3291  1.11937e+19
-28.2118  1.2347e+19
-28.0944  1.28309e+19
-27.9771  1.26023e+19
-27.8598  1.17499e+19
-27.7425  1.04036e+19
-27.6252  8.81256e+18
-27.5079  7.19735e+18
-27.3906  5.78052e+18
-27.2733  4.71272e+18
-27.156  4.06423e+18
-27.0387  3.85843e+18
-26.9214  4.02675e+18
-26.8041  4.48533e+18
-26.6868  5.12514e+18
-26.5695  5.84943e+18
-26.4522  6.56595e+18
-26.3349  7.18446e+18
-26.2176  7.62107e+18
-26.1003  7.82275e+18
-25.983  7.74126e+18
-25.8657  7.3695e+18
-25.7483  6.73176e+18
-25.631  5.90135e+18
-25.5137  4.99366e+18
-25.3964  4.16939e+18
-25.2791  3.56566e+18
-25.1618  3.3027e+18
-25.0445  3.43774e+18
-24.9272  3.96103e+18
-24.8099  4.78133e+18
-24.6926  5.76657e+18
-24.5753  6.75527e+18
-24.458  7.60369e+18
-24.3407  8.19925e+18
-24.2234  8.49814e+18
-24.1061  8.48888e+18
-23.9888  8.2482e+18
-23.8715  7.85578e+18
-23.7542  7.44222e+18
-23.6369  7.11316e+18
-23.5196  6.97541e+18
-23.4023  7.15161e+18
-23.2849  7.70564e+18
-23.1676  8.68379e+18
-23.0503  1.01003e+19
-22.933  1.18582e+19
-22.8157  1.38557e+19
-22.6984  1.58763e+19
-22.5811  1.76971e+19
-22.4638  1.91163e+19
-22.3465  1.99064e+19
-22.2292  2.00197e+19
-22.1119  1.94594e+19
-21.9946  1.83532e+19
-21.8773  1.68959e+19
-21.76  1.5321e+19
-21.6427  1.38522e+19
-21.5254  1.26133e+19
-21.4081  1.16509e+19
-21.2908  1.09097e+19
-21.1735  1.02709e+19
-21.0561  9.60755e+18
-20.9388  8.82054e+18
-20.8215  7.90531e+18
-20.7042  6.91199e+18
-20.5869  5.97535e+18
-20.4696  5.24488e+18
-20.3523  4.85485e+18
-20.235  4.86936e+18
-20.1177  5.26953e+18
-20.0004  5.94255e+18
-19.8831  6.75269e+18
-19.7658  7.49921e+18
-19.6485  8.0466e+18
-19.5312  8.30295e+18
-19.4139  8.24772e+18
-19.2966  7.90616e+18
-19.1793  7.35962e+18
-19.062  6.68967e+18
-18.9447  5.97027e+18
-18.8274  5.26395e+18
-18.71  4.63151e+18
-18.5927  4.13659e+18
-18.4754  3.87634e+18
-18.3581  3.99089e+18
-18.2408  4.65394e+18
-18.1235  6.05511e+18
-18.0062  8.39035e+18
-17.8889  1.18152e+19
-17.7716  1.64004e+19
-17.6543  2.22139e+19
-17.537  2.91611e+19
-17.4197  3.7155e+19
-17.3024  4.60148e+19
-17.1851  5.55324e+19
-17.0678  6.54599e+19
-16.9505  7.5442e+19
-16.8332  8.51148e+19
-16.7159  9.40006e+19
-16.5986  1.01642e+20
-16.4813  1.07531e+20
-16.364  1.1123e+20
-16.2466  1.12346e+20
-16.1293  1.10611e+20
-16.012  1.06139e+20
-15.8947  9.90842e+19
-15.7774  8.99015e+19
-15.6601  7.91903e+19
-15.5428  6.76551e+19
-15.4255  5.60662e+19
-15.3082  4.51081e+19
-15.1909  3.53119e+19
-15.0736  2.71572e+19
-14.9563  2.08505e+19
-14.839  1.65037e+19
-14.7217  1.40507e+19
-14.6044  1.33698e+19
-14.4871  1.42894e+19
-14.3698  1.66643e+19
-14.2525  2.03609e+19
-14.1352  2.53461e+19
-14.0178  3.17475e+19
-13.9005  3.97527e+19
-13.7832  4.97049e+19
-13.6659  6.21264e+19
-13.5486  7.76042e+19
-13.4313  9.68645e+19
-13.314  1.20643e+20
-13.1967  1.49712e+20
-13.0794  1.84894e+20
-12.9621  2.26759e+20
-12.8448  2.7598e+20
-12.7275  3.32916e+20
-12.6102  3.97924e+20
-12.4929  4.71266e+20
-12.3756  5.52936e+20
-12.2583  6.43246e+20
-12.141  7.42405e+20
-12.0237  8.50647e+20
-11.9064  9.68361e+20
-11.7891  1.09621e+21
-11.6718  1.23481e+21
-11.5544  1.38511e+21
-11.4371  1.5482e+21
-11.3198  1.72463e+21
-11.2025  1.91538e+21
-11.0852  2.12102e+21
-10.9679  2.34181e+21
-10.8506  2.57759e+21
-10.7333  2.82753e+21
-10.616  3.09071e+21
-10.4987  3.36602e+21
-10.3814  3.65109e+21
-10.2641  3.94443e+21
-10.1468  4.244e+21
-10.0295  4.54844e+21
-9.91217  4.85623e+21
-9.79487  5.16699e+21
-9.67756  5.48064e+21
-9.56026  5.79757e+21
-9.44295  6.11892e+21
-9.32565  6.44655e+21
-9.20834  6.78185e+21
-9.09104  7.12653e+21
-8.97373  7.48215e+21
-8.85643  7.84953e+21
-8.73913  8.22841e+21
-8.62182  8.618e+21
-8.50452  9.01626e+21
-8.38721  9.42031e+21
-8.26991  9.82586e+21
-8.1526  1.02283e+22
-8.03529  1.06218e+22
-7.91799  1.1001e+22
-7.80069  1.13604e+22
-7.68338  1.16945e+22
-7.56608  1.19996e+22
-7.44877  1.22725e+22
-7.33146  1.25113e+22
-7.21416  1.27154e+22
-7.09685  1.28858e+22
-6.97955  1.30241e+22
-6.86224  1.31335e+22
-6.74494  1.32183e+22
-6.62763  1.32815e+22
-6.51033  1.33282e+22
-6.39302  1.33627e+22
-6.27572  1.33887e+22
-6.15842  1.34102e+22
-6.04111  1.34299e+22
-5.92381  1.34501e+22
-5.8065  1.34735e+22
-5.68919  1.35005e+22
-5.57189  1.3532e+22
-5.45458  1.35684e+22
-5.33728  1.36097e+22
-5.21997  1.36546e+22
-5.10267  1.3703e+22
-4.98536  1.37532e+22
-4.86806  1.38035e+22
-4.75075  1.3852e+22
-4.63345  1.38966e+22
-4.51614  1.39347e+22
-4.39884  1.39631e+22
-4.28154  1.3979e+22
-4.16423  1.39796e+22
-4.04692  1.39615e+22
-3.92962  1.39226e+22
-3.81231  1.38606e+22
-3.69501  1.37743e+22
-3.5777  1.36628e+22
-3.4604  1.35267e+22
-3.34309  1.33667e+22
-3.22579  1.31854e+22
-3.10849  1.29852e+22
-2.99118  1.277e+22
-2.87387  1.25441e+22
-2.75657  1.2312e+22
-2.63926  1.20786e+22
-2.52196  1.18483e+22
-2.40465  1.16259e+22
-2.28735  1.14148e+22
-2.17005  1.12185e+22
-2.05274  1.10394e+22
-1.93544  1.0879e+22
-1.81813  1.07383e+22
-1.70083  1.06174e+22
-1.58352  1.05154e+22
-1.46622  1.04316e+22
-1.34891  1.03641e+22
-1.2316  1.03111e+22
-1.1143  1.02708e+22
-0.996995  1.02408e+22
-0.87969  1.02192e+22
-0.762385  1.0204e+22
-0.64508  1.01938e+22
-0.527775  1.0187e+22
-0.41047  1.01825e+22
-0.293165  1.01798e+22
-0.17586  1.0178e+22
-0.058555  1.0177e+22
0.05875  1.01767e+22
0.176055  1.01769e+22
0.29336  1.0178e+22
0.410665  1.01802e+22
0.52797  1.01841e+22
0.645275  1.01905e+22
0.76258  1.02005e+22
0.879885  1.02156e+22
0.99719  1.02372e+22
1.1145  1.02672e+22
1.2318  1.03079e+22
1.3491  1.03611e+22
1.46641  1.04289e+22
1.58371  1.05132e+22
1.70102  1.06156e+22
1.81832  1.07371e+22
1.93563  1.08782e+22
2.05294  1.10389e+22
2.17024  1.12185e+22
2.28754  1.14151e+22
2.40485  1.16265e+22
2.52216  1.18494e+22
2.63946  1.20799e+22
2.75677  1.23136e+22
2.87407  1.2546e+22
2.99137  1.27721e+22
3.10868  1.29875e+22
3.22599  1.31877e+22
3.34329  1.33691e+22
3.4606  1.35291e+22
3.5779  1.36652e+22
3.69521  1.37764e+22
3.81251  1.38625e+22
3.92982  1.3924e+22
4.04712  1.39624e+22
4.16443  1.39802e+22
4.28173  1.39791e+22
4.39903  1.39626e+22
4.51634  1.39338e+22
4.63364  1.38956e+22
4.75095  1.38507e+22
4.86825  1.38018e+22
4.98556  1.37516e+22
5.10286  1.37018e+22
5.22017  1.36537e+22
5.33748  1.36092e+22
5.45478  1.35689e+22
5.57209  1.35334e+22
5.68939  1.35026e+22
5.8067  1.34766e+22
5.924  1.34543e+22
6.0413  1.34348e+22
6.15861  1.34159e+22
6.27591  1.33949e+22
6.39322  1.33694e+22
6.51052  1.33353e+22
6.62783  1.32883e+22
6.74514  1.32246e+22
6.86244  1.31399e+22
6.97975  1.30296e+22
7.09705  1.28907e+22
7.21436  1.27198e+22
7.33166  1.25147e+22
7.44897  1.22754e+22
7.56627  1.20021e+22
7.68358  1.16965e+22
7.80088  1.13619e+22
7.91819  1.10024e+22
8.03549  1.06232e+22
8.1528  1.02299e+22
8.2701  9.82754e+21
8.38741  9.42221e+21
8.50471  9.01849e+21
8.62202  8.62033e+21
8.73932  8.23081e+21
8.85662  7.85217e+21
8.97393  7.48484e+21
9.09123  7.12909e+21
9.20854  6.78418e+21
9.32584  6.44875e+21
9.44315  6.12084e+21
9.56045  5.79897e+21
9.67776  5.48176e+21
9.79506  5.16787e+21
9.91237  4.85679e+21
10.0297  4.54871e+21
10.147  4.24426e+21
10.2643  3.94466e+21
10.3816  3.65127e+21
10.4989  3.36621e+21
10.6162  3.09114e+21
10.7335  2.82802e+21
10.8508  2.57813e+21
10.9681  2.34243e+21
11.0854  2.12188e+21
11.2027  1.91632e+21
11.32  1.72547e+21
11.4373  1.54894e+21
11.5546  1.38592e+21
11.6719  1.23546e+21
11.7893  1.09675e+21
11.9066  9.68843e+20
12.0239  8.50937e+20
12.1412  7.42656e+20
12.2585  6.43476e+20
12.3758  5.5309e+20
12.4931  4.71312e+20
12.6104  3.97971e+20
12.7277  3.33002e+20
12.845  2.76109e+20
12.9623  2.26869e+20
13.0796  1.85021e+20
13.1969  1.49871e+20
13.3142  1.20798e+20
13.4315  9.70088e+19
13.5488  7.77686e+19
13.6661  6.22749e+19
13.7834  4.98387e+19
13.9007  3.98548e+19
14.018  3.18478e+19
14.1354  2.54316e+19
14.2527  2.0418e+19
14.37  1.67166e+19
14.4873  1.4336e+19
14.6046  1.34101e+19
14.7219  1.40879e+19
14.8392  1.65417e+19
14.9565  2.08923e+19
15.0738  2.71968e+19
15.1911  3.53504e+19
15.3084  4.51248e+19
15.4257  5.60827e+19
15.543  6.76696e+19
15.6603  7.91919e+19
15.7776  8.98743e+19
15.8949  9.90418e+19
16.0122  1.06092e+20
16.1295  1.10576e+20
16.2468  1.12263e+20
16.3641  1.11166e+20
16.4815  1.07457e+20
16.5988  1.01563e+20
16.7161  9.39123e+19
16.8334  8.50033e+19
16.9507  7.53303e+19
17.068  6.5353e+19
17.1853  5.54406e+19
17.3026  4.59402e+19
17.4199  3.70714e+19
17.5372  2.90756e+19
17.6545  2.21443e+19
17.7718  1.63631e+19
17.8891  1.17767e+19
18.0064  8.37475e+18
18.1237  6.05133e+18
18.241  4.64699e+18
18.3583  3.98121e+18
18.4756  3.85607e+18
18.5929  4.09966e+18
18.7102  4.58121e+18
18.8275  5.20046e+18
18.9449  5.89299e+18
19.0622  6.60427e+18
19.1795  7.26718e+18
19.2968  7.81843e+18
19.4141  8.15705e+18
19.5314  8.21968e+18
19.6487  7.97194e+18
19.766  7.4209e+18
19.8833  6.68514e+18
20.0006  5.8914e+18
20.1179  5.22843e+18
20.2352  4.84764e+18
20.3525  4.85614e+18
20.4698  5.26889e+18
20.5871  6.01755e+18
20.7044  6.9701e+18
20.8217  7.97499e+18
20.939  8.90422e+18
21.0563  9.69126e+18
21.1736  1.03614e+19
21.291  1.10065e+19
21.4083  1.17627e+19
21.5256  1.27338e+19
21.6429  1.39841e+19
21.7602  1.54615e+19
21.8775  1.70352e+19
21.9948  1.84809e+19
22.1121  1.9578e+19
22.2294  2.01211e+19
22.3467  1.99758e+19
22.464  1.91356e+19
22.5813  1.77025e+19
22.6986  1.58467e+19
22.8159  1.38103e+19
22.9332  1.18122e+19
23.0505  1.00512e+19
23.1678  8.64907e+18
23.2851  7.67643e+18
23.4024  7.14581e+18
23.5198  6.98508e+18
23.6371  7.13398e+18
23.7544  7.47936e+18
23.8717  7.89847e+18
23.989  8.29336e+18
24.1063  8.52698e+18
24.2236  8.52394e+18
24.3409  8.21576e+18
24.4582  7.59876e+18
24.5755  6.74178e+18
24.6928  5.73813e+18
24.8101  4.74248e+18
24.9274  3.91808e+18
25.0447  3.40115e+18
25.162  3.273e+18
25.2793  3.53953e+18
25.3966  4.15006e+18
25.5139  4.97496e+18
25.6312  5.8725e+18
25.7485  6.69114e+18
25.8658  7.31269e+18
25.9832  7.67443e+18
26.1005  7.73896e+18
26.2178  7.52345e+18
26.3351  7.08125e+18
26.4524  6.47346e+18
26.5697  5.76819e+18
26.687  5.05799e+18
26.8043  4.42898e+18
26.9216  3.9867e+18
27.0389  3.84045e+18
27.1562  4.07197e+18
27.2735  4.74268e+18
27.3908  5.83897e+18
27.5081  7.27832e+18
27.6254  8.91439e+18
27.7427  1.05163e+19
27.86  1.18633e+19
27.9773  1.27167e+19
28.0946  1.29176e+19
28.212  1.24186e+19
28.3293  1.12356e+19
28.4466  9.53244e+18
28.5639  7.51933e+18
28.6812  5.46241e+18
28.7985  3.62961e+18
28.9158  2.23495e+18
29.0331  1.43543e+18
29.1504  1.297e+18
29.2677  1.7972e+18
29.385  2.83571e+18
29.5023  4.24532e+18
29.6196  5.81778e+18
29.7369  7.32786e+18
29.8542  8.56361e+18
29.9715  9.36317e+18
30.0888  9.60026e+18
30.2061  9.26708e+18
30.3234  8.42059e+18
30.4407  7.19811e+18
30.558  5.801e+18
30.6754  4.42114e+18
30.7927  3.27739e+18
30.91  2.4901e+18
31.0273  2.12195e+18
31.1446  2.15818e+18
31.2619  2.4978e+18
31.3792  3.01182e+18
31.4965  3.55037e+18
31.6138  3.97675e+18
31.7311  4.20952e+18
31.8484  4.20951e+18
31.9657  4.00039e+18
32.083  3.62605e+18
32.2003  3.17274e+18
32.3176  2.72044e+18
32.4349  2.34156e+18
32.5522  2.09397e+18
32.6695  2.01234e+18
32.7868  2.106e+18
32.9042  2.35645e+18
33.0215  2.72727e+18
33.1388  3.14812e+18
33.2561  3.55439e+18
33.3734  3.85627e+18
33.4907  4.00618e+18
33.608  3.97183e+18
33.7253  3.77239e+18
33.8426  3.46934e+18
33.9599  3.15171e+18
34.0772  2.92683e+18
34.1945  2.86851e+18
34.3118  3.00122e+18
34.4291  3.29275e+18
34.5464  3.64786e+18
34.6637  3.93959e+18
34.781  4.03726e+18
34.8983  3.86565e+18
35.0156  3.42644e+18
35.1329  2.8083e+18
35.2503  2.1534e+18
35.3676  1.65117e+18
35.4849  1.44892e+18
35.6022  1.62177e+18
35.7195  2.13121e+18
35.8368  2.8366e+18
35.9541  3.52044e+18
36.0714  3.96431e+18
36.1887  4.00802e+18
36.306  3.58718e+18
36.4233  2.789e+18
36.5406  1.8112e+18
36.6579  9.15845e+17
36.7752  3.40257e+17
36.8925  2.40984e+17
37.0098  6.32442e+17
37.1271  1.39018e+18
37.2444  2.27732e+18
37.3617  3.04108e+18
37.479  3.47719e+18
37.5964  3.51213e+18
37.7137  3.24706e+18
37.831  2.91789e+18
37.9483  2.85404e+18
38.0656  3.35856e+18
38.1829  4.61861e+18
38.3002  6.6271e+18
38.4175  9.17481e+18
38.5348  1.1855e+19
38.6521  1.41924e+19
38.7694  1.57231e+19
38.8867  1.61328e+19
39.004  1.53466e+19
39.1213  1.35e+19
39.2386  1.09775e+19
39.3559  8.24163e+18
39.4732  5.79223e+18
39.5905  4.0262e+18
39.7078  3.17242e+18
39.8251  3.24795e+18
39.9425  4.0878e+18
40.0598  5.41074e+18
40.1771  6.90675e+18
40.2944  8.29523e+18
40.4117  9.37963e+18
40.529  1.00684e+19
40.6463  1.0389e+19
40.7636  1.04065e+19
40.8809  1.02072e+19
40.9982  9.8961e+18
41.1155  9.51772e+18
41.2328  9.08952e+18
41.3501  8.58071e+18
41.4674  7.96512e+18
41.5847  7.20266e+18
41.702  6.25833e+18
41.8193  5.15609e+18
41.9366  3.91653e+18
42.0539  2.64247e+18
42.1712  1.46624e+18
42.2885  5.79165e+17
42.4059  2.17345e+17
42.5232  5.97374e+17
42.6405  1.88296e+18
42.7578  4.14386e+18
42.8751  7.25995e+18
42.9924  1.09437e+19
43.1097  1.47548e+19
43.227  1.81417e+19
43.3443  2.05569e+19
43.4616  2.15925e+19
43.5789  2.1048e+19
43.6962  1.90737e+19
43.8135  1.60418e+19
43.9308  1.26009e+19
44.0481  9.43279e+18
44.1654  7.17084e+18
44.2827  6.22786e+18
44.4  6.69739e+18
44.5173  8.34452e+18
44.6347  1.06727e+19
44.752  1.30259e+19
44.8693  1.48017e+19
44.9866  1.55317e+19
45.1039  1.50215e+19
45.2212  1.33449e+19
45.3385  1.08314e+19
45.4558  7.93757e+18
45.5731  5.13494e+18
45.6904  2.82347e+18
45.8077  1.21404e+18
45.925  3.62561e+17
46.0423  1.68298e+17
46.1596  4.52577e+17
46.2769  1.01974e+18
46.3942  1.71749e+18
46.5115  2.44711e+18
46.6288  3.17691e+18
46.7461  3.89301e+18
46.8634  4.58725e+18
46.9808  5.22214e+18
47.0981  5.71755e+18
47.2154  5.9992e+18
47.3327  6.00102e+18
47.45  5.7063e+18
47.5673  5.16032e+18
47.6846  4.47396e+18
47.8019  3.79363e+18
47.9192  3.26594e+18
48.0365  3.0043e+18
48.1538  3.05205e+18
48.2711  3.36747e+18
48.3884  3.86629e+18
48.5057  4.38837e+18
48.623  4.80996e+18
48.7403  4.99363e+18
48.8576  4.86914e+18
48.9749  4.44077e+18
49.0922  3.76253e+18
49.2095  2.92838e+18
49.3269  2.08786e+18
49.4442  1.38171e+18
49.5615  9.36071e+17
49.6788  8.50019e+17
49.7961  1.1694e+18
49.9134  1.88575e+18
50.0307  2.91449e+18
50.148  4.10322e+18
50.2653  5.28011e+18
50.3826  6.24939e+18
50.4999  6.82999e+18
50.6172  6.92916e+18
50.7345  6.52625e+18
50.8518  5.71327e+18
