#S 1 spectral density
#N 2
#UFWHM 13.4901
#L  abscissas [um]  spectral density
-58.5938  5.35311e+18
-58.4764  5.03142e+18
-58.3591  5.36954e+18
-58.2418  6.49667e+18
-58.1245  8.32182e+18
-58.0072  1.05233e+19
-57.8899  1.26417e+19
-57.7726  1.41976e+19
-57.6553  1.48135e+19
-57.538  1.43097e+19
-57.4207  1.27517e+19
-57.3034  1.04103e+19
-57.1861  7.70684e+18
-57.0688  5.08422e+18
-56.9515  2.93678e+18
-56.8342  1.51125e+18
-56.7169  9.09571e+17
-56.5996  1.06663e+18
-56.4823  1.82747e+18
-56.365  2.97772e+18
-56.2477  4.32736e+18
-56.1303  5.69671e+18
-56.013  6.94987e+18
-55.8957  7.98765e+18
-55.7784  8.72998e+18
-55.6611  9.10578e+18
-55.5438  9.06443e+18
-55.4265  8.57754e+18
-55.3092  7.69404e+18
-55.1919  6.53072e+18
-55.0746  5.24477e+18
-54.9573  4.0758e+18
-54.84  3.2219e+18
-54.7227  2.86693e+18
-54.6054  3.10438e+18
-54.4881  3.93743e+18
-54.3708  5.27285e+18
-54.2535  6.94592e+18
-54.1362  8.76527e+18
-54.0189  1.05268e+19
-53.9016  1.20862e+19
-53.7842  1.33417e+19
-53.6669  1.42359e+19
-53.5496  1.47491e+19
-53.4323  1.49185e+19
-53.315  1.47721e+19
-53.1977  1.4374e+19
-53.0804  1.37991e+19
-52.9631  1.31256e+19
-52.8458  1.24413e+19
-52.7285  1.18449e+19
-52.6112  1.14025e+19
-52.4939  1.1154e+19
-52.3766  1.10978e+19
-52.2593  1.11852e+19
-52.142  1.13367e+19
-52.0247  1.14519e+19
-51.9074  1.14465e+19
-51.7901  1.1255e+19
-51.6728  1.08585e+19
-51.5555  1.02629e+19
-51.4381  9.52191e+18
-51.3208  8.68096e+18
-51.2035  7.82535e+18
-51.0862  7.01942e+18
-50.9689  6.36607e+18
-50.8516  5.98299e+18
-50.7343  6.00599e+18
-50.617  6.59513e+18
-50.4997  7.88989e+18
-50.3824  9.98052e+18
-50.2651  1.28854e+19
-50.1478  1.64544e+19
-50.0305  2.04649e+19
-49.9132  2.4521e+19
-49.7959  2.81923e+19
-49.6786  3.1053e+19
-49.5613  3.27494e+19
-49.444  3.30615e+19
-49.3267  3.19731e+19
-49.2094  2.96285e+19
-49.092  2.63415e+19
-48.9747  2.2485e+19
-48.8574  1.84936e+19
-48.7401  1.47196e+19
-48.6228  1.14394e+19
-48.5055  8.80285e+18
-48.3882  6.82565e+18
-48.2709  5.44136e+18
-48.1536  4.51007e+18
-48.0363  3.87958e+18
-47.919  3.41217e+18
-47.8017  3.02519e+18
-47.6844  2.70459e+18
-47.5671  2.50578e+18
-47.4498  2.54542e+18
-47.3325  2.94761e+18
-47.2152  3.83825e+18
-47.0979  5.24875e+18
-46.9806  7.11944e+18
-46.8633  9.25808e+18
-46.7459  1.13663e+19
-46.6286  1.30839e+19
-46.5113  1.40521e+19
-46.394  1.40433e+19
-46.2767  1.29782e+19
-46.1594  1.10239e+19
-46.0421  8.55824e+18
-45.9248  6.10322e+18
-45.8075  4.208e+18
-45.6902  3.33015e+18
-45.5729  3.70829e+18
-45.4556  5.28321e+18
-45.3383  7.72337e+18
-45.221  1.04614e+19
-45.1037  1.28732e+19
-44.9864  1.44136e+19
-44.8691  1.47422e+19
-44.7518  1.38304e+19
-44.6345  1.19687e+19
-44.5172  9.67337e+18
-44.3998  7.55988e+18
-44.2825  6.1884e+18
-44.1652  5.92544e+18
-44.0479  6.84274e+18
-43.9306  8.74647e+18
-43.8133  1.11814e+19
-43.696  1.36175e+19
-43.5787  1.5539e+19
-43.4614  1.6574e+19
-43.3441  1.65568e+19
-43.2268  1.55752e+19
-43.1095  1.38782e+19
-42.9922  1.18509e+19
-42.8749  9.89769e+18
-42.7576  8.37581e+18
-42.6403  7.50703e+18
-42.523  7.4191e+18
-42.4057  8.08125e+18
-42.2884  9.37092e+18
-42.171  1.10823e+19
-42.0537  1.2975e+19
-41.9364  1.47807e+19
-41.8191  1.62475e+19
-41.7018  1.71751e+19
-41.5845  1.74366e+19
-41.4672  1.70052e+19
-41.3499  1.59665e+19
-41.2326  1.45236e+19
-41.1153  1.29497e+19
-40.998  1.15477e+19
-40.8807  1.05731e+19
-40.7634  1.01731e+19
-40.6461  1.03653e+19
-40.5288  1.09943e+19
-40.4115  1.18087e+19
-40.2942  1.25086e+19
-40.1769  1.28043e+19
-40.0596  1.25146e+19
-39.9423  1.16288e+19
-39.825  1.02886e+19
-39.7076  8.74255e+18
-39.5903  7.30983e+18
-39.473  6.27329e+18
-39.3557  5.86198e+18
-39.2384  6.16042e+18
-39.1211  7.15545e+18
-39.0038  8.76119e+18
-38.8865  1.08707e+19
-38.7692  1.33955e+19
-38.6519  1.62912e+19
-38.5346  1.95523e+19
-38.4173  2.31465e+19
-38.3  2.69998e+19
-38.1827  3.08903e+19
-38.0654  3.44796e+19
-37.9481  3.73365e+19
-37.8308  3.89821e+19
-37.7135  3.90405e+19
-37.5962  3.72857e+19
-37.4789  3.3766e+19
-37.3615  2.8823e+19
-37.2442  2.3036e+19
-37.1269  1.71373e+19
-37.0096  1.18485e+19
-36.8923  7.79491e+18
-36.775  5.3349e+18
-36.6577  4.52093e+18
-36.5404  5.11447e+18
-36.4231  6.65825e+18
-36.3058  8.58161e+18
-36.1885  1.03536e+19
-36.0712  1.15746e+19
-35.9539  1.2041e+19
-35.8366  1.17608e+19
-35.7193  1.08968e+19
-35.602  9.71779e+18
-35.4847  8.51251e+18
-35.3674  7.47967e+18
-35.2501  6.73599e+18
-35.1328  6.29545e+18
-35.0154  6.0847e+18
-34.8981  5.99189e+18
-34.7808  5.92256e+18
-34.6635  5.8306e+18
-34.5462  5.721e+18
-34.4289  5.64925e+18
-34.3116  5.69218e+18
-34.1943  5.91631e+18
-34.077  6.36158e+18
-33.9597  7.01392e+18
-33.8424  7.81891e+18
-33.7251  8.66175e+18
-33.6078  9.44101e+18
-33.4905  1.00416e+19
-33.3732  1.03699e+19
-33.2559  1.03687e+19
-33.1386  1.00249e+19
-33.0213  9.36203e+18
-32.904  8.45108e+18
-32.7867  7.38376e+18
-32.6693  6.29493e+18
-32.552  5.30613e+18
-32.4347  4.57153e+18
-32.3174  4.20384e+18
-32.2001  4.28147e+18
-32.0828  4.83614e+18
-31.9655  5.82375e+18
-31.8482  7.18736e+18
-31.7309  8.80504e+18
-31.6136  1.05419e+19
-31.4963  1.22809e+19
-31.379  1.39096e+19
-31.2617  1.53705e+19
-31.1444  1.66142e+19
-31.0271  1.75927e+19
-30.9098  1.83022e+19
-30.7925  1.87101e+19
-30.6752  1.88205e+19
-30.5579  1.86394e+19
-30.4406  1.81939e+19
-30.3232  1.75654e+19
-30.2059  1.68559e+19
-30.0886  1.6213e+19
-29.9713  1.57813e+19
-29.854  1.56794e+19
-29.7367  1.59777e+19
-29.6194  1.66867e+19
-29.5021  1.77416e+19
-29.3848  1.9019e+19
-29.2675  2.03644e+19
-29.1502  2.16323e+19
-29.0329  2.27161e+19
-28.9156  2.35496e+19
-28.7983  2.41543e+19
-28.681  2.4595e+19
-28.5637  2.50073e+19
-28.4464  2.55449e+19
-28.3291  2.63873e+19
-28.2118  2.769e+19
-28.0944  2.96333e+19
-27.9771  3.23233e+19
-27.8598  3.58104e+19
-27.7425  4.00811e+19
-27.6252  4.49403e+19
-27.5079  5.01716e+19
-27.3906  5.53759e+19
-27.2733  6.01241e+19
-27.156  6.39227e+19
-27.0387  6.63506e+19
-26.9214  6.71075e+19
-26.8041  6.60701e+19
-26.6868  6.33215e+19
-26.5695  5.91289e+19
-26.4522  5.39218e+19
-26.3349  4.82303e+19
-26.2176  4.25669e+19
-26.1003  3.73619e+19
-25.983  3.28982e+19
-25.8657  2.93048e+19
-25.7483  2.65526e+19
-25.631  2.45133e+19
-25.5137  2.29853e+19
-25.3964  2.17511e+19
-25.2791  2.06412e+19
-25.1618  1.95394e+19
-25.0445  1.83983e+19
-24.9272  1.72653e+19
-24.8099  1.61972e+19
-24.6926  1.53372e+19
-24.5753  1.48415e+19
-24.458  1.48417e+19
-24.3407  1.54957e+19
-24.2234  1.6921e+19
-24.1061  1.91995e+19
-23.9888  2.24017e+19
-23.8715  2.65203e+19
-23.7542  3.15797e+19
-23.6369  3.75378e+19
-23.5196  4.43566e+19
-23.4023  5.20336e+19
-23.2849  6.05048e+19
-23.1676  6.97065e+19
-23.0503  7.95627e+19
-22.933  8.98153e+19
-22.8157  1.00266e+20
-22.6984  1.1047e+20
-22.5811  1.20037e+20
-22.4638  1.28611e+20
-22.3465  1.35744e+20
-22.2292  1.41294e+20
-22.1119  1.45178e+20
-21.9946  1.4749e+20
-21.8773  1.48414e+20
-21.76  1.48303e+20
-21.6427  1.47473e+20
-21.5254  1.46161e+20
-21.4081  1.44588e+20
-21.2908  1.42838e+20
-21.1735  1.40914e+20
-21.0561  1.38849e+20
-20.9388  1.36616e+20
-20.8215  1.34402e+20
-20.7042  1.32362e+20
-20.5869  1.3086e+20
-20.4696  1.3024e+20
-20.3523  1.30991e+20
-20.235  1.33468e+20
-20.1177  1.38146e+20
-20.0004  1.45232e+20
-19.8831  1.54889e+20
-19.7658  1.67161e+20
-19.6485  1.81936e+20
-19.5312  1.98882e+20
-19.4139  2.17514e+20
-19.2966  2.3713e+20
-19.1793  2.56885e+20
-19.062  2.7577e+20
-18.9447  2.92833e+20
-18.8274  3.07211e+20
-18.71  3.18145e+20
-18.5927  3.25324e+20
-18.4754  3.28821e+20
-18.3581  3.29e+20
-18.2408  3.26762e+20
-18.1235  3.23082e+20
-18.0062  3.19245e+20
-17.8889  3.16498e+20
-17.7716  3.15827e+20
-17.6543  3.18381e+20
-17.537  3.2468e+20
-17.4197  3.35293e+20
-17.3024  3.50335e+20
-17.1851  3.69888e+20
-17.0678  3.93745e+20
-16.9505  4.21507e+20
-16.8332  4.52673e+20
-16.7159  4.86559e+20
-16.5986  5.22414e+20
-16.4813  5.59318e+20
-16.364  5.9637e+20
-16.2466  6.32588e+20
-16.1293  6.6694e+20
-16.012  6.99015e+20
-15.8947  7.28214e+20
-15.7774  7.54398e+20
-15.6601  7.77724e+20
-15.5428  7.9866e+20
-15.4255  8.1793e+20
-15.3082  8.36651e+20
-15.1909  8.55594e+20
-15.0736  8.76242e+20
-14.9563  8.99526e+20
-14.839  9.2644e+20
-14.7217  9.57491e+20
-14.6044  9.93259e+20
-14.4871  1.03353e+21
-14.3698  1.07809e+21
-14.2525  1.1261e+21
-14.1352  1.17662e+21
-14.0178  1.22829e+21
-13.9005  1.27998e+21
-13.7832  1.3305e+21
-13.6659  1.37867e+21
-13.5486  1.42389e+21
-13.4313  1.46588e+21
-13.314  1.5045e+21
-13.1967  1.5401e+21
-13.0794  1.57342e+21
-12.9621  1.60524e+21
-12.8448  1.63657e+21
-12.7275  1.66844e+21
-12.6102  1.70182e+21
-12.4929  1.73751e+21
-12.3756  1.77628e+21
-12.2583  1.81871e+21
-12.141  1.8653e+21
-12.0237  1.91653e+21
-11.9064  1.97282e+21
-11.7891  2.03476e+21
-11.6718  2.103e+21
-11.5544  2.17823e+21
-11.4371  2.26096e+21
-11.3198  2.35214e+21
-11.2025  2.45207e+21
-11.0852  2.56122e+21
-10.9679  2.67957e+21
-10.8506  2.8066e+21
-10.7333  2.94139e+21
-10.616  3.08259e+21
-10.4987  3.22859e+21
-10.3814  3.37696e+21
-10.2641  3.52537e+21
-10.1468  3.67192e+21
-10.0295  3.81414e+21
-9.91217  3.95034e+21
-9.79487  4.07962e+21
-9.67756  4.20153e+21
-9.56026  4.3162e+21
-9.44295  4.42458e+21
-9.32565  4.52869e+21
-9.20834  4.6304e+21
-9.09104  4.73248e+21
-8.97373  4.83729e+21
-8.85643  4.94788e+21
-8.73913  5.06602e+21
-8.62182  5.19368e+21
-8.50452  5.33175e+21
-8.38721  5.48086e+21
-8.26991  5.64013e+21
-8.1526  5.80877e+21
-8.03529  5.98461e+21
-7.91799  6.16583e+21
-7.80069  6.35008e+21
-7.68338  6.53489e+21
-7.56608  6.71871e+21
-7.44877  6.90013e+21
-7.33146  7.07811e+21
-7.21416  7.25247e+21
-7.09685  7.42352e+21
-6.97955  7.59179e+21
-6.86224  7.75819e+21
-6.74494  7.92366e+21
-6.62763  8.08841e+21
-6.51033  8.25323e+21
-6.39302  8.41815e+21
-6.27572  8.5829e+21
-6.15842  8.74717e+21
-6.04111  8.91025e+21
-5.92381  9.07136e+21
-5.8065  9.23039e+21
-5.68919  9.38683e+21
-5.57189  9.54091e+21
-5.45458  9.69325e+21
-5.33728  9.8451e+21
-5.21997  9.99711e+21
-5.10267  1.01515e+22
-4.98536  1.03095e+22
-4.86806  1.04723e+22
-4.75075  1.0641e+22
-4.63345  1.08156e+22
-4.51614  1.09958e+22
-4.39884  1.118e+22
-4.28154  1.13661e+22
-4.16423  1.1552e+22
-4.04692  1.17334e+22
-3.92962  1.19076e+22
-3.81231  1.20715e+22
-3.69501  1.22218e+22
-3.5777  1.23565e+22
-3.4604  1.24741e+22
-3.34309  1.25741e+22
-3.22579  1.2657e+22
-3.10849  1.27249e+22
-2.99118  1.27801e+22
-2.87387  1.28264e+22
-2.75657  1.28678e+22
-2.63926  1.29093e+22
-2.52196  1.29554e+22
-2.40465  1.30106e+22
-2.28735  1.30785e+22
-2.17005  1.31626e+22
-2.05274  1.32652e+22
-1.93544  1.33867e+22
-1.81813  1.35277e+22
-1.70083  1.36864e+22
-1.58352  1.38607e+22
-1.46622  1.40474e+22
-1.34891  1.42424e+22
-1.2316  1.44418e+22
-1.1143  1.46404e+22
-0.996995  1.4834e+22
-0.87969  1.50181e+22
-0.762385  1.51876e+22
-0.64508  1.53397e+22
-0.527775  1.5471e+22
-0.41047  1.55785e+22
-0.293165  1.56604e+22
-0.17586  1.57154e+22
-0.058555  1.57425e+22
0.05875  1.57411e+22
0.176055  1.57115e+22
0.29336  1.5654e+22
0.410665  1.55696e+22
0.52797  1.54597e+22
0.645275  1.53263e+22
0.76258  1.51722e+22
0.879885  1.50009e+22
0.99719  1.48157e+22
1.1145  1.46209e+22
1.2318  1.44213e+22
1.3491  1.42213e+22
1.46641  1.40256e+22
1.58371  1.38385e+22
1.70102  1.3664e+22
1.81832  1.3505e+22
1.93563  1.33642e+22
2.05294  1.32424e+22
2.17024  1.31402e+22
2.28754  1.30563e+22
2.40485  1.29883e+22
2.52216  1.29333e+22
2.63946  1.28874e+22
2.75677  1.2846e+22
2.87407  1.28045e+22
2.99137  1.27582e+22
3.10868  1.27029e+22
3.22599  1.26348e+22
3.34329  1.25515e+22
3.4606  1.24512e+22
3.5779  1.23331e+22
3.69521  1.21979e+22
3.81251  1.20469e+22
3.92982  1.18822e+22
4.04712  1.17069e+22
4.16443  1.15246e+22
4.28173  1.13379e+22
4.39903  1.11506e+22
4.51634  1.09656e+22
4.63364  1.07846e+22
4.75095  1.06092e+22
4.86825  1.04399e+22
4.98556  1.02765e+22
5.10286  1.01184e+22
5.22017  9.96358e+21
5.33748  9.8114e+21
5.45478  9.65977e+21
5.57209  9.50756e+21
5.68939  9.35352e+21
5.8067  9.19716e+21
5.924  9.03824e+21
6.0413  8.87727e+21
6.15861  8.7143e+21
6.27591  8.54995e+21
6.39322  8.38514e+21
6.51052  8.22006e+21
6.62783  8.0549e+21
6.74514  7.88969e+21
6.86244  7.72418e+21
6.97975  7.55738e+21
7.09705  7.38894e+21
7.21436  7.21781e+21
7.33166  7.04319e+21
7.44897  6.86547e+21
7.56627  6.68441e+21
7.68358  6.50091e+21
7.80088  6.31646e+21
7.91819  6.13277e+21
8.03549  5.95223e+21
8.1528  5.77709e+21
8.2701  5.60906e+21
8.38741  5.45029e+21
8.50471  5.30164e+21
8.62202  5.16404e+21
8.73932  5.03659e+21
8.85662  4.91865e+21
8.97393  4.80839e+21
9.09123  4.70351e+21
9.20854  4.6016e+21
9.32584  4.49995e+21
9.44315  4.39601e+21
9.56045  4.28762e+21
9.67776  4.17329e+21
9.79506  4.05175e+21
9.91237  3.92293e+21
10.0297  3.78728e+21
10.147  3.64592e+21
10.2643  3.50034e+21
10.3816  3.35278e+21
10.4989  3.20542e+21
10.6162  3.06055e+21
10.7335  2.92026e+21
10.8508  2.78647e+21
10.9681  2.6604e+21
11.0854  2.54314e+21
11.2027  2.43488e+21
11.32  2.33573e+21
11.4373  2.24541e+21
11.5546  2.16331e+21
11.6719  2.0887e+21
11.7893  2.02121e+21
11.9066  1.95985e+21
12.0239  1.90399e+21
12.1412  1.85343e+21
12.2585  1.80728e+21
12.3758  1.76537e+21
12.4931  1.727e+21
12.6104  1.6917e+21
12.7277  1.65861e+21
12.845  1.62693e+21
12.9623  1.59574e+21
13.0796  1.56416e+21
13.1969  1.53085e+21
13.3142  1.4954e+21
13.4315  1.45686e+21
13.5488  1.4149e+21
13.6661  1.36969e+21
13.7834  1.32156e+21
13.9007  1.27119e+21
14.018  1.21958e+21
14.1354  1.16807e+21
14.2527  1.11784e+21
14.37  1.07006e+21
14.4873  1.02576e+21
14.6046  9.85645e+20
14.7219  9.50093e+20
14.8392  9.19163e+20
14.9565  8.92402e+20
15.0738  8.6929e+20
15.1911  8.4873e+20
15.3084  8.29796e+20
15.4257  8.11241e+20
15.543  7.92084e+20
15.6603  7.71313e+20
15.7776  7.48164e+20
15.8949  7.22198e+20
16.0122  6.93347e+20
16.1295  6.61605e+20
16.2468  6.27523e+20
16.3641  5.91758e+20
16.4815  5.55079e+20
16.5988  5.18529e+20
16.7161  4.8305e+20
16.8334  4.49454e+20
16.9507  4.18564e+20
17.068  3.91064e+20
17.1853  3.67447e+20
17.3026  3.48118e+20
17.4199  3.33192e+20
17.5372  3.22684e+20
17.6545  3.16498e+20
17.7718  3.14037e+20
17.8891  3.14665e+20
18.0064  3.17464e+20
18.1237  3.21325e+20
18.241  3.24928e+20
18.3583  3.27131e+20
18.4756  3.26872e+20
18.5929  3.23317e+20
18.7102  3.15993e+20
18.8275  3.0502e+20
18.9449  2.9064e+20
19.0622  2.73567e+20
19.1795  2.54746e+20
19.2968  2.35097e+20
19.4141  2.15634e+20
19.5314  1.97158e+20
19.6487  1.80388e+20
19.766  1.65848e+20
19.8833  1.53739e+20
20.0006  1.44296e+20
20.1179  1.37424e+20
20.2352  1.32963e+20
20.3525  1.30604e+20
20.4698  1.29977e+20
20.5871  1.30674e+20
20.7044  1.32261e+20
20.8217  1.34356e+20
20.939  1.36629e+20
21.0563  1.3883e+20
21.1736  1.40899e+20
21.291  1.42783e+20
21.4083  1.44534e+20
21.5256  1.46055e+20
21.6429  1.47319e+20
21.7602  1.48112e+20
21.8775  1.48162e+20
21.9948  1.47143e+20
22.1121  1.44791e+20
22.2294  1.40822e+20
22.3467  1.35205e+20
22.464  1.27962e+20
22.5813  1.19359e+20
22.6986  1.09734e+20
22.8159  9.95169e+19
22.9332  8.90925e+19
23.0505  7.88536e+19
23.1678  6.90442e+19
23.2851  5.98657e+19
23.4024  5.14617e+19
23.5198  4.38446e+19
23.6371  3.70767e+19
23.7544  3.11793e+19
23.8717  2.61754e+19
23.989  2.21087e+19
24.1063  1.89456e+19
24.2236  1.67003e+19
24.3409  1.53109e+19
24.4582  1.46636e+19
24.5755  1.46826e+19
24.6928  1.51865e+19
24.8101  1.60419e+19
24.9274  1.70914e+19
25.0447  1.8229e+19
25.162  1.93687e+19
25.2793  2.04787e+19
25.3966  2.15989e+19
25.5139  2.28518e+19
25.6312  2.44173e+19
25.7485  2.65132e+19
25.8658  2.93233e+19
25.9832  3.29848e+19
26.1005  3.75263e+19
26.2178  4.28105e+19
26.3351  4.85178e+19
26.4524  5.42287e+19
26.5697  5.94266e+19
26.687  6.3584e+19
26.8043  6.62833e+19
26.9216  6.72405e+19
27.0389  6.63709e+19
27.1562  6.38399e+19
27.2735  5.99509e+19
27.3908  5.51323e+19
27.5081  4.9885e+19
27.6254  4.46392e+19
27.7427  3.97947e+19
27.86  3.5583e+19
27.9773  3.21485e+19
28.0946  2.95251e+19
28.212  2.76396e+19
28.3293  2.63864e+19
28.4466  2.55869e+19
28.5639  2.50666e+19
28.6812  2.46591e+19
28.7985  2.42063e+19
28.9158  2.35737e+19
29.0331  2.27057e+19
29.1504  2.15907e+19
29.2677  2.0292e+19
29.385  1.89282e+19
29.5023  1.76449e+19
29.6196  1.65904e+19
29.7369  1.58868e+19
29.8542  1.56012e+19
29.9715  1.57186e+19
30.0888  1.61695e+19
30.2061  1.68268e+19
30.3234  1.75429e+19
30.4407  1.81824e+19
30.558  1.86268e+19
30.6754  1.88166e+19
30.7927  1.86895e+19
30.91  1.82612e+19
31.0273  1.75446e+19
31.1446  1.65486e+19
31.2619  1.52954e+19
31.3792  1.38242e+19
31.4965  1.2184e+19
31.6138  1.04491e+19
31.7311  8.71494e+18
31.8484  7.11829e+18
31.9657  5.783e+18
32.083  4.80946e+18
32.2003  4.28071e+18
32.3176  4.22425e+18
32.4349  4.59882e+18
32.5522  5.33885e+18
32.6695  6.32256e+18
32.7868  7.40856e+18
32.9042  8.45777e+18
33.0215  9.35865e+18
33.1388  9.99857e+18
33.2561  1.03295e+19
33.3734  1.03108e+19
33.4907  9.97371e+18
33.608  9.37335e+18
33.7253  8.59763e+18
33.8426  7.75973e+18
33.9599  6.97059e+18
34.0772  6.33103e+18
34.1945  5.89933e+18
34.3118  5.68722e+18
34.4291  5.65566e+18
34.5464  5.73562e+18
34.6637  5.85357e+18
34.781  5.95197e+18
34.8983  6.02857e+18
35.0156  6.13498e+18
35.1329  6.36772e+18
35.2503  6.82787e+18
35.3676  7.58895e+18
35.4849  8.62897e+18
35.6022  9.84219e+18
35.7195  1.10038e+19
35.8368  1.18475e+19
35.9541  1.20953e+19
36.0714  1.15849e+19
36.1887  1.03355e+19
36.306  8.53228e+18
36.4233  6.59282e+18
36.5406  5.06193e+18
36.6579  4.504e+18
36.7752  5.37173e+18
36.8925  7.89524e+18
37.0098  1.20163e+19
37.1271  1.736e+19
37.2444  2.33149e+19
37.3617  2.91369e+19
37.479  3.40917e+19
37.5964  3.75976e+19
37.7137  3.93352e+19
37.831  3.92236e+19
37.9483  3.75303e+19
38.0656  3.46075e+19
38.1829  3.09653e+19
38.3002  2.70192e+19
38.4175  2.31241e+19
38.5348  1.9494e+19
38.6521  1.62041e+19
38.7694  1.32943e+19
38.8867  1.07642e+19
39.004  8.66057e+18
39.1213  7.0696e+18
39.2386  6.10106e+18
39.3559  5.83359e+18
39.4732  6.27637e+18
39.5905  7.3348e+18
39.7078  8.79401e+18
39.8251  1.03598e+19
39.9425  1.17094e+19
40.0598  1.25781e+19
40.1771  1.28525e+19
40.2944  1.25508e+19
40.4117  1.18392e+19
40.529  1.10101e+19
40.6463  1.03773e+19
40.7636  1.01887e+19
40.8809  1.05854e+19
40.9982  1.1567e+19
41.1155  1.2966e+19
41.2328  1.4533e+19
41.3501  1.59632e+19
41.4674  1.69874e+19
41.5847  1.7405e+19
41.702  1.71297e+19
41.8193  1.61954e+19
41.9366  1.47246e+19
42.0539  1.29293e+19
42.1712  1.10521e+19
42.2885  9.35361e+18
42.4059  8.08232e+18
42.5232  7.43662e+18
42.6405  7.5354e+18
42.7578  8.41197e+18
42.8751  9.9422e+18
42.9924  1.18916e+19
43.1097  1.3898e+19
43.227  1.55839e+19
43.3443  1.65479e+19
43.4616  1.65401e+19
43.5789  1.548e+19
43.6962  1.35535e+19
43.8135  1.1112e+19
43.9308  8.69375e+18
44.0481  6.82578e+18
44.1654  5.93786e+18
44.2827  6.23077e+18
44.4  7.6167e+18
44.5173  9.72752e+18
44.6347  1.20047e+19
44.752  1.38278e+19
44.8693  1.4691e+19
44.9866  1.4307e+19
45.1039  1.27356e+19
45.2212  1.0301e+19
45.3385  7.5663e+18
45.4558  5.16911e+18
45.5731  3.65104e+18
45.6904  3.34829e+18
45.8077  4.29704e+18
45.925  6.24911e+18
46.0423  8.74451e+18
46.1596  1.1224e+19
46.2769  1.31579e+19
46.3942  1.42003e+19
46.5115  1.41679e+19
46.6288  1.3157e+19
46.7461  1.14008e+19
46.8634  9.26481e+18
46.9808  7.11456e+18
47.0981  5.23816e+18
47.2154  3.82171e+18
47.3327  2.93397e+18
47.45  2.5289e+18
47.5673  2.4913e+18
47.6846  2.69266e+18
47.8019  3.01686e+18
47.9192  3.41067e+18
48.0365  3.89363e+18
48.1538  4.54721e+18
48.2711  5.50753e+18
48.3884  6.93067e+18
48.5057  8.94715e+18
48.623  1.16397e+19
48.7403  1.49629e+19
48.8576  1.87814e+19
48.9749  2.28174e+19
49.0922  2.66916e+19
49.2095  2.99776e+19
49.3269  3.23158e+19
49.4442  3.33714e+19
49.5615  3.30041e+19
49.6788  3.12375e+19
49.7961  2.83115e+19
49.9134  2.45565e+19
50.0307  2.04372e+19
50.148  1.6393e+19
50.2653  1.27872e+19
50.3826  9.88936e+18
50.4999  7.80267e+18
50.6172  6.5352e+18
50.7345  5.98264e+18
50.8518  5.99919e+18
50.9691  6.41334e+18
