#S 1 spectral density
#N 2
#UFWHM 13.6074
#L  abscissas [um]  spectral density
-58.5938  1.20141e+19
-58.4764  1.09474e+19
-58.3591  9.79909e+18
-58.2418  8.81309e+18
-58.1245  8.15534e+18
-58.0072  7.89336e+18
-57.8899  7.99997e+18
-57.7726  8.38835e+18
-57.6553  8.96161e+18
-57.538  9.63946e+18
-57.4207  1.03781e+19
-57.3034  1.11487e+19
-57.1861  1.19229e+19
-57.0688  1.2613e+19
-56.9515  1.31074e+19
-56.8342  1.32327e+19
-56.7169  1.28755e+19
-56.5996  1.19158e+19
-56.4823  1.04028e+19
-56.365  8.48248e+18
-56.2477  6.40594e+18
-56.1303  4.51039e+18
-56.013  3.11598e+18
-55.8957  2.44033e+18
-55.7784  2.56486e+18
-55.6611  3.40488e+18
-55.5438  4.73678e+18
-55.4265  6.24581e+18
-55.3092  7.61335e+18
-55.1919  8.5875e+18
-55.0746  9.01779e+18
-54.9573  8.9065e+18
-54.84  8.32842e+18
-54.7227  7.46774e+18
-54.6054  6.49303e+18
-54.4881  5.57425e+18
-54.3708  4.83487e+18
-54.2535  4.33415e+18
-54.1362  4.11235e+18
-54.0189  4.18412e+18
-53.9016  4.57016e+18
-53.7842  5.28752e+18
-53.6669  6.34721e+18
-53.5496  7.73213e+18
-53.4323  9.38657e+18
-53.315  1.11992e+19
-53.1977  1.30165e+19
-53.0804  1.46449e+19
-52.9631  1.58834e+19
-52.8458  1.65494e+19
-52.7285  1.65229e+19
-52.6112  1.57319e+19
-52.4939  1.42177e+19
-52.3766  1.20769e+19
-52.2593  9.5254e+18
-52.142  6.81364e+18
-52.0247  4.2707e+18
-51.9074  2.22684e+18
-51.7901  9.96406e+17
-51.6728  8.2752e+17
-51.5555  1.84307e+18
-51.4381  4.02708e+18
-51.3208  7.17963e+18
-51.2035  1.09633e+19
-51.0862  1.49011e+19
-50.9689  1.85197e+19
-50.8516  2.13846e+19
-50.7343  2.31588e+19
-50.617  2.37437e+19
-50.4997  2.32046e+19
-50.3824  2.17906e+19
-50.2651  1.99164e+19
-50.1478  1.7942e+19
-50.0305  1.62688e+19
-49.9132  1.51166e+19
-49.7959  1.45787e+19
-49.6786  1.45993e+19
-49.5613  1.49869e+19
-49.444  1.54912e+19
-49.3267  1.58724e+19
-49.2094  1.59406e+19
-49.092  1.56064e+19
-48.9747  1.4865e+19
-48.8574  1.38382e+19
-48.7401  1.26798e+19
-48.6228  1.1597e+19
-48.5055  1.07613e+19
-48.3882  1.02657e+19
-48.2709  1.01503e+19
-48.1536  1.03345e+19
-48.0363  1.06656e+19
-47.919  1.09198e+19
-47.8017  1.09061e+19
-47.6844  1.0453e+19
-47.5671  9.50657e+18
-47.4498  8.14103e+18
-47.3325  6.58205e+18
-47.2152  5.12717e+18
-47.0979  4.13751e+18
-46.9806  3.9106e+18
-46.8633  4.61921e+18
-46.7459  6.23441e+18
-46.6286  8.54665e+18
-46.5113  1.1161e+19
-46.394  1.36255e+19
-46.2767  1.54728e+19
-46.1594  1.63838e+19
-46.0421  1.62316e+19
-45.9248  1.50931e+19
-45.8075  1.32167e+19
-45.6902  1.09654e+19
-45.5729  8.69447e+18
-45.4556  6.6957e+18
-45.3383  5.08973e+18
-45.221  3.89802e+18
-45.1037  3.02254e+18
-44.9864  2.35207e+18
-44.8691  1.82031e+18
-44.7518  1.46191e+18
-44.6345  1.40238e+18
-44.5172  1.82112e+18
-44.3998  2.87655e+18
-44.2825  4.62588e+18
-44.1652  6.96597e+18
-44.0479  9.62704e+18
-43.9306  1.22059e+19
-43.8133  1.42592e+19
-43.696  1.54289e+19
-43.5787  1.54954e+19
-43.4614  1.4453e+19
-43.3441  1.25344e+19
-43.2268  1.01443e+19
-43.1095  7.74551e+18
-42.9922  5.78878e+18
-42.8749  4.60146e+18
-42.7576  4.33815e+18
-42.6403  4.97284e+18
-42.523  6.32229e+18
-42.4057  8.12516e+18
-42.2884  1.0083e+19
-42.171  1.19351e+19
-42.0537  1.34664e+19
-41.9364  1.45311e+19
-41.8191  1.50539e+19
-41.7018  1.4985e+19
-41.5845  1.43278e+19
-41.4672  1.31101e+19
-41.3499  1.14104e+19
-41.2326  9.37139e+18
-41.1153  7.17793e+18
-40.998  5.08133e+18
-40.8807  3.3393e+18
-40.7634  2.20405e+18
-40.6461  1.87477e+18
-40.5288  2.47193e+18
-40.4115  4.02715e+18
-40.2942  6.49417e+18
-40.1769  9.74389e+18
-40.0596  1.36015e+19
-39.9423  1.78619e+19
-39.825  2.22962e+19
-39.7076  2.66149e+19
-39.5903  3.05184e+19
-39.473  3.3647e+19
-39.3557  3.571e+19
-39.2384  3.64153e+19
-39.1211  3.5636e+19
-39.0038  3.34582e+19
-38.8865  3.0195e+19
-38.7692  2.63474e+19
-38.6519  2.26736e+19
-38.5346  1.99119e+19
-38.4173  1.87422e+19
-38.3  1.95639e+19
-38.1827  2.24384e+19
-38.0654  2.69962e+19
-37.9481  3.25345e+19
-37.8308  3.80806e+19
-37.7135  4.26491e+19
-37.5962  4.53596e+19
-37.4789  4.56747e+19
-37.3615  4.34892e+19
-37.2442  3.90941e+19
-37.1269  3.32216e+19
-37.0096  2.66981e+19
-36.8923  2.04817e+19
-36.775  1.53257e+19
-36.6577  1.17149e+19
-36.5404  9.80228e+18
-36.4231  9.435e+18
-36.3058  1.02345e+19
-36.1885  1.17131e+19
-36.0712  1.33992e+19
-35.9539  1.49213e+19
-35.8366  1.60634e+19
-35.7193  1.675e+19
-35.602  1.70163e+19
-35.4847  1.69747e+19
-35.3674  1.67098e+19
-35.2501  1.62789e+19
-35.1328  1.57041e+19
-35.0154  1.49558e+19
-34.8981  1.40019e+19
-34.7808  1.28278e+19
-34.6635  1.14643e+19
-34.5462  9.97729e+18
-34.4289  8.48487e+18
-34.3116  7.09833e+18
-34.1943  5.92241e+18
-34.077  5.02672e+18
-33.9597  4.44573e+18
-33.8424  4.16111e+18
-33.7251  4.13375e+18
-33.6078  4.29506e+18
-33.4905  4.57745e+18
-33.3732  4.91344e+18
-33.2559  5.23848e+18
-33.1386  5.50385e+18
-33.0213  5.66907e+18
-32.904  5.71916e+18
-32.7867  5.64804e+18
-32.6693  5.4783e+18
-32.552  5.24996e+18
-32.4347  5.02735e+18
-32.3174  4.87493e+18
-32.2001  4.8542e+18
-32.0828  5.00439e+18
-31.9655  5.33516e+18
-31.8482  5.84287e+18
-31.7309  6.49359e+18
-31.6136  7.2476e+18
-31.4963  8.07499e+18
-31.379  8.95536e+18
-31.2617  9.88462e+18
-31.1444  1.08536e+19
-31.0271  1.18241e+19
-30.9098  1.27409e+19
-30.7925  1.35079e+19
-30.6752  1.40068e+19
-30.5579  1.41211e+19
-30.4406  1.37458e+19
-30.3232  1.28486e+19
-30.2059  1.14876e+19
-30.0886  9.82256e+18
-29.9713  8.10666e+18
-29.854  6.65872e+18
-29.7367  5.84921e+18
-29.6194  6.01516e+18
-29.5021  7.45045e+18
-29.3848  1.03324e+19
-29.2675  1.47262e+19
-29.1502  2.05493e+19
-29.0329  2.76019e+19
-28.9156  3.5502e+19
-28.7983  4.38107e+19
-28.681  5.19909e+19
-28.5637  5.94929e+19
-28.4464  6.58219e+19
-28.3291  7.05635e+19
-28.2118  7.345e+19
-28.0944  7.44762e+19
-27.9771  7.38009e+19
-27.8598  7.1776e+19
-27.7425  6.89127e+19
-27.6252  6.56521e+19
-27.5079  6.25454e+19
-27.3906  5.9905e+19
-27.2733  5.79124e+19
-27.156  5.65165e+19
-27.0387  5.5515e+19
-26.9214  5.46112e+19
-26.8041  5.34566e+19
-26.6868  5.17747e+19
-26.5695  4.93673e+19
-26.4522  4.62097e+19
-26.3349  4.24512e+19
-26.2176  3.83356e+19
-26.1003  3.42197e+19
-25.983  3.04476e+19
-25.8657  2.73603e+19
-25.7483  2.52346e+19
-25.631  2.4241e+19
-25.5137  2.44568e+19
-25.3964  2.58111e+19
-25.2791  2.81531e+19
-25.1618  3.12318e+19
-25.0445  3.47435e+19
-24.9272  3.83563e+19
-24.8099  4.17455e+19
-24.6926  4.46709e+19
-24.5753  4.70116e+19
-24.458  4.86767e+19
-24.3407  4.97812e+19
-24.2234  5.05026e+19
-24.1061  5.10734e+19
-23.9888  5.17762e+19
-23.8715  5.2825e+19
-23.7542  5.44383e+19
-23.6369  5.67197e+19
-23.5196  5.97154e+19
-23.4023  6.34378e+19
-23.2849  6.7791e+19
-23.1676  7.26734e+19
-23.0503  7.79365e+19
-22.933  8.33746e+19
-22.8157  8.87747e+19
-22.6984  9.38422e+19
-22.5811  9.83246e+19
-22.4638  1.02026e+20
-22.3465  1.04718e+20
-22.2292  1.06437e+20
-22.1119  1.07237e+20
-21.9946  1.07325e+20
-21.8773  1.06982e+20
-21.76  1.06571e+20
-21.6427  1.06401e+20
-21.5254  1.06695e+20
-21.4081  1.07655e+20
-21.2908  1.09361e+20
-21.1735  1.11813e+20
-21.0561  1.15061e+20
-20.9388  1.19067e+20
-20.8215  1.23987e+20
-20.7042  1.29922e+20
-20.5869  1.37118e+20
-20.4696  1.45728e+20
-20.3523  1.5598e+20
-20.235  1.67913e+20
-20.1177  1.81644e+20
-20.0004  1.97014e+20
-19.8831  2.13806e+20
-19.7658  2.31783e+20
-19.6485  2.50599e+20
-19.5312  2.69787e+20
-19.4139  2.88862e+20
-19.2966  3.07176e+20
-19.1793  3.24055e+20
-19.062  3.38716e+20
-18.9447  3.50442e+20
-18.8274  3.58659e+20
-18.71  3.62801e+20
-18.5927  3.62799e+20
-18.4754  3.58905e+20
-18.3581  3.51624e+20
-18.2408  3.42068e+20
-18.1235  3.314e+20
-18.0062  3.21145e+20
-17.8889  3.12805e+20
-17.7716  3.07694e+20
-17.6543  3.0731e+20
-17.537  3.12497e+20
-17.4197  3.24134e+20
-17.3024  3.42568e+20
-17.1851  3.6802e+20
-17.0678  4.00272e+20
-16.9505  4.3881e+20
-16.8332  4.82799e+20
-16.7159  5.3117e+20
-16.5986  5.82587e+20
-16.4813  6.35489e+20
-16.364  6.88213e+20
-16.2466  7.39078e+20
-16.1293  7.86189e+20
-16.012  8.28445e+20
-15.8947  8.64479e+20
-15.7774  8.93588e+20
-15.6601  9.15397e+20
-15.5428  9.30044e+20
-15.4255  9.38037e+20
-15.3082  9.40585e+20
-15.1909  9.38738e+20
-15.0736  9.34437e+20
-14.9563  9.29392e+20
-14.839  9.25608e+20
-14.7217  9.24739e+20
-14.6044  9.28659e+20
-14.4871  9.38521e+20
-14.3698  9.55424e+20
-14.2525  9.79724e+20
-14.1352  1.01146e+21
-14.0178  1.05013e+21
-13.9005  1.09496e+21
-13.7832  1.14487e+21
-13.6659  1.19856e+21
-13.5486  1.25495e+21
-13.4313  1.31306e+21
-13.314  1.37204e+21
-13.1967  1.43132e+21
-13.0794  1.49078e+21
-12.9621  1.55035e+21
-12.8448  1.61033e+21
-12.7275  1.67105e+21
-12.6102  1.7329e+21
-12.4929  1.79616e+21
-12.3756  1.86101e+21
-12.2583  1.92755e+21
-12.141  1.99564e+21
-12.0237  2.06517e+21
-11.9064  2.1359e+21
-11.7891  2.20765e+21
-11.6718  2.28051e+21
-11.5544  2.35457e+21
-11.4371  2.42998e+21
-11.3198  2.50749e+21
-11.2025  2.58765e+21
-11.0852  2.67143e+21
-10.9679  2.75969e+21
-10.8506  2.85322e+21
-10.7333  2.9526e+21
-10.616  3.05828e+21
-10.4987  3.17044e+21
-10.3814  3.28844e+21
-10.2641  3.4115e+21
-10.1468  3.53889e+21
-10.0295  3.66887e+21
-9.91217  3.79979e+21
-9.79487  3.93037e+21
-9.67756  4.05908e+21
-9.56026  4.18455e+21
-9.44295  4.30589e+21
-9.32565  4.42315e+21
-9.20834  4.53618e+21
-9.09104  4.64587e+21
-8.97373  4.75332e+21
-8.85643  4.86067e+21
-8.73913  4.96956e+21
-8.62182  5.08223e+21
-8.50452  5.20063e+21
-8.38721  5.32701e+21
-8.26991  5.46235e+21
-8.1526  5.60801e+21
-8.03529  5.764e+21
-7.91799  5.93048e+21
-7.80069  6.10687e+21
-7.68338  6.2919e+21
-7.56608  6.4849e+21
-7.44877  6.68456e+21
-7.33146  6.88968e+21
-7.21416  7.09916e+21
-7.09685  7.31223e+21
-6.97955  7.52785e+21
-6.86224  7.74532e+21
-6.74494  7.96374e+21
-6.62763  8.18148e+21
-6.51033  8.39745e+21
-6.39302  8.60983e+21
-6.27572  8.81657e+21
-6.15842  9.0158e+21
-6.04111  9.20525e+21
-5.92381  9.38284e+21
-5.8065  9.54734e+21
-5.68919  9.69744e+21
-5.57189  9.83303e+21
-5.45458  9.95479e+21
-5.33728  1.00646e+22
-5.21997  1.01645e+22
-5.10267  1.02583e+22
-4.98536  1.03497e+22
-4.86806  1.04429e+22
-4.75075  1.0542e+22
-4.63345  1.0651e+22
-4.51614  1.07725e+22
-4.39884  1.09086e+22
-4.28154  1.106e+22
-4.16423  1.12266e+22
-4.04692  1.1406e+22
-3.92962  1.15959e+22
-3.81231  1.1793e+22
-3.69501  1.19927e+22
-3.5777  1.21912e+22
-3.4604  1.23841e+22
-3.34309  1.25677e+22
-3.22579  1.27387e+22
-3.10849  1.28956e+22
-2.99118  1.3037e+22
-2.87387  1.31632e+22
-2.75657  1.32753e+22
-2.63926  1.33755e+22
-2.52196  1.34667e+22
-2.40465  1.35521e+22
-2.28735  1.36348e+22
-2.17005  1.37184e+22
-2.05274  1.3806e+22
-1.93544  1.3899e+22
-1.81813  1.39994e+22
-1.70083  1.41078e+22
-1.58352  1.42236e+22
-1.46622  1.4346e+22
-1.34891  1.44729e+22
-1.2316  1.46021e+22
-1.1143  1.4731e+22
-0.996995  1.48565e+22
-0.87969  1.49762e+22
-0.762385  1.50863e+22
-0.64508  1.51852e+22
-0.527775  1.52705e+22
-0.41047  1.53403e+22
-0.293165  1.53932e+22
-0.17586  1.54288e+22
-0.058555  1.54462e+22
0.05875  1.54451e+22
0.176055  1.54257e+22
0.29336  1.53881e+22
0.410665  1.53331e+22
0.52797  1.52614e+22
0.645275  1.51743e+22
0.76258  1.50737e+22
0.879885  1.4962e+22
0.99719  1.48412e+22
1.1145  1.47144e+22
1.2318  1.45844e+22
1.3491  1.44543e+22
1.46641  1.43265e+22
1.58371  1.42034e+22
1.70102  1.40871e+22
1.81832  1.39782e+22
1.93563  1.38774e+22
2.05294  1.37839e+22
2.17024  1.36965e+22
2.28754  1.36128e+22
2.40485  1.35298e+22
2.52216  1.34444e+22
2.63946  1.33533e+22
2.75677  1.32531e+22
2.87407  1.31409e+22
2.99137  1.30147e+22
3.10868  1.28733e+22
3.22599  1.27163e+22
3.34329  1.2545e+22
3.4606  1.23613e+22
3.5779  1.21682e+22
3.69521  1.19696e+22
3.81251  1.17696e+22
3.92982  1.15722e+22
4.04712  1.13817e+22
4.16443  1.12019e+22
4.28173  1.1035e+22
4.39903  1.08829e+22
4.51634  1.07464e+22
4.63364  1.06244e+22
4.75095  1.05149e+22
4.86825  1.0415e+22
4.98556  1.03212e+22
5.10286  1.02293e+22
5.22017  1.01345e+22
5.33748  1.00337e+22
5.45478  9.92319e+21
5.57209  9.8005e+21
5.68939  9.66384e+21
5.8067  9.51264e+21
5.924  9.34706e+21
6.0413  9.16851e+21
6.15861  8.97823e+21
6.27591  8.77806e+21
6.39322  8.57059e+21
6.51052  8.35758e+21
6.62783  8.14107e+21
6.74514  7.9229e+21
6.86244  7.70456e+21
6.97975  7.48715e+21
7.09705  7.27183e+21
7.21436  7.05936e+21
7.33166  6.85034e+21
7.44897  6.64621e+21
7.56627  6.44766e+21
7.68358  6.25572e+21
7.80088  6.07166e+21
7.91819  5.89639e+21
8.03549  5.73106e+21
8.1528  5.57618e+21
8.2701  5.43144e+21
8.38741  5.29689e+21
8.50471  5.17125e+21
8.62202  5.05347e+21
8.73932  4.94119e+21
8.85662  4.83277e+21
8.97393  4.72599e+21
9.09123  4.61878e+21
9.20854  4.50954e+21
9.32584  4.39694e+21
9.44315  4.28029e+21
9.56045  4.1593e+21
9.67776  4.03453e+21
9.79506  3.90645e+21
9.91237  3.77656e+21
10.0297  3.6463e+21
10.147  3.5172e+21
10.2643  3.39061e+21
10.3816  3.26816e+21
10.4989  3.15079e+21
10.6162  3.03929e+21
10.7335  2.93401e+21
10.8508  2.83507e+21
10.9681  2.74191e+21
11.0854  2.65409e+21
11.2027  2.57066e+21
11.32  2.49075e+21
11.4373  2.41361e+21
11.5546  2.33839e+21
11.6719  2.26461e+21
11.7893  2.1922e+21
11.9066  2.12075e+21
12.0239  2.05026e+21
12.1412  1.98124e+21
12.2585  1.91347e+21
12.3758  1.84741e+21
12.4931  1.78295e+21
12.6104  1.72011e+21
12.7277  1.65865e+21
12.845  1.59824e+21
12.9623  1.53856e+21
13.0796  1.47943e+21
13.1969  1.42025e+21
13.3142  1.3614e+21
13.4315  1.30283e+21
13.5488  1.24508e+21
13.6661  1.18904e+21
13.7834  1.13571e+21
13.9007  1.08623e+21
14.018  1.04175e+21
14.1354  1.00347e+21
14.2527  9.72127e+20
14.37  9.48148e+20
14.4873  9.31546e+20
14.6046  9.2183e+20
14.7219  9.18073e+20
14.8392  9.18985e+20
14.9565  9.2281e+20
15.0738  9.27906e+20
15.1911  9.32181e+20
15.3084  9.3396e+20
15.4257  9.31482e+20
15.543  9.23513e+20
15.6603  9.08986e+20
15.7776  8.87339e+20
15.8949  8.58447e+20
16.0122  8.22756e+20
16.1295  7.80866e+20
16.2468  7.34015e+20
16.3641  6.83649e+20
16.4815  6.31334e+20
16.5988  5.78832e+20
16.7161  5.27812e+20
16.8334  4.79813e+20
16.9507  4.36155e+20
17.068  3.9798e+20
17.1853  3.66069e+20
17.3026  3.40957e+20
17.4199  3.22752e+20
17.5372  3.11337e+20
17.6545  3.06375e+20
17.7718  3.06982e+20
17.8891  3.12134e+20
18.0064  3.20598e+20
18.1237  3.30906e+20
18.241  3.41479e+20
18.3583  3.50936e+20
18.4756  3.58044e+20
18.5929  3.61766e+20
18.7102  3.61455e+20
18.8275  3.57111e+20
18.9449  3.48719e+20
19.0622  3.36788e+20
19.1795  3.22008e+20
19.2968  3.0506e+20
19.4141  2.86742e+20
19.5314  2.67684e+20
19.6487  2.48533e+20
19.766  2.29864e+20
19.8833  2.11964e+20
20.0006  1.95326e+20
20.1179  1.80144e+20
20.2352  1.66625e+20
20.3525  1.54811e+20
20.4698  1.44688e+20
20.5871  1.36186e+20
20.7044  1.29114e+20
20.8217  1.23272e+20
20.939  1.18449e+20
21.0563  1.14481e+20
21.1736  1.113e+20
21.291  1.0888e+20
21.4083  1.0725e+20
21.5256  1.06319e+20
21.6429  1.06069e+20
21.7602  1.06299e+20
21.8775  1.06751e+20
21.9948  1.07093e+20
22.1121  1.07036e+20
22.2294  1.06216e+20
22.3467  1.04508e+20
22.464  1.01745e+20
22.5813  9.80283e+19
22.6986  9.3511e+19
22.8159  8.84229e+19
22.9332  8.30226e+19
23.0505  7.75786e+19
23.1678  7.23152e+19
23.2851  6.74318e+19
23.4024  6.31046e+19
23.5198  5.94192e+19
23.6371  5.64444e+19
23.7544  5.41947e+19
23.8717  5.26144e+19
23.989  5.16012e+19
24.1063  5.09195e+19
24.2236  5.03561e+19
24.3409  4.96454e+19
24.4582  4.8532e+19
24.5755  4.68575e+19
24.6928  4.45245e+19
24.8101  4.15853e+19
24.9274  3.81945e+19
25.0447  3.46013e+19
25.162  3.11222e+19
25.2793  2.80872e+19
25.3966  2.57916e+19
25.5139  2.44927e+19
25.6312  2.4344e+19
25.7485  2.53961e+19
25.8658  2.75831e+19
25.9832  3.06996e+19
26.1005  3.45201e+19
26.2178  3.86734e+19
26.3351  4.27805e+19
26.4524  4.65239e+19
26.5697  4.96504e+19
26.687  5.20237e+19
26.8043  5.36857e+19
26.9216  5.4811e+19
27.0389  5.56764e+19
27.1562  5.66535e+19
27.2735  5.80433e+19
27.3908  6.00436e+19
27.5081  6.26953e+19
27.6254  6.58061e+19
27.7427  6.90637e+19
27.86  7.19379e+19
27.9773  7.39316e+19
28.0946  7.45611e+19
28.212  7.346e+19
28.3293  7.05007e+19
28.4466  6.57006e+19
28.5639  5.93047e+19
28.6812  5.17582e+19
28.7985  4.35508e+19
28.9158  3.52292e+19
29.0331  2.73421e+19
29.1504  2.0324e+19
29.2677  1.45505e+19
29.385  1.0213e+19
29.5023  7.39231e+18
29.6196  6.00784e+18
29.7369  5.87764e+18
29.8542  6.70761e+18
29.9715  8.1476e+18
30.0888  9.85273e+18
30.2061  1.1495e+19
30.3234  1.28226e+19
30.4407  1.36855e+19
30.558  1.40337e+19
30.6754  1.39061e+19
30.7927  1.33872e+19
30.91  1.26129e+19
31.0273  1.16954e+19
31.1446  1.07351e+19
31.2619  9.77615e+18
31.3792  8.85773e+18
31.4965  7.9835e+18
31.6138  7.16652e+18
31.7311  6.42161e+18
31.8484  5.7848e+18
31.9657  5.29213e+18
32.083  4.9669e+18
32.2003  4.82334e+18
32.3176  4.85295e+18
32.4349  5.00431e+18
32.5522  5.22967e+18
32.6695  5.45536e+18
32.7868  5.62622e+18
32.9042  5.69533e+18
33.0215  5.64393e+18
33.1388  5.47649e+18
33.2561  5.2151e+18
33.3734  4.89473e+18
33.4907  4.56553e+18
33.608  4.29537e+18
33.7253  4.15356e+18
33.8426  4.19472e+18
33.9599  4.50184e+18
34.0772  5.09999e+18
34.1945  6.01152e+18
34.3118  7.20132e+18
34.4291  8.60141e+18
34.5464  1.00997e+19
34.6637  1.15812e+19
34.781  1.29445e+19
34.8983  1.41164e+19
35.0156  1.50721e+19
35.1329  1.58248e+19
35.2503  1.64064e+19
35.3676  1.68388e+19
35.4849  1.71021e+19
35.6022  1.7141e+19
35.7195  1.6851e+19
35.8368  1.61508e+19
35.9541  1.49816e+19
36.0714  1.34338e+19
36.1887  1.17411e+19
36.306  1.02605e+19
36.4233  9.47477e+18
36.5406  9.88043e+18
36.6579  1.1844e+19
36.7752  1.55175e+19
36.8925  2.07244e+19
37.0098  2.69869e+19
37.1271  3.35093e+19
37.2444  3.9406e+19
37.3617  4.37739e+19
37.479  4.59161e+19
37.5964  4.55316e+19
37.7137  4.27706e+19
37.831  3.81387e+19
37.9483  3.25512e+19
38.0656  2.69729e+19
38.1829  2.24052e+19
38.3002  1.95384e+19
38.4175  1.87255e+19
38.5348  1.99231e+19
38.6521  2.26937e+19
38.7694  2.63723e+19
38.8867  3.0198e+19
39.004  3.34478e+19
39.1213  3.56002e+19
39.2386  3.63375e+19
39.3559  3.55904e+19
39.4732  3.3484e+19
39.5905  3.03144e+19
39.7078  2.63994e+19
39.8251  2.20842e+19
39.9425  1.76636e+19
40.0598  1.34102e+19
40.1771  9.58215e+18
40.2944  6.37682e+18
40.4117  3.95422e+18
40.529  2.44148e+18
40.6463  1.88398e+18
40.7636  2.24643e+18
40.8809  3.40463e+18
40.9982  5.15247e+18
41.1155  7.241e+18
41.2328  9.40696e+18
41.3501  1.14162e+19
41.4674  1.30721e+19
41.5847  1.42488e+19
41.702  1.48714e+19
41.8193  1.49076e+19
41.9366  1.43727e+19
42.0539  1.33055e+19
42.1712  1.17809e+19
42.2885  9.94247e+18
42.4059  8.01096e+18
42.5232  6.24454e+18
42.6405  4.93207e+18
42.7578  4.34044e+18
42.8751  4.64377e+18
42.9924  5.86813e+18
43.1097  7.84917e+18
43.227  1.02638e+19
43.3443  1.26603e+19
43.4616  1.45577e+19
43.5789  1.55715e+19
43.6962  1.54795e+19
43.8135  1.42827e+19
43.9308  1.21966e+19
44.0481  9.59777e+18
44.1654  6.923e+18
44.2827  4.583e+18
44.4  2.84141e+18
44.5173  1.79656e+18
44.6347  1.38718e+18
44.752  1.45503e+18
44.8693  1.82193e+18
44.9866  2.35808e+18
45.1039  3.04167e+18
45.2212  3.93445e+18
45.3385  5.15133e+18
45.4558  6.77786e+18
45.5731  8.8109e+18
45.6904  1.10956e+19
45.8077  1.33539e+19
45.925  1.52199e+19
46.0423  1.63385e+19
46.1596  1.64609e+19
46.2769  1.55008e+19
46.3942  1.36278e+19
46.5115  1.11419e+19
46.6288  8.51961e+18
46.7461  6.21413e+18
46.8634  4.61563e+18
46.9808  3.93993e+18
47.0981  4.18952e+18
47.2154  5.19772e+18
47.3327  6.65324e+18
47.45  8.21668e+18
47.5673  9.56892e+18
47.6846  1.04894e+19
47.8019  1.09291e+19
47.9192  1.09322e+19
48.0365  1.06663e+19
48.1538  1.03477e+19
48.2711  1.01738e+19
48.3884  1.03072e+19
48.5057  1.08141e+19
48.623  1.16809e+19
48.7403  1.27737e+19
48.8576  1.3935e+19
48.9749  1.49752e+19
49.0922  1.57121e+19
49.2095  1.6042e+19
49.3269  1.59754e+19
49.4442  1.55882e+19
49.5615  1.50795e+19
49.6788  1.46872e+19
49.7961  1.46678e+19
49.9134  1.51985e+19
50.0307  1.63458e+19
50.148  1.80101e+19
50.2653  1.99593e+19
50.3826  2.18367e+19
50.4999  2.3205e+19
50.6172  2.37144e+19
50.7345  2.31015e+19
50.8518  2.12976e+19
50.9691  1.84074e+19
