#S 1 spectral density
#N 2
#UFWHM 18.4169
#L  abscissas [um]  spectral density
-58.5938  7.21305e+18
-58.4764  6.13744e+18
-58.3591  5.31708e+18
-58.2418  4.92714e+18
-58.1245  4.96086e+18
-58.0072  5.25344e+18
-57.8899  5.56353e+18
-57.7726  5.6469e+18
-57.6553  5.33306e+18
-57.538  4.6016e+18
-57.4207  3.57613e+18
-57.3034  2.47348e+18
-57.1861  1.54914e+18
-57.0688  1.01638e+18
-56.9515  9.80401e+17
-56.8342  1.42079e+18
-56.7169  2.20983e+18
-56.5996  3.16534e+18
-56.4823  4.1097e+18
-56.365  4.93083e+18
-56.2477  5.57352e+18
-56.1303  6.07969e+18
-56.013  6.50352e+18
-55.8957  6.90306e+18
-55.7784  7.26629e+18
-55.6611  7.54547e+18
-55.5438  7.65035e+18
-55.4265  7.48388e+18
-55.3092  7.01199e+18
-55.1919  6.27797e+18
-55.0746  5.43477e+18
-54.9573  4.69405e+18
-54.84  4.3085e+18
-54.7227  4.47047e+18
-54.6054  5.28659e+18
-54.4881  6.70784e+18
-54.3708  8.5425e+18
-54.2535  1.05165e+19
-54.1362  1.2307e+19
-54.0189  1.36138e+19
-53.9016  1.42213e+19
-53.7842  1.40506e+19
-53.6669  1.31278e+19
-53.5496  1.16476e+19
-53.4323  9.83402e+18
-53.315  7.96085e+18
-53.1977  6.26655e+18
-53.0804  4.92566e+18
-52.9631  4.06451e+18
-52.8458  3.70138e+18
-52.7285  3.7831e+18
-52.6112  4.19933e+18
-52.4939  4.79131e+18
-52.3766  5.38331e+18
-52.2593  5.80685e+18
-52.142  5.94641e+18
-52.0247  5.74301e+18
-51.9074  5.20989e+18
-51.7901  4.44438e+18
-51.6728  3.60456e+18
-51.5555  2.85746e+18
-51.4381  2.38311e+18
-51.3208  2.28832e+18
-51.2035  2.60611e+18
-51.0862  3.28763e+18
-50.9689  4.18893e+18
-50.8516  5.12757e+18
-50.7343  5.93442e+18
-50.617  6.44103e+18
-50.4997  6.55913e+18
-50.3824  6.28492e+18
-50.2651  5.65569e+18
-50.1478  4.81017e+18
-50.0305  3.85867e+18
-49.9132  2.95454e+18
-49.7959  2.18989e+18
-49.6786  1.63482e+18
-49.5613  1.32374e+18
-49.444  1.24024e+18
-49.3267  1.3496e+18
-49.2094  1.59353e+18
-49.092  1.90011e+18
-48.9747  2.20758e+18
-48.8574  2.4627e+18
-48.7401  2.63459e+18
-48.6228  2.72849e+18
-48.5055  2.77964e+18
-48.3882  2.84237e+18
-48.2709  2.99614e+18
-48.1536  3.29227e+18
-48.0363  3.75078e+18
-47.919  4.34064e+18
-47.8017  4.98048e+18
-47.6844  5.55153e+18
-47.5671  5.92947e+18
-47.4498  6.02342e+18
-47.3325  5.78779e+18
-47.2152  5.26126e+18
-47.0979  4.52541e+18
-46.9806  3.71068e+18
-46.8633  2.93453e+18
-46.7459  2.26461e+18
-46.6286  1.72646e+18
-46.5113  1.29041e+18
-46.394  9.06515e+17
-46.2767  5.50326e+17
-46.1594  2.52594e+17
-46.0421  1.21247e+17
-45.9248  3.1981e+17
-45.8075  1.01943e+18
-45.6902  2.33e+18
-45.5729  4.23557e+18
-45.4556  6.56026e+18
-45.3383  8.97585e+18
-45.221  1.10807e+19
-45.1037  1.24589e+19
-44.9864  1.28545e+19
-44.8691  1.221e+19
-44.7518  1.07285e+19
-44.6345  8.85526e+18
-44.5172  7.19665e+18
-44.3998  6.3332e+18
-44.2825  6.70934e+18
-44.1652  8.49548e+18
-44.0479  1.15357e+19
-43.9306  1.53879e+19
-43.8133  1.93799e+19
-43.696  2.27766e+19
-43.5787  2.49648e+19
-43.4614  2.55631e+19
-43.3441  2.44516e+19
-43.2268  2.18424e+19
-43.1095  1.81698e+19
-42.9922  1.40145e+19
-42.8749  9.92161e+18
-42.7576  6.36902e+18
-42.6403  3.66836e+18
-42.523  1.93098e+18
-42.4057  1.11553e+18
-42.2884  1.05971e+18
-42.171  1.54278e+18
-42.0537  2.34679e+18
-41.9364  3.27755e+18
-41.8191  4.19246e+18
-41.7018  5.0074e+18
-41.5845  5.68028e+18
-41.4672  6.22345e+18
-41.3499  6.67423e+18
-41.2326  7.07605e+18
-41.1153  7.48941e+18
-40.998  7.94316e+18
-40.8807  8.43486e+18
-40.7634  8.9117e+18
-40.6461  9.27964e+18
-40.5288  9.42407e+18
-40.4115  9.221e+18
-40.2942  8.62379e+18
-40.1769  7.64851e+18
-40.0596  6.42667e+18
-39.9423  5.18355e+18
-39.825  4.19206e+18
-39.7076  3.71117e+18
-39.5903  3.8878e+18
-39.473  4.75255e+18
-39.3557  6.13149e+18
-39.2384  7.73339e+18
-39.1211  9.17434e+18
-39.0038  1.00715e+19
-38.8865  1.01758e+19
-38.7692  9.43514e+18
-38.6519  7.97723e+18
-38.5346  6.13797e+18
-38.4173  4.33141e+18
-38.3  2.97854e+18
-38.1827  2.36452e+18
-38.0654  2.58225e+18
-37.9481  3.5092e+18
-37.8308  4.8356e+18
-37.7135  6.16175e+18
-37.5962  7.10574e+18
-37.4789  7.40449e+18
-37.3615  6.98e+18
-37.2442  5.97035e+18
-37.1269  4.62998e+18
-37.0096  3.33269e+18
-36.8923  2.37951e+18
-36.775  1.97682e+18
-36.6577  2.16197e+18
-36.5404  2.80338e+18
-36.4231  3.65872e+18
-36.3058  4.44202e+18
-36.1885  4.91592e+18
-36.0712  4.94067e+18
-35.9539  4.51721e+18
-35.8366  3.75851e+18
-35.7193  2.8691e+18
-35.602  2.03987e+18
-35.4847  1.4337e+18
-35.3674  1.11973e+18
-35.2501  1.07649e+18
-35.1328  1.20999e+18
-35.0154  1.40913e+18
-34.8981  1.5734e+18
-34.7808  1.66381e+18
-34.6635  1.71e+18
-34.5462  1.7916e+18
-34.4289  2.01364e+18
-34.3116  2.46838e+18
-34.1943  3.19739e+18
-34.077  4.16583e+18
-33.9597  5.28636e+18
-33.8424  6.41719e+18
-33.7251  7.41036e+18
-33.6078  8.13263e+18
-33.4905  8.499e+18
-33.3732  8.4914e+18
-33.2559  8.13696e+18
-33.1386  7.52099e+18
-33.0213  6.74821e+18
-32.904  5.92619e+18
-32.7867  5.15691e+18
-32.6693  4.52567e+18
-32.552  4.07925e+18
-32.4347  3.85032e+18
-32.3174  3.81657e+18
-32.2001  3.94311e+18
-32.0828  4.15557e+18
-31.9655  4.35705e+18
-31.8482  4.46044e+18
-31.7309  4.36986e+18
-31.6136  4.05356e+18
-31.4963  3.50947e+18
-31.379  2.80546e+18
-31.2617  2.05132e+18
-31.1444  1.39767e+18
-31.0271  1.00001e+18
-30.9098  9.71272e+17
-30.7925  1.37339e+18
-30.6752  2.18568e+18
-30.5579  3.31079e+18
-30.4406  4.59506e+18
-30.3232  5.86594e+18
-30.2059  6.91501e+18
-30.0886  7.6064e+18
-29.9713  7.85168e+18
-29.854  7.62078e+18
-29.7367  6.94738e+18
-29.6194  5.94791e+18
-29.5021  4.7662e+18
-29.3848  3.56401e+18
-29.2675  2.51548e+18
-29.1502  1.78464e+18
-29.0329  1.49204e+18
-28.9156  1.70697e+18
-28.7983  2.44125e+18
-28.681  3.62703e+18
-28.5637  5.14941e+18
-28.4464  6.82154e+18
-28.3291  8.45648e+18
-28.2118  9.8834e+18
-28.0944  1.09507e+19
-27.9771  1.15781e+19
-27.8598  1.17617e+19
-27.7425  1.1546e+19
-27.6252  1.10535e+19
-27.5079  1.03732e+19
-27.3906  9.61947e+18
-27.2733  8.8531e+18
-27.156  8.10566e+18
-27.0387  7.39627e+18
-26.9214  6.70066e+18
-26.8041  6.02347e+18
-26.6868  5.37402e+18
-26.5695  4.78768e+18
-26.4522  4.30367e+18
-26.3349  3.95503e+18
-26.2176  3.75006e+18
-26.1003  3.68308e+18
-25.983  3.70311e+18
-25.8657  3.75141e+18
-25.7483  3.77538e+18
-25.631  3.7263e+18
-25.5137  3.6132e+18
-25.3964  3.44893e+18
-25.2791  3.2764e+18
-25.1618  3.14628e+18
-25.0445  3.08743e+18
-24.9272  3.1022e+18
-24.8099  3.16974e+18
-24.6926  3.25308e+18
-24.5753  3.29925e+18
-24.458  3.30511e+18
-24.3407  3.27384e+18
-24.2234  3.25028e+18
-24.1061  3.29602e+18
-23.9888  3.48976e+18
-23.8715  3.89249e+18
-23.7542  4.54747e+18
-23.6369  5.4695e+18
-23.5196  6.64857e+18
-23.4023  8.07207e+18
-23.2849  9.70358e+18
-23.1676  1.15118e+19
-23.0503  1.34631e+19
-22.933  1.54662e+19
-22.8157  1.74698e+19
-22.6984  1.93405e+19
-22.5811  2.09602e+19
-22.4638  2.22445e+19
-22.3465  2.30748e+19
-22.2292  2.34723e+19
-22.1119  2.34788e+19
-21.9946  2.32231e+19
-21.8773  2.28294e+19
-21.76  2.24241e+19
-21.6427  2.20975e+19
-21.5254  2.18349e+19
-21.4081  2.15211e+19
-21.2908  2.09832e+19
-21.1735  2.00148e+19
-21.0561  1.84734e+19
-20.9388  1.62969e+19
-20.8215  1.36061e+19
-20.7042  1.05731e+19
-20.5869  7.54021e+18
-20.4696  4.8589e+18
-20.3523  2.84915e+18
-20.235  1.7295e+18
-20.1177  1.57521e+18
-20.0004  2.30949e+18
-19.8831  3.72455e+18
-19.7658  5.53676e+18
-19.6485  7.42163e+18
-19.5312  9.1079e+18
-19.4139  1.03548e+19
-19.2966  1.10446e+19
-19.1793  1.11365e+19
-19.062  1.06864e+19
-18.9447  9.81058e+18
-18.8274  8.703e+18
-18.71  7.62018e+18
-18.5927  6.86111e+18
-18.4754  6.76085e+18
-18.3581  7.63937e+18
-18.2408  9.8123e+18
-18.1235  1.34901e+19
-18.0062  1.87791e+19
-17.8889  2.56232e+19
-17.7716  3.37682e+19
-17.6543  4.29229e+19
-17.537  5.25637e+19
-17.4197  6.22429e+19
-17.3024  7.14491e+19
-17.1851  7.98075e+19
-17.0678  8.70462e+19
-16.9505  9.295e+19
-16.8332  9.74461e+19
-16.7159  1.00528e+20
-16.5986  1.02265e+20
-16.4813  1.02706e+20
-16.364  1.01933e+20
-16.2466  9.995e+19
-16.1293  9.68455e+19
-16.012  9.26878e+19
-15.8947  8.75956e+19
-15.7774  8.16681e+19
-15.6601  7.50681e+19
-15.5428  6.79401e+19
-15.4255  6.05099e+19
-15.3082  5.29316e+19
-15.1909  4.53797e+19
-15.0736  3.80992e+19
-14.9563  3.13408e+19
-14.839  2.53747e+19
-14.7217  2.0593e+19
-14.6044  1.73866e+19
-14.4871  1.61866e+19
-14.3698  1.7412e+19
-14.2525  2.14747e+19
-14.1352  2.86914e+19
-14.0178  3.93157e+19
-13.9005  5.35147e+19
-13.7832  7.14148e+19
-13.6659  9.31634e+19
-13.5486  1.18946e+20
-13.4313  1.49034e+20
-13.314  1.8392e+20
-13.1967  2.24307e+20
-13.0794  2.71105e+20
-12.9621  3.25351e+20
-12.8448  3.88362e+20
-12.7275  4.61298e+20
-12.6102  5.4544e+20
-12.4929  6.41899e+20
-12.3756  7.51298e+20
-12.2583  8.74297e+20
-12.141  1.01092e+21
-12.0237  1.1608e+21
-11.9064  1.32311e+21
-11.7891  1.49673e+21
-11.6718  1.68017e+21
-11.5544  1.87198e+21
-11.4371  2.07084e+21
-11.3198  2.27497e+21
-11.2025  2.48353e+21
-11.0852  2.69578e+21
-10.9679  2.91146e+21
-10.8506  3.13078e+21
-10.7333  3.35411e+21
-10.616  3.58245e+21
-10.4987  3.8173e+21
-10.3814  4.05929e+21
-10.2641  4.30997e+21
-10.1468  4.57036e+21
-10.0295  4.84143e+21
-9.91217  5.12346e+21
-9.79487  5.41695e+21
-9.67756  5.72157e+21
-9.56026  6.03671e+21
-9.44295  6.36131e+21
-9.32565  6.69467e+21
-9.20834  7.03492e+21
-9.09104  7.38049e+21
-8.97373  7.72993e+21
-8.85643  8.08149e+21
-8.73913  8.43325e+21
-8.62182  8.78355e+21
-8.50452  9.13082e+21
-8.38721  9.47354e+21
-8.26991  9.80977e+21
-8.1526  1.01381e+22
-8.03529  1.04565e+22
-7.91799  1.07632e+22
-7.80069  1.10568e+22
-7.68338  1.13352e+22
-7.56608  1.15973e+22
-7.44877  1.1842e+22
-7.33146  1.20683e+22
-7.21416  1.22757e+22
-7.09685  1.24644e+22
-6.97955  1.26345e+22
-6.86224  1.27871e+22
-6.74494  1.29237e+22
-6.62763  1.30451e+22
-6.51033  1.31533e+22
-6.39302  1.32501e+22
-6.27572  1.33371e+22
-6.15842  1.34161e+22
-6.04111  1.34881e+22
-5.92381  1.35542e+22
-5.8065  1.36155e+22
-5.68919  1.36716e+22
-5.57189  1.37222e+22
-5.45458  1.37668e+22
-5.33728  1.38043e+22
-5.21997  1.38331e+22
-5.10267  1.3852e+22
-4.98536  1.38594e+22
-4.86806  1.38536e+22
-4.75075  1.38331e+22
-4.63345  1.37975e+22
-4.51614  1.37457e+22
-4.39884  1.36773e+22
-4.28154  1.35929e+22
-4.16423  1.34932e+22
-4.04692  1.3379e+22
-3.92962  1.32523e+22
-3.81231  1.3115e+22
-3.69501  1.29695e+22
-3.5777  1.28177e+22
-3.4604  1.26625e+22
-3.34309  1.25054e+22
-3.22579  1.23489e+22
-3.10849  1.21946e+22
-2.99118  1.20438e+22
-2.87387  1.18978e+22
-2.75657  1.17572e+22
-2.63926  1.16226e+22
-2.52196  1.1494e+22
-2.40465  1.13719e+22
-2.28735  1.12559e+22
-2.17005  1.1146e+22
-2.05274  1.10423e+22
-1.93544  1.09444e+22
-1.81813  1.08526e+22
-1.70083  1.0767e+22
-1.58352  1.06877e+22
-1.46622  1.0615e+22
-1.34891  1.05491e+22
-1.2316  1.049e+22
-1.1143  1.0438e+22
-0.996995  1.0393e+22
-0.87969  1.03546e+22
-0.762385  1.03223e+22
-0.64508  1.0296e+22
-0.527775  1.02749e+22
-0.41047  1.02586e+22
-0.293165  1.02468e+22
-0.17586  1.0239e+22
-0.058555  1.0235e+22
0.05875  1.02348e+22
0.176055  1.02382e+22
0.29336  1.02455e+22
0.410665  1.02569e+22
0.52797  1.02728e+22
0.645275  1.02935e+22
0.76258  1.03196e+22
0.879885  1.03517e+22
0.99719  1.039e+22
1.1145  1.04352e+22
1.2318  1.04872e+22
1.3491  1.05463e+22
1.46641  1.06124e+22
1.58371  1.06854e+22
1.70102  1.07649e+22
1.81832  1.08507e+22
1.93563  1.09427e+22
2.05294  1.10407e+22
2.17024  1.11446e+22
2.28754  1.12545e+22
2.40485  1.13706e+22
2.52216  1.14928e+22
2.63946  1.16212e+22
2.75677  1.17558e+22
2.87407  1.18964e+22
2.99137  1.20425e+22
3.10868  1.21933e+22
3.22599  1.23476e+22
3.34329  1.25042e+22
3.4606  1.26615e+22
3.5779  1.28171e+22
3.69521  1.2969e+22
3.81251  1.31151e+22
3.92982  1.32526e+22
4.04712  1.33795e+22
4.16443  1.34941e+22
4.28173  1.35942e+22
4.39903  1.36789e+22
4.51634  1.37474e+22
4.63364  1.37996e+22
4.75095  1.38353e+22
4.86825  1.38556e+22
4.98556  1.38615e+22
5.10286  1.38542e+22
5.22017  1.3835e+22
5.33748  1.38062e+22
5.45478  1.37688e+22
5.57209  1.37245e+22
5.68939  1.36738e+22
5.8067  1.36182e+22
5.924  1.35573e+22
6.0413  1.34916e+22
6.15861  1.34201e+22
6.27591  1.33416e+22
6.39322  1.32553e+22
6.51052  1.31591e+22
6.62783  1.30512e+22
6.74514  1.293e+22
6.86244  1.27939e+22
6.97975  1.26413e+22
7.09705  1.24711e+22
7.21436  1.22825e+22
7.33166  1.20746e+22
7.44897  1.18482e+22
7.56627  1.16034e+22
7.68358  1.13409e+22
7.80088  1.10622e+22
7.91819  1.07684e+22
8.03549  1.04617e+22
8.1528  1.01435e+22
8.2701  9.81523e+21
8.38741  9.47926e+21
8.50471  9.13701e+21
8.62202  8.79003e+21
8.73932  8.44006e+21
8.85662  8.08892e+21
8.97393  7.73777e+21
9.09123  7.3887e+21
9.20854  7.04331e+21
9.32584  6.70334e+21
9.44315  6.37011e+21
9.56045  6.04521e+21
9.67776  5.73002e+21
9.79506  5.4252e+21
9.91237  5.13135e+21
10.0297  4.84886e+21
10.147  4.5775e+21
10.2643  4.31671e+21
10.3816  4.0655e+21
10.4989  3.82305e+21
10.6162  3.58788e+21
10.7335  3.35908e+21
10.8508  3.13529e+21
10.9681  2.91553e+21
11.0854  2.69961e+21
11.2027  2.48704e+21
11.32  2.27805e+21
11.4373  2.07351e+21
11.5546  1.87452e+21
11.6719  1.68236e+21
11.7893  1.49866e+21
11.9066  1.32487e+21
12.0239  1.16232e+21
12.1412  1.01229e+21
12.2585  8.75567e+20
12.3758  7.52412e+20
12.4931  6.42814e+20
12.6104  5.46268e+20
12.7277  4.62082e+20
12.845  3.89081e+20
12.9623  3.25985e+20
13.0796  2.71626e+20
13.1969  2.24775e+20
13.3142  1.84274e+20
13.4315  1.49302e+20
13.5488  1.19154e+20
13.6661  9.33271e+19
13.7834  7.15133e+19
13.9007  5.35669e+19
14.018  3.93499e+19
14.1354  2.87043e+19
14.2527  2.14781e+19
14.37  1.74222e+19
14.4873  1.62032e+19
14.6046  1.74223e+19
14.7219  2.06441e+19
14.8392  2.54337e+19
14.9565  3.13935e+19
15.0738  3.81632e+19
15.1911  4.543e+19
15.3084  5.29655e+19
15.4257  6.05422e+19
15.543  6.79715e+19
15.6603  7.5076e+19
15.7776  8.16489e+19
15.8949  8.75626e+19
16.0122  9.26481e+19
16.1295  9.68047e+19
16.2468  9.99118e+19
16.3641  1.01896e+20
16.4815  1.02663e+20
16.5988  1.02196e+20
16.7161  1.00476e+20
16.8334  9.734e+19
16.9507  9.28252e+19
17.068  8.69081e+19
17.1853  7.96676e+19
17.3026  7.13063e+19
17.4199  6.20804e+19
17.5372  5.23893e+19
17.6545  4.27742e+19
17.7718  3.36617e+19
17.8891  2.55256e+19
18.0064  1.87317e+19
18.1237  1.34829e+19
18.241  9.82595e+18
18.3583  7.6748e+18
18.4756  6.80767e+18
18.5929  6.91343e+18
18.7102  7.66205e+18
18.8275  8.7309e+18
18.9449  9.81774e+18
19.0622  1.06781e+19
19.1795  1.11073e+19
19.2968  1.0997e+19
19.4141  1.02862e+19
19.5314  9.029e+18
19.6487  7.34356e+18
19.766  5.45653e+18
19.8833  3.66406e+18
20.0006  2.26764e+18
20.1179  1.56206e+18
20.2352  1.7529e+18
20.3525  2.91314e+18
20.4698  4.96217e+18
20.5871  7.67738e+18
20.7044  1.07217e+19
20.8217  1.37574e+19
20.939  1.64578e+19
21.0563  1.86054e+19
21.1736  2.01356e+19
21.291  2.10776e+19
21.4083  2.16014e+19
21.5256  2.19087e+19
21.6429  2.21646e+19
21.7602  2.24757e+19
21.8775  2.2868e+19
21.9948  2.32498e+19
22.1121  2.35017e+19
22.2294  2.34945e+19
22.3467  2.30635e+19
22.464  2.22086e+19
22.5813  2.09231e+19
22.6986  1.92811e+19
22.8159  1.73988e+19
22.9332  1.53966e+19
23.0505  1.33882e+19
23.1678  1.14462e+19
23.2851  9.64147e+18
23.4024  8.02362e+18
23.5198  6.60955e+18
23.6371  5.43883e+18
23.7544  4.53211e+18
23.8717  3.88789e+18
23.989  3.4945e+18
24.1063  3.3081e+18
24.2236  3.2602e+18
24.3409  3.28024e+18
24.4582  3.30649e+18
24.5755  3.29056e+18
24.6928  3.23055e+18
24.8101  3.14351e+18
24.9274  3.07454e+18
25.0447  3.05681e+18
25.162  3.11268e+18
25.2793  3.24369e+18
25.3966  3.41191e+18
25.5139  3.57809e+18
25.6312  3.69193e+18
25.7485  3.73064e+18
25.8658  3.7087e+18
25.9832  3.65515e+18
26.1005  3.64307e+18
26.2178  3.72052e+18
26.3351  3.93183e+18
26.4524  4.29296e+18
26.5697  4.78856e+18
26.687  5.38102e+18
26.8043  6.02774e+18
26.9216  6.69756e+18
27.0389  7.38747e+18
27.1562  8.09096e+18
27.2735  8.83044e+18
27.3908  9.59186e+18
27.5081  1.03462e+19
27.6254  1.10313e+19
27.7427  1.15259e+19
27.86  1.17455e+19
27.9773  1.15709e+19
28.0946  1.09371e+19
28.212  9.87422e+18
28.3293  8.44201e+18
28.4466  6.80214e+18
28.5639  5.12793e+18
28.6812  3.61171e+18
28.7985  2.43402e+18
28.9158  1.71263e+18
29.0331  1.51114e+18
29.1504  1.82003e+18
29.2677  2.56546e+18
29.385  3.61821e+18
29.5023  4.82178e+18
29.6196  5.99654e+18
29.7369  6.98113e+18
29.8542  7.63492e+18
29.9715  7.84656e+18
30.0888  7.5872e+18
30.2061  6.86899e+18
30.3234  5.80429e+18
30.4407  4.54347e+18
30.558  3.26154e+18
30.6754  2.14532e+18
30.7927  1.34718e+18
30.91  9.61768e+17
31.0273  1.00018e+18
31.1446  1.40687e+18
31.2619  2.06162e+18
31.3792  2.81589e+18
31.4965  3.51994e+18
31.6138  4.06193e+18
31.7311  4.38088e+18
31.8484  4.47085e+18
31.9657  4.3739e+18
32.083  4.17357e+18
32.2003  3.96865e+18
32.3176  3.84574e+18
32.4349  3.88186e+18
32.5522  4.11427e+18
32.6695  4.55904e+18
32.7868  5.19016e+18
32.9042  5.95133e+18
33.0215  6.76714e+18
33.1388  7.52651e+18
33.2561  8.12951e+18
33.3734  8.46453e+18
33.4907  8.45827e+18
33.608  8.07875e+18
33.7253  7.34629e+18
33.8426  6.35313e+18
33.9599  5.225e+18
34.0772  4.11436e+18
34.1945  3.15599e+18
34.3118  2.4402e+18
34.4291  1.99474e+18
34.5464  1.77858e+18
34.6637  1.6963e+18
34.781  1.64809e+18
34.8983  1.55172e+18
35.0156  1.38431e+18
35.1329  1.18746e+18
35.2503  1.05531e+18
35.3676  1.10938e+18
35.4849  1.43039e+18
35.6022  2.03882e+18
35.7195  2.86654e+18
35.8368  3.75508e+18
35.9541  4.49652e+18
36.0714  4.91204e+18
36.1887  4.87317e+18
36.306  4.39087e+18
36.4233  3.60784e+18
36.5406  2.7622e+18
36.6579  2.13726e+18
36.7752  1.97462e+18
36.8925  2.3984e+18
37.0098  3.36959e+18
37.1271  4.68342e+18
37.2444  6.01583e+18
37.3617  7.01893e+18
37.479  7.4218e+18
37.5964  7.10948e+18
37.7137  6.14491e+18
37.831  4.81209e+18
37.9483  3.48265e+18
38.0656  2.56582e+18
38.1829  2.36019e+18
38.3002  2.98846e+18
38.4175  4.35647e+18
38.5348  6.16239e+18
38.6521  7.99972e+18
38.7694  9.44293e+18
38.8867  1.01703e+19
39.004  1.00428e+19
39.1213  9.12169e+18
39.2386  7.67854e+18
39.3559  6.07973e+18
39.4732  4.71142e+18
39.5905  3.87246e+18
39.7078  3.71675e+18
39.8251  4.228e+18
39.9425  5.24006e+18
40.0598  6.50401e+18
40.1771  7.72609e+18
40.2944  8.70198e+18
40.4117  9.29524e+18
40.529  9.48274e+18
40.6463  9.33358e+18
40.7636  8.9403e+18
40.8809  8.44656e+18
40.9982  7.94514e+18
41.1155  7.4769e+18
41.2328  7.0506e+18
41.3501  6.6312e+18
41.4674  6.17844e+18
41.5847  5.62475e+18
41.702  4.94089e+18
41.8193  4.12905e+18
41.9366  3.21482e+18
42.0539  2.29405e+18
42.1712  1.50616e+18
42.2885  1.04207e+18
42.4059  1.12708e+18
42.5232  1.97527e+18
42.6405  3.75041e+18
42.7578  6.48926e+18
42.8751  1.00694e+19
42.9924  1.41823e+19
43.1097  1.83612e+19
43.227  2.20224e+19
43.3443  2.4609e+19
43.4616  2.5687e+19
43.5789  2.50524e+19
43.6962  2.28189e+19
43.8135  1.93688e+19
43.9308  1.5357e+19
44.0481  1.15004e+19
44.1654  8.46187e+18
44.2827  6.68705e+18
44.4  6.32573e+18
44.5173  7.20203e+18
44.6347  8.86401e+18
44.752  1.07225e+19
44.8693  1.21756e+19
44.9866  1.28027e+19
45.1039  1.23777e+19
45.2212  1.09804e+19
45.3385  8.87764e+18
45.4558  6.45759e+18
45.5731  4.14745e+18
45.6904  2.26849e+18
45.8077  9.81924e+17
45.925  3.0475e+17
46.0423  1.2166e+17
46.1596  2.61261e+17
46.2769  5.60961e+17
46.3942  9.16116e+17
46.5115  1.29744e+18
46.6288  1.73433e+18
46.7461  2.27372e+18
46.8634  2.94506e+18
46.9808  3.72847e+18
47.0981  4.5391e+18
47.2154  5.26784e+18
47.3327  5.78199e+18
47.45  6.00817e+18
47.5673  5.9043e+18
47.6846  5.51786e+18
47.8019  4.94571e+18
47.9192  4.31002e+18
48.0365  3.72872e+18
48.1538  3.28113e+18
48.2711  2.99432e+18
48.3884  2.84863e+18
48.5057  2.7829e+18
48.623  2.72904e+18
48.7403  2.62619e+18
48.8576  2.45193e+18
48.9749  2.1944e+18
49.0922  1.88813e+18
49.2095  1.58576e+18
49.3269  1.35363e+18
49.4442  1.2531e+18
49.5615  1.34637e+18
49.6788  1.66901e+18
49.7961  2.22148e+18
49.9134  2.98699e+18
50.0307  3.89073e+18
50.148  4.8267e+18
50.2653  5.66932e+18
50.3826  6.28067e+18
50.4999  6.55458e+18
50.6172  6.42951e+18
50.7345  5.91754e+18
50.8518  5.11347e+18
50.9691  4.17244e+18
