#S 1 spectral density
#N 2
#UFWHM 14.0766
#L  abscissas [um]  spectral density
-58.5938  3.6867e+18
-58.4764  5.34607e+18
-58.3591  7.4299e+18
-58.2418  9.7494e+18
-58.1245  1.20136e+19
-58.0072  1.38364e+19
-57.8899  1.4909e+19
-57.7726  1.50075e+19
-57.6553  1.40996e+19
-57.538  1.2373e+19
-57.4207  1.02015e+19
-57.3034  8.03713e+18
-57.1861  6.33963e+18
-57.0688  5.43498e+18
-56.9515  5.45702e+18
-56.8342  6.31963e+18
-56.7169  7.76048e+18
-56.5996  9.40147e+18
-56.4823  1.08703e+19
-56.365  1.1888e+19
-56.2477  1.22767e+19
-56.1303  1.20645e+19
-56.013  1.13636e+19
-55.8957  1.03797e+19
-55.7784  9.29465e+18
-55.6611  8.27842e+18
-55.5438  7.42617e+18
-55.4265  6.76689e+18
-55.3092  6.29556e+18
-55.1919  5.99876e+18
-55.0746  5.88268e+18
-54.9573  5.95592e+18
-54.84  6.25006e+18
-54.7227  6.75994e+18
-54.6054  7.46218e+18
-54.4881  8.26402e+18
-54.3708  9.0151e+18
-54.2535  9.57476e+18
-54.1362  9.79751e+18
-54.0189  9.57502e+18
-53.9016  8.89225e+18
-53.7842  7.82222e+18
-53.6669  6.48596e+18
-53.5496  5.10126e+18
-53.4323  3.88696e+18
-53.315  3.06711e+18
-53.1977  2.81872e+18
-53.0804  3.26273e+18
-52.9631  4.43077e+18
-52.8458  6.26645e+18
-52.7285  8.62902e+18
-52.6112  1.12788e+19
-52.4939  1.391e+19
-52.3766  1.61912e+19
-52.2593  1.78132e+19
-52.142  1.8527e+19
-52.0247  1.81997e+19
-51.9074  1.68489e+19
-51.7901  1.46462e+19
-51.6728  1.19103e+19
-51.5555  9.00439e+18
-51.4381  6.34041e+18
-51.3208  4.23271e+18
-51.2035  2.89428e+18
-51.0862  2.37444e+18
-50.9689  2.59671e+18
-50.8516  3.37287e+18
-50.7343  4.4489e+18
-50.617  5.60195e+18
-50.4997  6.66532e+18
-50.3824  7.53282e+18
-50.2651  8.22728e+18
-50.1478  8.77144e+18
-50.0305  9.27887e+18
-49.9132  9.78636e+18
-49.7959  1.03448e+19
-49.6786  1.0948e+19
-49.5613  1.15446e+19
-49.444  1.2048e+19
-49.3267  1.23797e+19
-49.2094  1.24735e+19
-49.092  1.22784e+19
-48.9747  1.17869e+19
-48.8574  1.10203e+19
-48.7401  1.00426e+19
-48.6228  8.93636e+18
-48.5055  7.83299e+18
-48.3882  6.83969e+18
-48.2709  6.08616e+18
-48.1536  5.65573e+18
-48.0363  5.60123e+18
-47.919  5.90381e+18
-47.8017  6.50794e+18
-47.6844  7.29115e+18
-47.5671  8.13772e+18
-47.4498  8.93291e+18
-47.3325  9.57908e+18
-47.2152  1.00337e+19
-47.0979  1.02859e+19
-46.9806  1.03579e+19
-46.8633  1.02621e+19
-46.7459  9.97069e+18
-46.6286  9.46991e+18
-46.5113  8.71615e+18
-46.394  7.70172e+18
-46.2767  6.47499e+18
-46.1594  5.16388e+18
-46.0421  3.98133e+18
-45.9248  3.18014e+18
-45.8075  2.99211e+18
-45.6902  3.55896e+18
-45.5729  4.87192e+18
-45.4556  6.74909e+18
-45.3383  8.8338e+18
-45.221  1.07213e+19
-45.1037  1.19878e+19
-44.9864  1.23499e+19
-44.8691  1.17553e+19
-44.7518  1.03593e+19
-44.6345  8.54588e+18
-44.5172  6.81703e+18
-44.3998  5.64786e+18
-44.2825  5.38117e+18
-44.1652  6.12443e+18
-44.0479  7.74234e+18
-43.9306  9.88026e+18
-43.8133  1.20831e+19
-43.696  1.38878e+19
-43.5787  1.49828e+19
-43.4614  1.52655e+19
-43.3441  1.48393e+19
-43.2268  1.39699e+19
-43.1095  1.30229e+19
-42.9922  1.23194e+19
-42.8749  1.20546e+19
-42.7576  1.22689e+19
-42.6403  1.28355e+19
-42.523  1.35118e+19
-42.4057  1.40393e+19
-42.2884  1.42244e+19
-42.171  1.39989e+19
-42.0537  1.3413e+19
-41.9364  1.26914e+19
-41.8191  1.20985e+19
-41.7018  1.19528e+19
-41.5845  1.24631e+19
-41.4672  1.37581e+19
-41.3499  1.57804e+19
-41.2326  1.83577e+19
-41.1153  2.11565e+19
-40.998  2.37536e+19
-40.8807  2.57229e+19
-40.7634  2.66641e+19
-40.6461  2.62893e+19
-40.5288  2.4473e+19
-40.4115  2.13148e+19
-40.2942  1.71732e+19
-40.1769  1.26267e+19
-40.0596  8.38726e+18
-39.9423  5.26168e+18
-39.825  3.95742e+18
-39.7076  4.94153e+18
-39.5903  8.35329e+18
-39.473  1.38999e+19
-39.3557  2.09086e+19
-39.2384  2.84133e+19
-39.1211  3.52841e+19
-39.0038  4.04935e+19
-38.8865  4.32835e+19
-38.7692  4.33089e+19
-38.6519  4.07267e+19
-38.5346  3.61072e+19
-38.4173  3.03417e+19
-38.3  2.44366e+19
-38.1827  1.93124e+19
-38.0654  1.56088e+19
-37.9481  1.36149e+19
-37.8308  1.32163e+19
-37.7135  1.39943e+19
-37.5962  1.53602e+19
-37.4789  1.67077e+19
-37.3615  1.75516e+19
-37.2442  1.76417e+19
-37.1269  1.69417e+19
-37.0096  1.56452e+19
-36.8923  1.40427e+19
-36.775  1.24419e+19
-36.6577  1.10888e+19
-36.5404  1.01116e+19
-36.4231  9.50007e+18
-36.3058  9.16135e+18
-36.1885  8.95865e+18
-36.0712  8.7694e+18
-35.9539  8.52258e+18
-35.8366  8.22548e+18
-35.7193  7.94572e+18
-35.602  7.73141e+18
-35.4847  7.67368e+18
-35.3674  7.78437e+18
-35.2501  8.03485e+18
-35.1328  8.35096e+18
-35.0154  8.64799e+18
-34.8981  8.85896e+18
-34.7808  8.94564e+18
-34.6635  8.90348e+18
-34.5462  8.77682e+18
-34.4289  8.63061e+18
-34.3116  8.49736e+18
-34.1943  8.39586e+18
-34.077  8.30236e+18
-33.9597  8.16563e+18
-33.8424  7.91708e+18
-33.7251  7.50687e+18
-33.6078  6.90983e+18
-33.4905  6.14838e+18
-33.3732  5.29583e+18
-33.2559  4.45071e+18
-33.1386  3.72991e+18
-33.0213  3.24951e+18
-32.904  3.1072e+18
-32.7867  3.36879e+18
-32.6693  4.06572e+18
-32.552  5.1871e+18
-32.4347  6.70061e+18
-32.3174  8.53455e+18
-32.2001  1.05826e+19
-32.0828  1.27143e+19
-31.9655  1.47597e+19
-31.8482  1.65904e+19
-31.7309  1.80577e+19
-31.6136  1.90505e+19
-31.4963  1.95488e+19
-31.379  1.95808e+19
-31.2617  1.92723e+19
-31.1444  1.8804e+19
-31.0271  1.83692e+19
-30.9098  1.81883e+19
-30.7925  1.84454e+19
-30.6752  1.92792e+19
-30.5579  2.07406e+19
-30.4406  2.27982e+19
-30.3232  2.53513e+19
-30.2059  2.81941e+19
-30.0886  3.10857e+19
-29.9713  3.37633e+19
-29.854  3.58955e+19
-29.7367  3.72126e+19
-29.6194  3.74977e+19
-29.5021  3.66507e+19
-29.3848  3.46734e+19
-29.2675  3.17388e+19
-29.1502  2.81895e+19
-29.0329  2.45084e+19
-28.9156  2.12122e+19
-28.7983  1.88314e+19
-28.681  1.78244e+19
-28.5637  1.84622e+19
-28.4464  2.08404e+19
-28.3291  2.482e+19
-28.2118  3.00637e+19
-28.0944  3.61341e+19
-27.9771  4.25163e+19
-27.8598  4.87004e+19
-27.7425  5.43166e+19
-27.6252  5.90067e+19
-27.5079  6.26488e+19
-27.3906  6.51884e+19
-27.2733  6.67208e+19
-27.156  6.73484e+19
-27.0387  6.72741e+19
-26.9214  6.66857e+19
-26.8041  6.57653e+19
-26.6868  6.4661e+19
-26.5695  6.3458e+19
-26.4522  6.21798e+19
-26.3349  6.08154e+19
-26.2176  5.92735e+19
-26.1003  5.74037e+19
-25.983  5.50601e+19
-25.8657  5.21245e+19
-25.7483  4.85772e+19
-25.631  4.4487e+19
-25.5137  4.0077e+19
-25.3964  3.56452e+19
-25.2791  3.15755e+19
-25.1618  2.82753e+19
-25.0445  2.61013e+19
-24.9272  2.53076e+19
-24.8099  2.6018e+19
-24.6926  2.82101e+19
-24.5753  3.17521e+19
-24.458  3.63424e+19
-24.3407  4.16752e+19
-24.2234  4.7376e+19
-24.1061  5.30874e+19
-23.9888  5.84884e+19
-23.8715  6.32723e+19
-23.7542  6.72499e+19
-23.6369  7.02777e+19
-23.5196  7.23027e+19
-23.4023  7.33652e+19
-23.2849  7.35664e+19
-23.1676  7.30951e+19
-23.0503  7.21742e+19
-22.933  7.09928e+19
-22.8157  6.98088e+19
-22.6984  6.87622e+19
-22.5811  6.80317e+19
-22.4638  6.78023e+19
-22.3465  6.81915e+19
-22.2292  6.9445e+19
-22.1119  7.17607e+19
-21.9946  7.53826e+19
-21.8773  8.04945e+19
-21.76  8.72476e+19
-21.6427  9.56798e+19
-21.5254  1.05672e+20
-21.4081  1.17021e+20
-21.2908  1.29399e+20
-21.1735  1.42433e+20
-21.0561  1.55782e+20
-20.9388  1.69077e+20
-20.8215  1.82181e+20
-20.7042  1.94821e+20
-20.5869  2.06911e+20
-20.4696  2.18246e+20
-20.3523  2.28657e+20
-20.235  2.37764e+20
-20.1177  2.45358e+20
-20.0004  2.51022e+20
-19.8831  2.54431e+20
-19.7658  2.55509e+20
-19.6485  2.5433e+20
-19.5312  2.51202e+20
-19.4139  2.46658e+20
-19.2966  2.41412e+20
-19.1793  2.36279e+20
-19.062  2.32068e+20
-18.9447  2.29554e+20
-18.8274  2.29422e+20
-18.71  2.32053e+20
-18.5927  2.37805e+20
-18.4754  2.46806e+20
-18.3581  2.58927e+20
-18.2408  2.74033e+20
-18.1235  2.91632e+20
-18.0062  3.11226e+20
-17.8889  3.32157e+20
-17.7716  3.53515e+20
-17.6543  3.74718e+20
-17.537  3.94853e+20
-17.4197  4.13426e+20
-17.3024  4.29894e+20
-17.1851  4.44163e+20
-17.0678  4.56326e+20
-16.9505  4.66658e+20
-16.8332  4.75768e+20
-16.7159  4.84416e+20
-16.5986  4.93567e+20
-16.4813  5.04216e+20
-16.364  5.17486e+20
-16.2466  5.3442e+20
-16.1293  5.55796e+20
-16.012  5.82754e+20
-15.8947  6.15722e+20
-15.7774  6.55052e+20
-15.6601  7.00622e+20
-15.5428  7.51915e+20
-15.4255  8.0785e+20
-15.3082  8.67098e+20
-15.1909  9.27516e+20
-15.0736  9.87286e+20
-14.9563  1.0441e+21
-14.839  1.09609e+21
-14.7217  1.14127e+21
-14.6044  1.17875e+21
-14.4871  1.20768e+21
-14.3698  1.22832e+21
-14.2525  1.24129e+21
-14.1352  1.24799e+21
-14.0178  1.25009e+21
-13.9005  1.24977e+21
-13.7832  1.24924e+21
-13.6659  1.25057e+21
-13.5486  1.25594e+21
-13.4313  1.26707e+21
-13.314  1.28522e+21
-13.1967  1.31135e+21
-13.0794  1.34608e+21
-12.9621  1.38961e+21
-12.8448  1.44188e+21
-12.7275  1.50265e+21
-12.6102  1.5716e+21
-12.4929  1.64824e+21
-12.3756  1.7321e+21
-12.2583  1.8227e+21
-12.141  1.91953e+21
-12.0237  2.02202e+21
-11.9064  2.1294e+21
-11.7891  2.24094e+21
-11.6718  2.35572e+21
-11.5544  2.47254e+21
-11.4371  2.58992e+21
-11.3198  2.70664e+21
-11.2025  2.82092e+21
-11.0852  2.93156e+21
-10.9679  3.03713e+21
-10.8506  3.13662e+21
-10.7333  3.22931e+21
-10.616  3.31513e+21
-10.4987  3.39461e+21
-10.3814  3.46839e+21
-10.2641  3.53788e+21
-10.1468  3.60546e+21
-10.0295  3.67289e+21
-9.91217  3.7426e+21
-9.79487  3.81733e+21
-9.67756  3.89913e+21
-9.56026  3.98989e+21
-9.44295  4.09075e+21
-9.32565  4.20295e+21
-9.20834  4.32632e+21
-9.09104  4.46058e+21
-8.97373  4.60469e+21
-8.85643  4.75786e+21
-8.73913  4.91822e+21
-8.62182  5.08451e+21
-8.50452  5.25535e+21
-8.38721  5.43e+21
-8.26991  5.60718e+21
-8.1526  5.78682e+21
-8.03529  5.96828e+21
-7.91799  6.15166e+21
-7.80069  6.33699e+21
-7.68338  6.52396e+21
-7.56608  6.71261e+21
-7.44877  6.90274e+21
-7.33146  7.09359e+21
-7.21416  7.28437e+21
-7.09685  7.47414e+21
-6.97955  7.662e+21
-6.86224  7.84683e+21
-6.74494  8.02796e+21
-6.62763  8.20427e+21
-6.51033  8.37596e+21
-6.39302  8.54316e+21
-6.27572  8.70646e+21
-6.15842  8.86695e+21
-6.04111  9.02594e+21
-5.92381  9.18465e+21
-5.8065  9.34442e+21
-5.68919  9.50597e+21
-5.57189  9.66962e+21
-5.45458  9.83515e+21
-5.33728  1.00018e+22
-5.21997  1.01675e+22
-5.10267  1.03307e+22
-4.98536  1.0489e+22
-4.86806  1.06398e+22
-4.75075  1.07814e+22
-4.63345  1.09118e+22
-4.51614  1.10301e+22
-4.39884  1.1136e+22
-4.28154  1.12306e+22
-4.16423  1.13161e+22
-4.04692  1.13945e+22
-3.92962  1.147e+22
-3.81231  1.1547e+22
-3.69501  1.16294e+22
-3.5777  1.17223e+22
-3.4604  1.18291e+22
-3.34309  1.1953e+22
-3.22579  1.20957e+22
-3.10849  1.22587e+22
-2.99118  1.24408e+22
-2.87387  1.26402e+22
-2.75657  1.28538e+22
-2.63926  1.30776e+22
-2.52196  1.33062e+22
-2.40465  1.35346e+22
-2.28735  1.37568e+22
-2.17005  1.39679e+22
-2.05274  1.41631e+22
-1.93544  1.43384e+22
-1.81813  1.44913e+22
-1.70083  1.462e+22
-1.58352  1.47242e+22
-1.46622  1.48048e+22
-1.34891  1.48633e+22
-1.2316  1.49024e+22
-1.1143  1.4925e+22
-0.996995  1.49346e+22
-0.87969  1.49345e+22
-0.762385  1.4927e+22
-0.64508  1.49157e+22
-0.527775  1.49028e+22
-0.41047  1.489e+22
-0.293165  1.48788e+22
-0.17586  1.48706e+22
-0.058555  1.48662e+22
0.05875  1.48655e+22
0.176055  1.48688e+22
0.29336  1.48757e+22
0.410665  1.48856e+22
0.52797  1.4897e+22
0.645275  1.49085e+22
0.76258  1.49184e+22
0.879885  1.49245e+22
0.99719  1.49234e+22
1.1145  1.49126e+22
1.2318  1.48886e+22
1.3491  1.48482e+22
1.46641  1.47885e+22
1.58371  1.47067e+22
1.70102  1.46014e+22
1.81832  1.44716e+22
1.93563  1.4318e+22
2.05294  1.41418e+22
2.17024  1.39461e+22
2.28754  1.37348e+22
2.40485  1.3512e+22
2.52216  1.32835e+22
2.63946  1.30547e+22
2.75677  1.28309e+22
2.87407  1.26172e+22
2.99137  1.24177e+22
3.10868  1.22356e+22
3.22599  1.20729e+22
3.34329  1.193e+22
3.4606  1.18062e+22
3.5779  1.16995e+22
3.69521  1.16068e+22
3.81251  1.15243e+22
3.92982  1.14471e+22
4.04712  1.13712e+22
4.16443  1.12925e+22
4.28173  1.12068e+22
4.39903  1.11115e+22
4.51634  1.10049e+22
4.63364  1.08859e+22
4.75095  1.07546e+22
4.86825  1.06121e+22
4.98556  1.046e+22
5.10286  1.03009e+22
5.22017  1.01362e+22
5.33748  9.96931e+21
5.45478  9.80173e+21
5.57209  9.63522e+21
5.68939  9.47054e+21
5.8067  9.308e+21
5.924  9.14747e+21
6.0413  8.98824e+21
6.15861  8.82903e+21
6.27591  8.66812e+21
6.39322  8.50475e+21
6.51052  8.33757e+21
6.62783  8.16597e+21
6.74514  7.98969e+21
6.86244  7.80904e+21
6.97975  7.6244e+21
7.09705  7.43692e+21
7.21436  7.24744e+21
7.33166  7.05681e+21
7.44897  6.86641e+21
7.56627  6.67674e+21
7.68358  6.48832e+21
7.80088  6.30167e+21
7.91819  6.11677e+21
8.03549  5.93385e+21
8.1528  5.75301e+21
8.2701  5.57402e+21
8.38741  5.39749e+21
8.50471  5.22366e+21
8.62202  5.05377e+21
8.73932  4.88837e+21
8.85662  4.72909e+21
8.97393  4.57708e+21
9.09123  4.4339e+21
9.20854  4.30062e+21
9.32584  4.17812e+21
9.44315  4.06677e+21
9.56045  3.9663e+21
9.67776  3.87616e+21
9.79506  3.79464e+21
9.91237  3.72019e+21
10.0297  3.65051e+21
10.147  3.58329e+21
10.2643  3.51591e+21
10.3816  3.44637e+21
10.4989  3.37267e+21
10.6162  3.29347e+21
10.7335  3.2078e+21
10.8508  3.11542e+21
10.9681  3.0163e+21
11.0854  2.91137e+21
11.2027  2.80141e+21
11.32  2.68775e+21
11.4373  2.57184e+21
11.5546  2.45515e+21
11.6719  2.33903e+21
11.7893  2.22511e+21
11.9066  2.11432e+21
12.0239  2.0075e+21
12.1412  1.90587e+21
12.2585  1.80968e+21
12.3758  1.71975e+21
12.4931  1.63651e+21
12.6104  1.56047e+21
12.7277  1.49208e+21
12.845  1.43172e+21
12.9623  1.37987e+21
13.0796  1.33684e+21
13.1969  1.30237e+21
13.3142  1.27659e+21
13.4315  1.2587e+21
13.5488  1.2477e+21
13.6661  1.24238e+21
13.7834  1.241e+21
13.9007  1.2415e+21
14.018  1.24167e+21
14.1354  1.23947e+21
14.2527  1.23273e+21
14.37  1.21963e+21
14.4873  1.199e+21
14.6046  1.17e+21
14.7219  1.13264e+21
14.8392  1.08754e+21
14.9565  1.0358e+21
15.0738  9.79331e+20
15.1911  9.19892e+20
15.3084  8.59814e+20
15.4257  8.01039e+20
15.543  7.4555e+20
15.6603  6.94681e+20
15.7776  6.49499e+20
15.8949  6.10526e+20
16.0122  5.77949e+20
16.1295  5.51308e+20
16.2468  5.30086e+20
16.3641  5.13457e+20
16.4815  5.00364e+20
16.5988  4.89872e+20
16.7161  4.80907e+20
16.8334  4.72398e+20
16.9507  4.63443e+20
17.068  4.53288e+20
17.1853  4.41306e+20
17.3026  4.27223e+20
17.4199  4.10871e+20
17.5372  3.92431e+20
17.6545  3.72461e+20
17.7718  3.5144e+20
17.8891  3.30133e+20
18.0064  3.0939e+20
18.1237  2.89967e+20
18.241  2.72478e+20
18.3583  2.57521e+20
18.4756  2.45531e+20
18.5929  2.36692e+20
18.7102  2.31015e+20
18.8275  2.28517e+20
18.9449  2.28775e+20
19.0622  2.31336e+20
19.1795  2.35615e+20
19.2968  2.40764e+20
19.4141  2.4601e+20
19.5314  2.50489e+20
19.6487  2.5351e+20
19.766  2.54639e+20
19.8833  2.53395e+20
20.0006  2.49889e+20
20.1179  2.44184e+20
20.2352  2.36583e+20
20.3525  2.27403e+20
20.4698  2.1699e+20
20.5871  2.05668e+20
20.7044  1.9362e+20
20.8217  1.81032e+20
20.939  1.68039e+20
21.0563  1.5475e+20
21.1736  1.41486e+20
21.291  1.28493e+20
21.4083  1.16205e+20
21.5256  1.04907e+20
21.6429  9.49877e+19
21.7602  8.66266e+19
21.8775  7.99297e+19
21.9948  7.48592e+19
22.1121  7.13101e+19
22.2294  6.90336e+19
22.3467  6.78243e+19
22.464  6.74432e+19
22.5813  6.77085e+19
22.6986  6.84405e+19
22.8159  6.95065e+19
22.9332  7.0717e+19
23.0505  7.19003e+19
23.1678  7.28325e+19
23.2851  7.32947e+19
23.4024  7.30999e+19
23.5198  7.20365e+19
23.6371  7.00057e+19
23.7544  6.69747e+19
23.8717  6.29993e+19
23.989  5.82229e+19
24.1063  5.28387e+19
24.2236  4.71437e+19
24.3409  4.14733e+19
24.4582  3.61837e+19
24.5755  3.16391e+19
24.6928  2.81696e+19
24.8101  2.60393e+19
24.9274  2.53961e+19
25.0447  2.62589e+19
25.162  2.84885e+19
25.2793  3.18306e+19
25.3966  3.59146e+19
25.5139  4.0345e+19
25.6312  4.47329e+19
25.7485  4.87827e+19
25.8658  5.22912e+19
25.9832  5.51643e+19
26.1005  5.74729e+19
26.2178  5.93218e+19
26.3351  6.08383e+19
26.4524  6.21787e+19
26.5697  6.34419e+19
26.687  6.46551e+19
26.8043  6.57748e+19
26.9216  6.67182e+19
27.0389  6.72895e+19
27.1562  6.7354e+19
27.2735  6.67039e+19
27.3908  6.51547e+19
27.5081  6.2582e+19
27.6254  5.89044e+19
27.7427  5.41846e+19
27.86  4.8565e+19
27.9773  4.23609e+19
28.0946  3.59881e+19
28.212  2.99281e+19
28.3293  2.47224e+19
28.4466  2.07958e+19
28.5639  1.84788e+19
28.6812  1.79079e+19
28.7985  1.89844e+19
28.9158  2.14182e+19
29.0331  2.47623e+19
29.1504  2.84745e+19
29.2677  3.20307e+19
29.385  3.49596e+19
29.5023  3.69269e+19
29.6196  3.77373e+19
29.7369  3.73996e+19
29.8542  3.60396e+19
29.9715  3.38571e+19
30.0888  3.11546e+19
30.2061  2.82123e+19
30.3234  2.53426e+19
30.4407  2.27881e+19
30.558  2.07185e+19
30.6754  1.92705e+19
30.7927  1.84252e+19
30.91  1.8159e+19
31.0273  1.83297e+19
31.1446  1.87588e+19
31.2619  1.92112e+19
31.3792  1.95009e+19
31.4965  1.94354e+19
31.6138  1.89094e+19
31.7311  1.78935e+19
31.8484  1.64282e+19
31.9657  1.46086e+19
32.083  1.25621e+19
32.2003  1.04494e+19
32.3176  8.4305e+18
32.4349  6.6159e+18
32.5522  5.13246e+18
32.6695  4.03364e+18
32.7868  3.3626e+18
32.9042  3.12144e+18
33.0215  3.27572e+18
33.1388  3.76644e+18
33.2561  4.48891e+18
33.3734  5.33544e+18
33.4907  6.18352e+18
33.608  6.93792e+18
33.7253  7.53037e+18
33.8426  7.94024e+18
33.9599  8.19079e+18
34.0772  8.33471e+18
34.1945  8.43651e+18
34.3118  8.54913e+18
34.4291  8.69195e+18
34.5464  8.84677e+18
34.6637  8.96715e+18
34.781  9.0015e+18
34.8983  8.90966e+18
35.0156  8.68748e+18
35.1329  8.37363e+18
35.2503  8.04485e+18
35.3676  7.78977e+18
35.4849  7.67635e+18
35.6022  7.73479e+18
35.7195  7.94146e+18
35.8368  8.24362e+18
35.9541  8.54214e+18
36.0714  8.80747e+18
36.1887  9.00825e+18
36.306  9.22533e+18
36.4233  9.57522e+18
36.5406  1.0191e+19
36.6579  1.11652e+19
36.7752  1.24974e+19
36.8925  1.40618e+19
37.0098  1.56252e+19
37.1271  1.68732e+19
37.2444  1.75199e+19
37.3617  1.73906e+19
37.479  1.65251e+19
37.5964  1.51882e+19
37.7137  1.38615e+19
37.831  1.3155e+19
37.9483  1.36499e+19
38.0656  1.57524e+19
38.1829  1.95631e+19
38.3002  2.47767e+19
38.4175  3.07252e+19
38.5348  3.65129e+19
38.6521  4.10939e+19
38.7694  4.36138e+19
38.8867  4.34886e+19
39.004  4.0587e+19
39.1213  3.52656e+19
39.2386  2.83058e+19
39.3559  2.07669e+19
39.4732  1.37499e+19
39.5905  8.23329e+18
39.7078  4.88521e+18
39.8251  3.97953e+18
39.9425  5.37068e+18
40.0598  8.56453e+18
40.1771  1.28502e+19
40.2944  1.74368e+19
40.4117  2.15722e+19
40.529  2.47021e+19
40.6463  2.64905e+19
40.7636  2.68128e+19
40.8809  2.58255e+19
40.9982  2.38195e+19
41.1155  2.11826e+19
41.2328  1.83768e+19
41.3501  1.58055e+19
41.4674  1.37938e+19
41.5847  1.25163e+19
41.702  1.20246e+19
41.8193  1.21808e+19
41.9366  1.27655e+19
42.0539  1.34758e+19
42.1712  1.40324e+19
42.2885  1.42339e+19
42.4059  1.40105e+19
42.5232  1.34534e+19
42.6405  1.27456e+19
42.7578  1.21827e+19
42.8751  1.19827e+19
42.9924  1.22597e+19
43.1097  1.29973e+19
43.227  1.3972e+19
43.3443  1.48554e+19
43.4616  1.53032e+19
43.5789  1.50231e+19
43.6962  1.3912e+19
43.8135  1.20872e+19
43.9308  9.87445e+18
44.0481  7.72473e+18
44.1654  6.11002e+18
44.2827  5.3694e+18
44.4  5.64868e+18
44.5173  6.8298e+18
44.6347  8.56545e+18
44.752  1.03729e+19
44.8693  1.17545e+19
44.9866  1.23484e+19
45.1039  1.19565e+19
45.2212  1.06852e+19
45.3385  8.8024e+18
45.4558  6.70834e+18
45.5731  4.8445e+18
45.6904  3.54978e+18
45.8077  2.9974e+18
45.925  3.20177e+18
46.0423  4.01508e+18
46.1596  5.20259e+18
46.2769  6.51445e+18
46.3942  7.74066e+18
46.5115  8.75878e+18
46.6288  9.51598e+18
46.7461  1.0022e+19
46.8634  1.03113e+19
46.9808  1.04186e+19
47.0981  1.03398e+19
47.2154  1.00741e+19
47.3327  9.59026e+18
47.45  8.93486e+18
47.5673  8.13382e+18
47.6846  7.26883e+18
47.8019  6.47448e+18
47.9192  5.88803e+18
48.0365  5.60254e+18
48.1538  5.68403e+18
48.2711  6.13354e+18
48.3884  6.9116e+18
48.5057  7.91902e+18
48.623  9.03392e+18
48.7403  1.0126e+19
48.8576  1.11007e+19
48.9749  1.18565e+19
49.0922  1.23339e+19
49.2095  1.25148e+19
49.3269  1.24224e+19
49.4442  1.20799e+19
49.5615  1.15758e+19
49.6788  1.09853e+19
49.7961  1.03895e+19
49.9134  9.82662e+18
50.0307  9.3095e+18
50.148  8.80836e+18
50.2653  8.2468e+18
50.3826  7.55275e+18
50.4999  6.66388e+18
50.6172  5.59568e+18
50.7345  4.43824e+18
50.8518  3.3592e+18
50.9691  2.59499e+18
