#S 1 spectral density
#N 2
#UFWHM 14.6631
#L  abscissas [um]  spectral density
-58.5938  1.32637e+19
-58.4764  1.47275e+19
-58.3591  1.61762e+19
-58.2418  1.7612e+19
-58.1245  1.90765e+19
-58.0072  2.0694e+19
-57.8899  2.26072e+19
-57.7726  2.50108e+19
-57.6553  2.81054e+19
-57.538  3.20658e+19
-57.4207  3.69872e+19
-57.3034  4.28496e+19
-57.1861  4.944e+19
-57.0688  5.63718e+19
-56.9515  6.30684e+19
-56.8342  6.88874e+19
-56.7169  7.31625e+19
-56.5996  7.52398e+19
-56.4823  7.47534e+19
-56.365  7.15914e+19
-56.2477  6.58339e+19
-56.1303  5.79956e+19
-56.013  4.8704e+19
-55.8957  3.87829e+19
-55.7784  2.90481e+19
-55.6611  2.02891e+19
-55.5438  1.31565e+19
-55.4265  8.10653e+18
-55.3092  5.37371e+18
-55.1919  4.98788e+18
-55.0746  6.78285e+18
-54.9573  1.04056e+19
-54.84  1.54048e+19
-54.7227  2.12585e+19
-54.6054  2.74124e+19
-54.4881  3.33624e+19
-54.3708  3.86602e+19
-54.2535  4.30424e+19
-54.1362  4.634e+19
-54.0189  4.84828e+19
-53.9016  4.95154e+19
-53.7842  4.95238e+19
-53.6669  4.85305e+19
-53.5496  4.66125e+19
-53.4323  4.37514e+19
-53.315  3.99808e+19
-53.1977  3.53343e+19
-53.0804  2.99157e+19
-52.9631  2.40106e+19
-52.8458  1.79537e+19
-52.7285  1.2205e+19
-52.6112  7.23635e+18
-52.4939  3.47921e+18
-52.3766  1.2045e+18
-52.2593  4.98109e+17
-52.142  1.22582e+18
-52.0247  3.06194e+18
-51.9074  5.5533e+18
-51.7901  8.2066e+18
-51.6728  1.05875e+19
-51.5555  1.23777e+19
-51.4381  1.34698e+19
-51.3208  1.38736e+19
-51.2035  1.38035e+19
-51.0862  1.34889e+19
-50.9689  1.32195e+19
-50.8516  1.32081e+19
-50.7343  1.3549e+19
-50.617  1.42394e+19
-50.4997  1.51358e+19
-50.3824  1.60295e+19
-50.2651  1.6662e+19
-50.1478  1.68046e+19
-50.0305  1.62485e+19
-49.9132  1.49659e+19
-49.7959  1.29873e+19
-49.6786  1.04934e+19
-49.5613  7.74717e+18
-49.444  5.08912e+18
-49.3267  2.87141e+18
-49.2094  1.43673e+18
-49.092  1.0362e+18
-48.9747  1.82391e+18
-48.8574  3.8359e+18
-48.7401  6.98691e+18
-48.6228  1.11005e+19
-48.5055  1.59271e+19
-48.3882  2.11387e+19
-48.2709  2.64435e+19
-48.1536  3.15047e+19
-48.0363  3.60294e+19
-47.919  3.97544e+19
-47.8017  4.24856e+19
-47.6844  4.40333e+19
-47.5671  4.43511e+19
-47.4498  4.34163e+19
-47.3325  4.13193e+19
-47.2152  3.8194e+19
-47.0979  3.42452e+19
-46.9806  2.97144e+19
-46.8633  2.48587e+19
-46.7459  1.98783e+19
-46.6286  1.50468e+19
-46.5113  1.05875e+19
-46.394  6.78246e+18
-46.2767  3.93839e+18
-46.1594  2.40642e+18
-46.0421  2.55512e+18
-45.9248  4.71197e+18
-45.8075  9.09476e+18
-45.6902  1.57317e+19
-45.5729  2.44051e+19
-45.4556  3.46276e+19
-45.3383  4.56754e+19
-45.221  5.66864e+19
-45.1037  6.67312e+19
-44.9864  7.50012e+19
-44.8691  8.09468e+19
-44.7518  8.42217e+19
-44.6345  8.48421e+19
-44.5172  8.31493e+19
-44.3998  7.95651e+19
-44.2825  7.46584e+19
-44.1652  6.88506e+19
-44.0479  6.25416e+19
-43.9306  5.59361e+19
-43.8133  4.92018e+19
-43.696  4.23937e+19
-43.5787  3.55798e+19
-43.4614  2.89011e+19
-43.3441  2.25825e+19
-43.2268  1.6924e+19
-43.1095  1.22465e+19
-42.9922  8.8449e+18
-42.8749  6.91607e+18
-42.7576  6.53217e+18
-42.6403  7.6332e+18
-42.523  1.00198e+19
-42.4057  1.34144e+19
-42.2884  1.74964e+19
-42.171  2.19477e+19
-42.0537  2.64412e+19
-41.9364  3.07002e+19
-41.8191  3.45223e+19
-41.7018  3.76926e+19
-41.5845  4.01033e+19
-41.4672  4.16485e+19
-41.3499  4.23356e+19
-41.2326  4.22143e+19
-41.1153  4.13854e+19
-40.998  4.00222e+19
-40.8807  3.82842e+19
-40.7634  3.63203e+19
-40.6461  3.42209e+19
-40.5288  3.2061e+19
-40.4115  2.9847e+19
-40.2942  2.75463e+19
-40.1769  2.5172e+19
-40.0596  2.28068e+19
-39.9423  2.05368e+19
-39.825  1.85295e+19
-39.7076  1.69971e+19
-39.5903  1.61198e+19
-39.473  1.60321e+19
-39.3557  1.67481e+19
-39.2384  1.82352e+19
-39.1211  2.03446e+19
-39.0038  2.29593e+19
-38.8865  2.59795e+19
-38.7692  2.93582e+19
-38.6519  3.31601e+19
-38.5346  3.74628e+19
-38.4173  4.23514e+19
-38.3  4.77688e+19
-38.1827  5.35531e+19
-38.0654  5.93128e+19
-37.9481  6.44574e+19
-37.8308  6.83182e+19
-37.7135  7.01975e+19
-37.5962  6.95751e+19
-37.4789  6.61797e+19
-37.3615  6.00722e+19
-37.2442  5.17514e+19
-37.1269  4.19028e+19
-37.0096  3.15533e+19
-36.8923  2.1655e+19
-36.775  1.31021e+19
-36.6577  6.55254e+18
-36.5404  2.35755e+18
-36.4231  5.45834e+17
-36.3058  8.83655e+17
-36.1885  2.95113e+18
-36.0712  6.24544e+18
-35.9539  1.02632e+19
-35.8366  1.45725e+19
-35.7193  1.88449e+19
-35.602  2.27916e+19
-35.4847  2.62688e+19
-35.3674  2.91104e+19
-35.2501  3.11831e+19
-35.1328  3.23622e+19
-35.0154  3.2548e+19
-34.8981  3.171e+19
-34.7808  2.98628e+19
-34.6635  2.70696e+19
-34.5462  2.35607e+19
-34.4289  1.96151e+19
-34.3116  1.55016e+19
-34.1943  1.15219e+19
-34.077  7.96641e+18
-33.9597  5.04054e+18
-33.8424  2.88689e+18
-33.7251  1.57857e+18
-33.6078  1.12608e+18
-33.4905  1.49503e+18
-33.3732  2.62051e+18
-33.2559  4.41874e+18
-33.1386  6.78978e+18
-33.0213  9.62825e+18
-32.904  1.28119e+19
-32.7867  1.62207e+19
-32.6693  1.97106e+19
-32.552  2.31727e+19
-32.4347  2.64366e+19
-32.3174  2.94205e+19
-32.2001  3.20274e+19
-32.0828  3.41874e+19
-31.9655  3.59145e+19
-31.8482  3.71796e+19
-31.7309  3.80328e+19
-31.6136  3.85146e+19
-31.4963  3.86432e+19
-31.379  3.84261e+19
-31.2617  3.78308e+19
-31.1444  3.68015e+19
-31.0271  3.52689e+19
-30.9098  3.3182e+19
-30.7925  3.05011e+19
-30.6752  2.72961e+19
-30.5579  2.37127e+19
-30.4406  2.00328e+19
-30.3232  1.66253e+19
-30.2059  1.39239e+19
-30.0886  1.23818e+19
-29.9713  1.23904e+19
-29.854  1.42395e+19
-29.7367  1.80645e+19
-29.6194  2.38174e+19
-29.5021  3.12584e+19
-29.3848  4.00375e+19
-29.2675  4.96888e+19
-29.1502  5.96823e+19
-29.0329  6.94331e+19
-28.9156  7.8425e+19
-28.7983  8.61481e+19
-28.681  9.21161e+19
-28.5637  9.59424e+19
-28.4464  9.727e+19
-28.3291  9.59279e+19
-28.2118  9.18856e+19
-28.0944  8.52785e+19
-27.9771  7.65141e+19
-27.8598  6.62047e+19
-27.7425  5.51471e+19
-27.6252  4.42919e+19
-27.5079  3.4539e+19
-27.3906  2.67246e+19
-27.2733  2.14551e+19
-27.156  1.91094e+19
-27.0387  1.97331e+19
-26.9214  2.30972e+19
-26.8041  2.87559e+19
-26.6868  3.61102e+19
-26.5695  4.45267e+19
-26.4522  5.3377e+19
-26.3349  6.21233e+19
-26.2176  7.04118e+19
-26.1003  7.78764e+19
-25.983  8.44157e+19
-25.8657  8.99036e+19
-25.7483  9.42771e+19
-25.631  9.75458e+19
-25.5137  9.9617e+19
-25.3964  1.00471e+20
-25.2791  1.00027e+20
-25.1618  9.8263e+19
-25.0445  9.5068e+19
-24.9272  9.04932e+19
-24.8099  8.45796e+19
-24.6926  7.74745e+19
-24.5753  6.93954e+19
-24.458  6.06809e+19
-24.3407  5.16945e+19
-24.2234  4.28302e+19
-24.1061  3.45131e+19
-23.9888  2.71106e+19
-23.8715  2.09272e+19
-23.7542  1.61561e+19
-23.6369  1.28851e+19
-23.5196  1.10773e+19
-23.4023  1.05963e+19
-23.2849  1.12312e+19
-23.1676  1.27042e+19
-23.0503  1.47314e+19
-22.933  1.70529e+19
-22.8157  1.94722e+19
-22.6984  2.18779e+19
-22.5811  2.42796e+19
-22.4638  2.68156e+19
-22.3465  2.9719e+19
-22.2292  3.3341e+19
-22.1119  3.80283e+19
-21.9946  4.40882e+19
-21.8773  5.17104e+19
-21.76  6.08816e+19
-21.6427  7.13771e+19
-21.5254  8.27257e+19
-21.4081  9.42753e+19
-21.2908  1.05264e+20
-21.1735  1.1487e+20
-21.0561  1.22403e+20
-20.9388  1.27341e+20
-20.8215  1.29481e+20
-20.7042  1.28732e+20
-20.5869  1.25391e+20
-20.4696  1.1993e+20
-20.3523  1.1295e+20
-20.235  1.05099e+20
-20.1177  9.70908e+19
-20.0004  8.95412e+19
-19.8831  8.31163e+19
-19.7658  7.81862e+19
-19.6485  7.51842e+19
-19.5312  7.42741e+19
-19.4139  7.54932e+19
-19.2966  7.86409e+19
-19.1793  8.33217e+19
-19.062  8.8983e+19
-18.9447  9.50064e+19
-18.8274  1.00737e+20
-18.71  1.05751e+20
-18.5927  1.09785e+20
-18.4754  1.12959e+20
-18.3581  1.15821e+20
-18.2408  1.19126e+20
-18.1235  1.24006e+20
-18.0062  1.31585e+20
-17.8889  1.42963e+20
-17.7716  1.58949e+20
-17.6543  1.79995e+20
-17.537  2.06095e+20
-17.4197  2.36769e+20
-17.3024  2.71033e+20
-17.1851  3.07703e+20
-17.0678  3.4534e+20
-16.9505  3.82455e+20
-16.8332  4.17749e+20
-16.7159  4.5006e+20
-16.5986  4.78706e+20
-16.4813  5.03276e+20
-16.364  5.23863e+20
-16.2466  5.4082e+20
-16.1293  5.54877e+20
-16.012  5.67017e+20
-15.8947  5.78334e+20
-15.7774  5.89756e+20
-15.6601  6.02166e+20
-15.5428  6.162e+20
-15.4255  6.32323e+20
-15.3082  6.50517e+20
-15.1909  6.70468e+20
-15.0736  6.9196e+20
-14.9563  7.14533e+20
-14.839  7.37796e+20
-14.7217  7.61524e+20
-14.6044  7.85917e+20
-14.4871  8.11039e+20
-14.3698  8.3764e+20
-14.2525  8.66434e+20
-14.1352  8.98324e+20
-14.0178  9.33997e+20
-13.9005  9.74201e+20
-13.7832  1.01938e+21
-13.6659  1.06954e+21
-13.5486  1.12456e+21
-13.4313  1.18397e+21
-13.314  1.24684e+21
-13.1967  1.31212e+21
-13.0794  1.37864e+21
-12.9621  1.44529e+21
-12.8448  1.51081e+21
-12.7275  1.57431e+21
-12.6102  1.63486e+21
-12.4929  1.69186e+21
-12.3756  1.74501e+21
-12.2583  1.79401e+21
-12.141  1.83893e+21
-12.0237  1.88e+21
-11.9064  1.91753e+21
-11.7891  1.95188e+21
-11.6718  1.9836e+21
-11.5544  2.013e+21
-11.4371  2.04027e+21
-11.3198  2.06603e+21
-11.2025  2.09015e+21
-11.0852  2.11317e+21
-10.9679  2.13538e+21
-10.8506  2.15708e+21
-10.7333  2.17899e+21
-10.616  2.20214e+21
-10.4987  2.22766e+21
-10.3814  2.25699e+21
-10.2641  2.29171e+21
-10.1468  2.33419e+21
-10.0295  2.38601e+21
-9.91217  2.44939e+21
-9.79487  2.52652e+21
-9.67756  2.61901e+21
-9.56026  2.72839e+21
-9.44295  2.85562e+21
-9.32565  3.00175e+21
-9.20834  3.16669e+21
-9.09104  3.3505e+21
-8.97373  3.55233e+21
-8.85643  3.77157e+21
-8.73913  4.0067e+21
-8.62182  4.25626e+21
-8.50452  4.51837e+21
-8.38721  4.79152e+21
-8.26991  5.07323e+21
-8.1526  5.36166e+21
-8.03529  5.65408e+21
-7.91799  5.94828e+21
-7.80069  6.24167e+21
-7.68338  6.53117e+21
-7.56608  6.81432e+21
-7.44877  7.08863e+21
-7.33146  7.35157e+21
-7.21416  7.6011e+21
-7.09685  7.83584e+21
-6.97955  8.05497e+21
-6.86224  8.25839e+21
-6.74494  8.44678e+21
-6.62763  8.62126e+21
-6.51033  8.78377e+21
-6.39302  8.9365e+21
-6.27572  9.08189e+21
-6.15842  9.22234e+21
-6.04111  9.35977e+21
-5.92381  9.49555e+21
-5.8065  9.6309e+21
-5.68919  9.76563e+21
-5.57189  9.89961e+21
-5.45458  1.0032e+22
-5.33728  1.01614e+22
-5.21997  1.02866e+22
-5.10267  1.04063e+22
-4.98536  1.05197e+22
-4.86806  1.0626e+22
-4.75075  1.07252e+22
-4.63345  1.08182e+22
-4.51614  1.0906e+22
-4.39884  1.09903e+22
-4.28154  1.10737e+22
-4.16423  1.11596e+22
-4.04692  1.12502e+22
-3.92962  1.1349e+22
-3.81231  1.14592e+22
-3.69501  1.15827e+22
-3.5777  1.17219e+22
-3.4604  1.18773e+22
-3.34309  1.20484e+22
-3.22579  1.2234e+22
-3.10849  1.24317e+22
-2.99118  1.26378e+22
-2.87387  1.28482e+22
-2.75657  1.3058e+22
-2.63926  1.32626e+22
-2.52196  1.34567e+22
-2.40465  1.36365e+22
-2.28735  1.37973e+22
-2.17005  1.39365e+22
-2.05274  1.4052e+22
-1.93544  1.41423e+22
-1.81813  1.42073e+22
-1.70083  1.42478e+22
-1.58352  1.42654e+22
-1.46622  1.42624e+22
-1.34891  1.42416e+22
-1.2316  1.42067e+22
-1.1143  1.41608e+22
-0.996995  1.4108e+22
-0.87969  1.40519e+22
-0.762385  1.39951e+22
-0.64508  1.39412e+22
-0.527775  1.38926e+22
-0.41047  1.38515e+22
-0.293165  1.38191e+22
-0.17586  1.37972e+22
-0.058555  1.37866e+22
0.05875  1.37872e+22
0.176055  1.37996e+22
0.29336  1.38231e+22
0.410665  1.3857e+22
0.52797  1.38998e+22
0.645275  1.39498e+22
0.76258  1.40055e+22
0.879885  1.40638e+22
0.99719  1.41219e+22
1.1145  1.41766e+22
1.2318  1.42239e+22
1.3491  1.42606e+22
1.46641  1.4283e+22
1.58371  1.42875e+22
1.70102  1.42713e+22
1.81832  1.42319e+22
1.93563  1.41682e+22
2.05294  1.40788e+22
2.17024  1.39643e+22
2.28754  1.38257e+22
2.40485  1.36651e+22
2.52216  1.34858e+22
2.63946  1.32916e+22
2.75677  1.30869e+22
2.87407  1.28769e+22
2.99137  1.26665e+22
3.10868  1.24602e+22
3.22599  1.22625e+22
3.34329  1.20771e+22
3.4606  1.19061e+22
3.5779  1.17513e+22
3.69521  1.16128e+22
3.81251  1.14899e+22
3.92982  1.13805e+22
4.04712  1.12825e+22
4.16443  1.11929e+22
4.28173  1.11082e+22
4.39903  1.10254e+22
4.51634  1.09416e+22
4.63364  1.08546e+22
4.75095  1.07622e+22
4.86825  1.06632e+22
4.98556  1.0557e+22
5.10286  1.04438e+22
5.22017  1.03235e+22
5.33748  1.01981e+22
5.45478  1.00682e+22
5.57209  9.93548e+21
5.68939  9.80106e+21
5.8067  9.66576e+21
5.924  9.52997e+21
6.0413  9.39397e+21
6.15861  9.25638e+21
6.27591  9.11568e+21
6.39322  8.97015e+21
6.51052  8.81717e+21
6.62783  8.65435e+21
6.74514  8.47943e+21
6.86244  8.29067e+21
6.97975  8.08653e+21
7.09705  7.86679e+21
7.21436  7.63134e+21
7.33166  7.38073e+21
7.44897  7.117e+21
7.56627  6.84187e+21
7.68358  6.55772e+21
7.80088  6.26723e+21
7.91819  5.97305e+21
8.03549  5.67811e+21
8.1528  5.38497e+21
8.2701  5.09591e+21
8.38741  4.8137e+21
8.50471  4.54002e+21
8.62202  4.27768e+21
8.73932  4.02791e+21
8.85662  3.7926e+21
8.97393  3.57332e+21
9.09123  3.37139e+21
9.20854  3.18761e+21
9.32584  3.02253e+21
9.44315  2.87644e+21
9.56045  2.74898e+21
9.67776  2.63962e+21
9.79506  2.54692e+21
9.91237  2.46977e+21
10.0297  2.40607e+21
10.147  2.35407e+21
10.2643  2.3114e+21
10.3816  2.27625e+21
10.4989  2.24657e+21
10.6162  2.22071e+21
10.7335  2.19705e+21
10.8508  2.17456e+21
10.9681  2.15224e+21
11.0854  2.12962e+21
11.2027  2.10603e+21
11.32  2.08128e+21
11.4373  2.05506e+21
11.5546  2.02709e+21
11.6719  1.9971e+21
11.7893  1.9649e+21
11.9066  1.92998e+21
12.0239  1.89192e+21
12.1412  1.8505e+21
12.2585  1.8051e+21
12.3758  1.75581e+21
12.4931  1.7024e+21
12.6104  1.64511e+21
12.7277  1.58428e+21
12.845  1.52042e+21
12.9623  1.45463e+21
13.0796  1.3878e+21
13.1969  1.32088e+21
13.3142  1.25543e+21
13.4315  1.19239e+21
13.5488  1.13269e+21
13.6661  1.07742e+21
13.7834  1.02704e+21
13.9007  9.81661e+20
14.018  9.41184e+20
14.1354  9.05409e+20
14.2527  8.73461e+20
14.37  8.44481e+20
14.4873  8.17827e+20
14.6046  7.92527e+20
14.7219  7.68138e+20
14.8392  7.44278e+20
14.9565  7.20899e+20
15.0738  6.9832e+20
15.1911  6.76698e+20
15.3084  6.56629e+20
15.4257  6.38447e+20
15.543  6.2228e+20
15.6603  6.08055e+20
15.7776  5.9542e+20
15.8949  5.83753e+20
16.0122  5.72176e+20
16.1295  5.59684e+20
16.2468  5.45233e+20
16.3641  5.27879e+20
16.4815  5.06848e+20
16.5988  4.81802e+20
16.7161  4.52787e+20
16.8334  4.20014e+20
16.9507  3.84402e+20
17.068  3.46977e+20
17.1853  3.09125e+20
17.3026  2.72293e+20
17.4199  2.37944e+20
17.5372  2.07257e+20
17.6545  1.81193e+20
17.7718  1.60145e+20
17.8891  1.44197e+20
18.0064  1.32851e+20
18.1237  1.25268e+20
18.241  1.20371e+20
18.3583  1.16997e+20
18.4756  1.1406e+20
18.5929  1.10767e+20
18.7102  1.06646e+20
18.8275  1.01544e+20
18.9449  9.57331e+19
19.0622  8.96773e+19
19.1795  8.39887e+19
19.2968  7.93474e+19
19.4141  7.62435e+19
19.5314  7.50982e+19
19.6487  7.61004e+19
19.766  7.9172e+19
19.8833  8.41862e+19
20.0006  9.07235e+19
20.1179  9.83408e+19
20.2352  1.06393e+20
20.3525  1.14278e+20
20.4698  1.21305e+20
20.5871  1.26766e+20
20.7044  1.30043e+20
20.8217  1.30702e+20
20.939  1.28488e+20
21.0563  1.23398e+20
21.1736  1.15719e+20
21.291  1.05944e+20
21.4083  9.48277e+19
21.5256  8.31305e+19
21.6429  7.16724e+19
21.7602  6.1099e+19
21.8775  5.18645e+19
21.9948  4.42115e+19
22.1121  3.81402e+19
22.2294  3.34475e+19
22.3467  2.98196e+19
22.464  2.69002e+19
22.5813  2.43553e+19
22.6986  2.19467e+19
22.8159  1.95297e+19
22.9332  1.71121e+19
23.0505  1.47956e+19
23.1678  1.27892e+19
23.2851  1.13533e+19
23.4024  1.07707e+19
23.5198  1.13039e+19
23.6371  1.31867e+19
23.7544  1.65321e+19
23.8717  2.13794e+19
23.989  2.76327e+19
24.1063  3.51009e+19
24.2236  4.34777e+19
24.3409  5.23891e+19
24.4582  6.14025e+19
24.5755  7.01495e+19
24.6928  7.8212e+19
24.8101  8.53061e+19
24.9274  9.11688e+19
25.0447  9.57046e+19
25.162  9.88557e+19
25.2793  1.00587e+20
25.3966  1.00963e+20
25.5139  1.00034e+20
25.6312  9.78867e+19
25.7485  9.45846e+19
25.8658  9.01194e+19
25.9832  8.45887e+19
26.1005  7.7988e+19
26.2178  7.04589e+19
26.3351  6.21567e+19
26.4524  5.33669e+19
26.5697  4.45036e+19
26.687  3.61004e+19
26.8043  2.87711e+19
26.9216  2.31733e+19
27.0389  1.98866e+19
27.1562  1.93625e+19
27.2735  2.18361e+19
27.3908  2.72178e+19
27.5081  3.51477e+19
27.6254  4.50097e+19
27.7427  5.59329e+19
27.86  6.70208e+19
27.9773  7.7345e+19
28.0946  8.60833e+19
28.212  9.26297e+19
28.3293  9.65889e+19
28.4466  9.7795e+19
28.5639  9.63244e+19
28.6812  9.23525e+19
28.7985  8.62524e+19
28.9158  7.84076e+19
29.0331  6.93137e+19
29.1504  5.94969e+19
29.2677  4.94669e+19
29.385  3.98177e+19
29.5023  3.10526e+19
29.6196  2.36684e+19
29.7369  1.80004e+19
29.8542  1.42579e+19
29.9715  1.2497e+19
30.0888  1.25579e+19
30.2061  1.41682e+19
30.3234  1.69071e+19
30.4407  2.0329e+19
30.558  2.40037e+19
30.6754  2.75563e+19
30.7927  3.07358e+19
30.91  3.33737e+19
31.0273  3.54422e+19
31.1446  3.69292e+19
31.2619  3.79422e+19
31.3792  3.8512e+19
31.4965  3.87291e+19
31.6138  3.86036e+19
31.7311  3.81264e+19
31.8484  3.72557e+19
31.9657  3.59639e+19
32.083  3.42356e+19
32.2003  3.20405e+19
32.3176  2.94008e+19
32.4349  2.64007e+19
32.5522  2.30939e+19
32.6695  1.96177e+19
32.7868  1.61026e+19
32.9042  1.26912e+19
33.0215  9.50176e+18
33.1388  6.67602e+18
33.2561  4.32171e+18
33.3734  2.5551e+18
33.4907  1.46208e+18
33.608  1.12941e+18
33.7253  1.62188e+18
33.8426  2.96579e+18
33.9599  5.15636e+18
34.0772  8.10231e+18
34.1945  1.16704e+19
34.3118  1.56422e+19
34.4291  1.97483e+19
34.5464  2.36768e+19
34.6637  2.71313e+19
34.781  2.98627e+19
34.8983  3.16779e+19
35.0156  3.24735e+19
35.1329  3.22217e+19
35.2503  3.09894e+19
35.3676  2.88843e+19
35.4849  2.60082e+19
35.6022  2.25069e+19
35.7195  1.85295e+19
35.8368  1.42806e+19
35.9541  9.98736e+18
36.0714  6.01995e+18
36.1887  2.79714e+18
36.306  8.22623e+17
36.4233  5.92382e+17
36.5406  2.51409e+18
36.6579  6.81878e+18
36.7752  1.34495e+19
36.8925  2.20674e+19
37.0098  3.19961e+19
37.1271  4.23626e+19
37.2444  5.21496e+19
37.3617  6.04099e+19
37.479  6.64346e+19
37.5964  6.97709e+19
37.7137  7.03012e+19
37.831  6.83518e+19
37.9483  6.4426e+19
38.0656  5.92212e+19
38.1829  5.34254e+19
38.3002  4.76071e+19
38.4175  4.21256e+19
38.5348  3.7222e+19
38.6521  3.28832e+19
38.7694  2.90635e+19
38.8867  2.56743e+19
39.004  2.26698e+19
39.1213  2.00821e+19
39.2386  1.80145e+19
39.3559  1.66026e+19
39.4732  1.59616e+19
39.5905  1.61295e+19
39.7078  1.70638e+19
39.8251  1.86404e+19
39.9425  2.06769e+19
40.0598  2.29875e+19
40.1771  2.53886e+19
40.2944  2.77573e+19
40.4117  3.00739e+19
40.529  3.23146e+19
40.6463  3.44719e+19
40.7636  3.65752e+19
40.8809  3.85536e+19
40.9982  4.02902e+19
41.1155  4.16479e+19
41.2328  4.24464e+19
41.3501  4.25369e+19
41.4674  4.18026e+19
41.5847  4.01985e+19
41.702  3.77453e+19
41.8193  3.45139e+19
41.9366  3.06562e+19
42.0539  2.63573e+19
42.1712  2.18375e+19
42.2885  1.73823e+19
42.4059  1.33074e+19
42.5232  9.94321e+18
42.6405  7.60651e+18
42.7578  6.57428e+18
42.8751  7.03117e+18
42.9924  9.03431e+18
43.1097  1.25098e+19
43.227  1.72235e+19
43.3443  2.29106e+19
43.4616  2.92227e+19
43.5789  3.58792e+19
43.6962  4.26517e+19
43.8135  4.94266e+19
43.9308  5.61035e+19
44.0481  6.26457e+19
44.1654  6.89203e+19
44.2827  7.47072e+19
44.4  7.96456e+19
44.5173  8.32273e+19
44.6347  8.49153e+19
44.752  8.42422e+19
44.8693  8.09155e+19
44.9866  7.49621e+19
45.1039  6.65964e+19
45.2212  5.65134e+19
45.3385  4.5474e+19
45.4558  3.438e+19
45.5731  2.41493e+19
45.6904  1.55036e+19
45.8077  8.90483e+18
45.925  4.58282e+18
46.0423  2.49443e+18
46.1596  2.416e+18
46.2769  4.01629e+18
46.3942  6.91526e+18
46.5115  1.07709e+19
46.6288  1.52614e+19
46.7461  2.01119e+19
46.8634  2.50859e+19
46.9808  2.99505e+19
47.0981  3.4441e+19
47.2154  3.83491e+19
47.3327  4.14036e+19
47.45  4.34521e+19
47.5673  4.43227e+19
47.6846  4.39248e+19
47.8019  4.22864e+19
47.9192  3.95148e+19
48.0365  3.57436e+19
48.1538  3.11842e+19
48.2711  2.60996e+19
48.3884  2.08108e+19
48.5057  1.56044e+19
48.623  1.08304e+19
48.7403  6.76797e+18
48.8576  3.68008e+18
48.9749  1.74296e+18
49.0922  1.028e+18
49.2095  1.49909e+18
49.3269  2.99226e+18
49.4442  5.24483e+18
49.5615  7.92175e+18
49.6788  1.06759e+19
49.7961  1.31505e+19
49.9134  1.51085e+19
50.0307  1.63565e+19
50.148  1.68417e+19
50.2653  1.66726e+19
50.3826  1.60179e+19
50.4999  1.51038e+19
50.6172  1.41942e+19
50.7345  1.35096e+19
50.8518  1.31747e+19
