#S 1 spectral density
#N 2
#UFWHM 13.4901
#L  abscissas [um]  spectral density
-58.5938  4.51117e+18
-58.4764  3.6757e+18
-58.3591  3.03998e+18
-58.2418  2.72171e+18
-58.1245  2.69683e+18
-58.0072  2.82799e+18
-57.8899  2.9124e+18
-57.7726  2.77275e+18
-57.6553  2.33239e+18
-57.538  1.64299e+18
-57.4207  8.88222e+17
-57.3034  3.25127e+17
-57.1861  2.09658e+17
-57.0688  7.14682e+17
-56.9515  1.87402e+18
-56.8342  3.58118e+18
-56.7169  5.62215e+18
-56.5996  7.71305e+18
-56.4823  9.62091e+18
-56.365  1.11918e+19
-56.2477  1.23445e+19
-56.1303  1.31408e+19
-56.013  1.36785e+19
-55.8957  1.40422e+19
-55.7784  1.42732e+19
-55.6611  1.43311e+19
-55.5438  1.41169e+19
-55.4265  1.35423e+19
-55.3092  1.24993e+19
-55.1919  1.09934e+19
-55.0746  9.12487e+18
-54.9573  7.0716e+18
-54.84  5.08987e+18
-54.7227  3.41459e+18
-54.6054  2.22786e+18
-54.4881  1.60384e+18
-54.3708  1.50245e+18
-54.2535  1.79841e+18
-54.1362  2.30405e+18
-54.0189  2.83912e+18
-53.9016  3.25114e+18
-53.7842  3.45133e+18
-53.6669  3.44312e+18
-53.5496  3.28137e+18
-53.4323  3.04916e+18
-53.315  2.83533e+18
-53.1977  2.70391e+18
-53.0804  2.68747e+18
-52.9631  2.77957e+18
-52.8458  2.94298e+18
-52.7285  3.1275e+18
-52.6112  3.27017e+18
-52.4939  3.311e+18
-52.3766  3.20756e+18
-52.2593  2.94265e+18
-52.142  2.52365e+18
-52.0247  1.99433e+18
-51.9074  1.43395e+18
-51.7901  9.48535e+17
-51.6728  6.59325e+17
-51.5555  6.68105e+17
-51.4381  1.04465e+18
-51.3208  1.7899e+18
-51.2035  2.83937e+18
-51.0862  4.0474e+18
-50.9689  5.2432e+18
-50.8516  6.23261e+18
-50.7343  6.85565e+18
-50.617  7.00607e+18
-50.4997  6.68404e+18
-50.3824  5.95698e+18
-50.2651  4.96932e+18
-50.1478  3.88612e+18
-50.0305  2.90363e+18
-49.9132  2.1485e+18
-49.7959  1.72725e+18
-49.6786  1.67455e+18
-49.5613  1.95994e+18
-49.444  2.5126e+18
-49.3267  3.22364e+18
-49.2094  3.97454e+18
-49.092  4.63267e+18
-48.9747  5.1058e+18
-48.8574  5.29449e+18
-48.7401  5.17157e+18
-48.6228  4.73374e+18
-48.5055  4.04508e+18
-48.3882  3.20716e+18
-48.2709  2.33996e+18
-48.1536  1.56694e+18
-48.0363  9.81695e+17
-47.919  6.31025e+17
-47.8017  5.05926e+17
-47.6844  5.49585e+17
-47.5671  6.7957e+17
-47.4498  8.18062e+17
-47.3325  9.17091e+17
-47.2152  9.63659e+17
-47.0979  9.85479e+17
-46.9806  1.022e+18
-46.8633  1.10107e+18
-46.7459  1.22596e+18
-46.6286  1.35838e+18
-46.5113  1.45e+18
-46.394  1.46229e+18
-46.2767  1.42922e+18
-46.1594  1.46891e+18
-46.0421  1.79264e+18
-45.9248  2.67219e+18
-45.8075  4.35655e+18
-45.6902  7.00282e+18
-45.5729  1.05658e+19
-45.4556  1.48135e+19
-45.3383  1.92408e+19
-45.221  2.32766e+19
-45.1037  2.62397e+19
-44.9864  2.75892e+19
-44.8691  2.70915e+19
-44.7518  2.47858e+19
-44.6345  2.10255e+19
-44.5172  1.64347e+19
-44.3998  1.17615e+19
-44.2825  7.68303e+18
-44.1652  4.72694e+18
-44.0479  3.12057e+18
-43.9306  2.81637e+18
-43.8133  3.50342e+18
-43.696  4.73397e+18
-43.5787  6.04381e+18
-43.4614  7.06161e+18
-43.3441  7.57208e+18
-43.2268  7.54428e+18
-43.1095  7.08939e+18
-42.9922  6.39809e+18
-42.8749  5.6606e+18
-42.7576  5.01592e+18
-42.6403  4.52923e+18
-42.523  4.1698e+18
-42.4057  3.87087e+18
-42.2884  3.5495e+18
-42.171  3.16108e+18
-42.0537  2.6848e+18
-41.9364  2.1664e+18
-41.8191  1.67535e+18
-41.7018  1.29417e+18
-41.5845  1.07616e+18
-41.4672  1.04924e+18
-41.3499  1.21015e+18
-41.2326  1.52511e+18
-41.1153  1.93897e+18
-40.998  2.38715e+18
-40.8807  2.7987e+18
-40.7634  3.11583e+18
-40.6461  3.28216e+18
-40.5288  3.27888e+18
-40.4115  3.12315e+18
-40.2942  2.90305e+18
-40.1769  2.78461e+18
-40.0596  2.99014e+18
-39.9423  3.77388e+18
-39.825  5.36632e+18
-39.7076  7.89277e+18
-39.5903  1.13374e+19
-39.473  1.54709e+19
-39.3557  1.9881e+19
-39.2384  2.40137e+19
-39.1211  2.72519e+19
-39.0038  2.91041e+19
-38.8865  2.92195e+19
-38.7692  2.75564e+19
-38.6519  2.4351e+19
-38.5346  2.01031e+19
-38.4173  1.54553e+19
-38.3  1.10539e+19
-38.1827  7.4566e+18
-38.0654  4.97712e+18
-37.9481  3.67077e+18
-37.8308  3.36386e+18
-37.7135  3.70077e+18
-37.5962  4.29557e+18
-37.4789  4.82333e+18
-37.3615  5.07241e+18
-37.2442  5.03597e+18
-37.1269  4.80813e+18
-37.0096  4.60489e+18
-36.8923  4.58839e+18
-36.775  4.86417e+18
-36.6577  5.41275e+18
-36.5404  6.08203e+18
-36.4231  6.67223e+18
-36.3058  6.95704e+18
-36.1885  6.80273e+18
-36.0712  6.18082e+18
-35.9539  5.21483e+18
-35.8366  4.13043e+18
-35.7193  3.20379e+18
-35.602  2.70405e+18
-35.4847  2.79148e+18
-35.3674  3.52081e+18
-35.2501  4.80922e+18
-35.1328  6.46752e+18
-35.0154  8.26325e+18
-34.8981  9.96879e+18
-34.7808  1.14244e+19
-34.6635  1.25452e+19
-34.5462  1.33334e+19
-34.4289  1.38749e+19
-34.3116  1.42414e+19
-34.1943  1.45532e+19
-34.077  1.48532e+19
-33.9597  1.51542e+19
-33.8424  1.54492e+19
-33.7251  1.57001e+19
-33.6078  1.58763e+19
-33.4905  1.59557e+19
-33.3732  1.59323e+19
-33.2559  1.58384e+19
-33.1386  1.56917e+19
-33.0213  1.55321e+19
-32.904  1.54001e+19
-32.7867  1.53182e+19
-32.6693  1.5297e+19
-32.552  1.53459e+19
-32.4347  1.54912e+19
-32.3174  1.57339e+19
-32.2001  1.60605e+19
-32.0828  1.64466e+19
-31.9655  1.68246e+19
-31.8482  1.71355e+19
-31.7309  1.72788e+19
-31.6136  1.71821e+19
-31.4963  1.67887e+19
-31.379  1.60741e+19
-31.2617  1.50578e+19
-31.1444  1.37954e+19
-31.0271  1.23884e+19
-30.9098  1.09164e+19
-30.7925  9.47847e+18
-30.6752  8.13787e+18
-30.5579  6.94547e+18
-30.4406  5.95085e+18
-30.3232  5.18139e+18
-30.2059  4.71558e+18
-30.0886  4.61485e+18
-29.9713  4.97924e+18
-29.854  5.9217e+18
-29.7367  7.5342e+18
-29.6194  9.89659e+18
-29.5021  1.30306e+19
-29.3848  1.69079e+19
-29.2675  2.14581e+19
-29.1502  2.65008e+19
-29.0329  3.18454e+19
-28.9156  3.7237e+19
-28.7983  4.23746e+19
-28.681  4.69748e+19
-28.5637  5.07162e+19
-28.4464  5.33753e+19
-28.3291  5.4753e+19
-28.2118  5.47296e+19
-28.0944  5.33881e+19
-27.9771  5.08794e+19
-27.8598  4.75056e+19
-27.7425  4.368e+19
-27.6252  3.97946e+19
-27.5079  3.63534e+19
-27.3906  3.37159e+19
-27.2733  3.21879e+19
-27.156  3.19627e+19
-27.0387  3.30672e+19
-26.9214  3.5461e+19
-26.8041  3.89619e+19
-26.6868  4.334e+19
-26.5695  4.8267e+19
-26.4522  5.33882e+19
-26.3349  5.83289e+19
-26.2176  6.27478e+19
-26.1003  6.62379e+19
-25.983  6.85281e+19
-25.8657  6.94187e+19
-25.7483  6.88292e+19
-25.631  6.69008e+19
-25.5137  6.37927e+19
-25.3964  5.99372e+19
-25.2791  5.57622e+19
-25.1618  5.17705e+19
-25.0445  4.83808e+19
-24.9272  4.59896e+19
-24.8099  4.48309e+19
-24.6926  4.50511e+19
-24.5753  4.66463e+19
-24.458  4.96093e+19
-24.3407  5.38069e+19
-24.2234  5.91099e+19
-24.1061  6.54018e+19
-23.9888  7.25912e+19
-23.8715  8.06153e+19
-23.7542  8.94136e+19
-23.6369  9.90028e+19
-23.5196  1.09428e+20
-23.4023  1.20651e+20
-23.2849  1.32715e+20
-23.1676  1.45557e+20
-23.0503  1.58952e+20
-22.933  1.72707e+20
-22.8157  1.86331e+20
-22.6984  1.99333e+20
-22.5811  2.1109e+20
-22.4638  2.20888e+20
-22.3465  2.28339e+20
-22.2292  2.32912e+20
-22.1119  2.34546e+20
-21.9946  2.33345e+20
-21.8773  2.298e+20
-21.76  2.24586e+20
-21.6427  2.18507e+20
-21.5254  2.1245e+20
-21.4081  2.07376e+20
-21.2908  2.04125e+20
-21.1735  2.03422e+20
-21.0561  2.05855e+20
-20.9388  2.1172e+20
-20.8215  2.21177e+20
-20.7042  2.34187e+20
-20.5869  2.5041e+20
-20.4696  2.69201e+20
-20.3523  2.89783e+20
-20.235  3.1104e+20
-20.1177  3.31873e+20
-20.0004  3.511e+20
-19.8831  3.67499e+20
-19.7658  3.80365e+20
-19.6485  3.89194e+20
-19.5312  3.93839e+20
-19.4139  3.94792e+20
-19.2966  3.92809e+20
-19.1793  3.89035e+20
-19.062  3.84775e+20
-18.9447  3.81564e+20
-18.8274  3.80896e+20
-18.71  3.83944e+20
-18.5927  3.91929e+20
-18.4754  4.05662e+20
-18.3581  4.25664e+20
-18.2408  4.52121e+20
-18.1235  4.84732e+20
-18.0062  5.22957e+20
-17.8889  5.65987e+20
-17.7716  6.12592e+20
-17.6543  6.61635e+20
-17.537  7.11844e+20
-17.4197  7.62097e+20
-17.3024  8.11315e+20
-17.1851  8.58864e+20
-17.0678  9.04201e+20
-16.9505  9.47212e+20
-16.8332  9.87869e+20
-16.7159  1.02635e+21
-16.5986  1.06283e+21
-16.4813  1.09747e+21
-16.364  1.13036e+21
-16.2466  1.16148e+21
-16.1293  1.19118e+21
-16.012  1.21898e+21
-15.8947  1.24522e+21
-15.7774  1.26987e+21
-15.6601  1.29319e+21
-15.5428  1.31547e+21
-15.4255  1.33733e+21
-15.3082  1.35918e+21
-15.1909  1.38219e+21
-15.0736  1.40681e+21
-14.9563  1.43432e+21
-14.839  1.4654e+21
-14.7217  1.50119e+21
-14.6044  1.54224e+21
-14.4871  1.58914e+21
-14.3698  1.64203e+21
-14.2525  1.70071e+21
-14.1352  1.7645e+21
-14.0178  1.83262e+21
-13.9005  1.90353e+21
-13.7832  1.97571e+21
-13.6659  2.04761e+21
-13.5486  2.11743e+21
-13.4313  2.18372e+21
-13.314  2.24534e+21
-13.1967  2.30167e+21
-13.0794  2.35259e+21
-12.9621  2.39811e+21
-12.8448  2.43939e+21
-12.7275  2.47728e+21
-12.6102  2.51329e+21
-12.4929  2.54895e+21
-12.3756  2.58554e+21
-12.2583  2.62465e+21
-12.141  2.66728e+21
-12.0237  2.71408e+21
-11.9064  2.76529e+21
-11.7891  2.82086e+21
-11.6718  2.88018e+21
-11.5544  2.94282e+21
-11.4371  3.00822e+21
-11.3198  3.07521e+21
-11.2025  3.14362e+21
-11.0852  3.21305e+21
-10.9679  3.28362e+21
-10.8506  3.35583e+21
-10.7333  3.43029e+21
-10.616  3.50783e+21
-10.4987  3.59001e+21
-10.3814  3.6774e+21
-10.2641  3.77122e+21
-10.1468  3.8723e+21
-10.0295  3.9809e+21
-9.91217  4.09674e+21
-9.79487  4.21957e+21
-9.67756  4.34833e+21
-9.56026  4.48128e+21
-9.44295  4.61646e+21
-9.32565  4.75245e+21
-9.20834  4.88665e+21
-9.09104  5.01711e+21
-8.97373  5.14242e+21
-8.85643  5.26134e+21
-8.73913  5.37323e+21
-8.62182  5.47817e+21
-8.50452  5.57696e+21
-8.38721  5.67125e+21
-8.26991  5.7627e+21
-8.1526  5.85413e+21
-8.03529  5.94786e+21
-7.91799  6.04683e+21
-7.80069  6.15371e+21
-7.68338  6.27059e+21
-7.56608  6.39981e+21
-7.44877  6.54295e+21
-7.33146  6.70067e+21
-7.21416  6.87333e+21
-7.09685  7.06077e+21
-6.97955  7.26176e+21
-6.86224  7.47497e+21
-6.74494  7.69844e+21
-6.62763  7.92947e+21
-6.51033  8.16536e+21
-6.39302  8.40324e+21
-6.27572  8.64019e+21
-6.15842  8.87352e+21
-6.04111  9.10029e+21
-5.92381  9.31807e+21
-5.8065  9.52531e+21
-5.68919  9.71993e+21
-5.57189  9.90088e+21
-5.45458  1.00676e+22
-5.33728  1.02201e+22
-5.21997  1.03582e+22
-5.10267  1.04834e+22
-4.98536  1.0597e+22
-4.86806  1.07006e+22
-4.75075  1.07963e+22
-4.63345  1.08871e+22
-4.51614  1.09755e+22
-4.39884  1.10645e+22
-4.28154  1.11572e+22
-4.16423  1.12564e+22
-4.04692  1.1365e+22
-3.92962  1.14854e+22
-3.81231  1.16197e+22
-3.69501  1.17696e+22
-3.5777  1.19359e+22
-3.4604  1.21187e+22
-3.34309  1.23172e+22
-3.22579  1.253e+22
-3.10849  1.27549e+22
-2.99118  1.29887e+22
-2.87387  1.32279e+22
-2.75657  1.34685e+22
-2.63926  1.37062e+22
-2.52196  1.39365e+22
-2.40465  1.41555e+22
-2.28735  1.43591e+22
-2.17005  1.4544e+22
-2.05274  1.47078e+22
-1.93544  1.48484e+22
-1.81813  1.49647e+22
-1.70083  1.50568e+22
-1.58352  1.51254e+22
-1.46622  1.51719e+22
-1.34891  1.51986e+22
-1.2316  1.52078e+22
-1.1143  1.5203e+22
-0.996995  1.51872e+22
-0.87969  1.51636e+22
-0.762385  1.5135e+22
-0.64508  1.51046e+22
-0.527775  1.5075e+22
-0.41047  1.50487e+22
-0.293165  1.50273e+22
-0.17586  1.50127e+22
-0.058555  1.50056e+22
0.05875  1.50066e+22
0.176055  1.5016e+22
0.29336  1.50329e+22
0.410665  1.50562e+22
0.52797  1.50845e+22
0.645275  1.51157e+22
0.76258  1.51476e+22
0.879885  1.51774e+22
0.99719  1.52022e+22
1.1145  1.52191e+22
1.2318  1.52245e+22
1.3491  1.52156e+22
1.46641  1.51894e+22
1.58371  1.51432e+22
1.70102  1.50749e+22
1.81832  1.49831e+22
1.93563  1.48669e+22
2.05294  1.47265e+22
2.17024  1.45629e+22
2.28754  1.43781e+22
2.40485  1.41745e+22
2.52216  1.39558e+22
2.63946  1.37253e+22
2.75677  1.34878e+22
2.87407  1.32473e+22
2.99137  1.30081e+22
3.10868  1.27742e+22
3.22599  1.25495e+22
3.34329  1.23367e+22
3.4606  1.21383e+22
3.5779  1.19555e+22
3.69521  1.17895e+22
3.81251  1.16399e+22
3.92982  1.15058e+22
4.04712  1.13857e+22
4.16443  1.12775e+22
4.28173  1.11787e+22
4.39903  1.10865e+22
4.51634  1.09977e+22
4.63364  1.09097e+22
4.75095  1.08189e+22
4.86825  1.0723e+22
4.98556  1.06192e+22
5.10286  1.05053e+22
5.22017  1.03793e+22
5.33748  1.02402e+22
5.45478  1.0087e+22
5.57209  9.91932e+21
5.68939  9.73707e+21
5.8067  9.54134e+21
5.924  9.33296e+21
6.0413  9.11404e+21
6.15861  8.88638e+21
6.27591  8.65225e+21
6.39322  8.41481e+21
6.51052  8.17652e+21
6.62783  7.94033e+21
6.74514  7.70917e+21
6.86244  7.48578e+21
6.97975  7.27262e+21
7.09705  7.07184e+21
7.21436  6.88485e+21
7.33166  6.71214e+21
7.44897  6.55469e+21
7.56627  6.41189e+21
7.68358  6.28273e+21
7.80088  6.16569e+21
7.91819  6.05873e+21
8.03549  5.95969e+21
8.1528  5.86582e+21
8.2701  5.77403e+21
8.38741  5.6822e+21
8.50471  5.58763e+21
8.62202  5.48852e+21
8.73932  5.38321e+21
8.85662  5.27119e+21
8.97393  5.15216e+21
9.09123  5.02674e+21
9.20854  4.89609e+21
9.32584  4.76204e+21
9.44315  4.62614e+21
9.56045  4.49074e+21
9.67776  4.35794e+21
9.79506  4.22937e+21
9.91237  4.10651e+21
10.0297  3.99062e+21
10.147  3.88213e+21
10.2643  3.78116e+21
10.3816  3.68708e+21
10.4989  3.59959e+21
10.6162  3.51729e+21
10.7335  3.43949e+21
10.8508  3.36486e+21
10.9681  3.2924e+21
11.0854  3.22171e+21
11.2027  3.1521e+21
11.32  3.0835e+21
11.4373  3.01622e+21
11.5546  2.9509e+21
11.6719  2.88808e+21
11.7893  2.82871e+21
11.9066  2.77321e+21
12.0239  2.72193e+21
12.1412  2.67516e+21
12.2585  2.63258e+21
12.3758  2.5934e+21
12.4931  2.55661e+21
12.6104  2.5208e+21
12.7277  2.4847e+21
12.845  2.44675e+21
12.9623  2.40522e+21
13.0796  2.35931e+21
13.1969  2.30826e+21
13.3142  2.25151e+21
13.4315  2.18954e+21
13.5488  2.12307e+21
13.6661  2.05305e+21
13.7834  1.98096e+21
13.9007  1.90857e+21
14.018  1.83767e+21
14.1354  1.76949e+21
14.2527  1.70558e+21
14.37  1.64693e+21
14.4873  1.59407e+21
14.6046  1.54723e+21
14.7219  1.5062e+21
14.8392  1.47047e+21
14.9565  1.43939e+21
15.0738  1.41189e+21
15.1911  1.38717e+21
15.3084  1.3642e+21
15.4257  1.34221e+21
15.543  1.32028e+21
15.6603  1.29781e+21
15.7776  1.27438e+21
15.8949  1.24957e+21
16.0122  1.22306e+21
16.1295  1.19498e+21
16.2468  1.16523e+21
16.3641  1.13379e+21
16.4815  1.10068e+21
16.5988  1.06575e+21
16.7161  1.02911e+21
16.8334  9.90311e+20
16.9507  9.49414e+20
17.068  9.06112e+20
17.1853  8.60498e+20
17.3026  8.12718e+20
17.4199  7.63317e+20
17.5372  7.12929e+20
17.6545  6.62632e+20
17.7718  6.13476e+20
17.8891  5.66823e+20
18.0064  5.23779e+20
18.1237  4.8561e+20
18.241  4.5307e+20
18.3583  4.2673e+20
18.4756  4.06815e+20
18.5929  3.93177e+20
18.7102  3.85243e+20
18.8275  3.82264e+20
18.9449  3.83011e+20
19.0622  3.86184e+20
19.1795  3.90437e+20
19.2968  3.94139e+20
19.4141  3.96025e+20
19.5314  3.9491e+20
19.6487  3.9004e+20
19.766  3.81095e+20
19.8833  3.68e+20
20.0006  3.51423e+20
20.1179  3.32115e+20
20.2352  3.11231e+20
20.3525  2.89894e+20
20.4698  2.69265e+20
20.5871  2.50476e+20
20.7044  2.3435e+20
20.8217  2.21447e+20
20.939  2.1209e+20
21.0563  2.06357e+20
21.1736  2.04042e+20
21.291  2.04844e+20
21.4083  2.08215e+20
21.5256  2.13332e+20
21.6429  2.19422e+20
21.7602  2.25559e+20
21.8775  2.3077e+20
21.9948  2.34277e+20
22.1121  2.35351e+20
22.2294  2.33561e+20
22.3467  2.2888e+20
22.464  2.21324e+20
22.5813  2.11358e+20
22.6986  1.99521e+20
22.8159  1.86414e+20
22.9332  1.72688e+20
23.0505  1.5887e+20
23.1678  1.45423e+20
23.2851  1.32572e+20
23.4024  1.20456e+20
23.5198  1.09214e+20
23.6371  9.87991e+19
23.7544  8.92151e+19
23.8717  8.04239e+19
23.989  7.24182e+19
24.1063  6.52609e+19
24.2236  5.89999e+19
24.3409  5.37339e+19
24.4582  4.95886e+19
24.5755  4.6692e+19
24.6928  4.51336e+19
24.8101  4.49724e+19
24.9274  4.61758e+19
25.0447  4.86242e+19
25.162  5.2051e+19
25.2793  5.60681e+19
25.3966  6.02416e+19
25.5139  6.4066e+19
25.6312  6.70926e+19
25.7485  6.89926e+19
25.8658  6.94978e+19
25.9832  6.85529e+19
26.1005  6.61757e+19
26.2178  6.26484e+19
26.3351  5.82083e+19
26.4524  5.32298e+19
26.5697  4.81131e+19
26.687  4.32111e+19
26.8043  3.88781e+19
26.9216  3.54413e+19
27.0389  3.30955e+19
27.1562  3.20623e+19
27.2735  3.2358e+19
27.3908  3.39517e+19
27.5081  3.66481e+19
27.6254  4.01314e+19
27.7427  4.40364e+19
27.86  4.78683e+19
27.9773  5.12192e+19
28.0946  5.37027e+19
28.212  5.49843e+19
28.3293  5.49321e+19
28.4466  5.34799e+19
28.5639  5.07392e+19
28.6812  4.69289e+19
28.7985  4.2271e+19
28.9158  3.70905e+19
29.0331  3.16751e+19
29.1504  2.63238e+19
29.2677  2.12875e+19
29.385  1.67703e+19
29.5023  1.29101e+19
29.6196  9.80153e+18
29.7369  7.46788e+18
29.8542  5.87741e+18
29.9715  4.95836e+18
30.0888  4.59967e+18
30.2061  4.71188e+18
30.3234  5.19122e+18
30.4407  5.95682e+18
30.558  6.96214e+18
30.6754  8.14978e+18
30.7927  9.49674e+18
30.91  1.09371e+19
31.0273  1.23991e+19
31.1446  1.38012e+19
31.2619  1.50479e+19
31.3792  1.60539e+19
31.4965  1.67527e+19
31.6138  1.71349e+19
31.7311  1.72255e+19
31.8484  1.70738e+19
31.9657  1.67641e+19
32.083  1.63813e+19
32.2003  1.60023e+19
32.3176  1.56805e+19
32.4349  1.54418e+19
32.5522  1.53117e+19
32.6695  1.52703e+19
32.7868  1.53036e+19
32.9042  1.53972e+19
33.0215  1.55326e+19
33.1388  1.56991e+19
33.2561  1.58436e+19
33.3734  1.5946e+19
33.4907  1.59639e+19
33.608  1.58836e+19
33.7253  1.57112e+19
33.8426  1.54527e+19
33.9599  1.51539e+19
34.0772  1.48427e+19
34.1945  1.45429e+19
34.3118  1.42369e+19
34.4291  1.38525e+19
34.5464  1.3308e+19
34.6637  1.2497e+19
34.781  1.13705e+19
34.8983  9.90935e+18
35.0156  8.1994e+18
35.1329  6.40962e+18
35.2503  4.76407e+18
35.3676  3.50385e+18
35.4849  2.79644e+18
35.6022  2.72785e+18
35.7195  3.24995e+18
35.8368  4.17972e+18
35.9541  5.26894e+18
36.0714  6.22451e+18
36.1887  6.82894e+18
36.306  6.97249e+18
36.4233  6.67424e+18
36.5406  6.07754e+18
36.6579  5.40071e+18
36.7752  4.85621e+18
36.8925  4.58142e+18
37.0098  4.59954e+18
37.1271  4.80366e+18
37.2444  5.02228e+18
37.3617  5.05042e+18
37.479  4.78759e+18
37.5964  4.26607e+18
37.7137  3.66836e+18
37.831  3.34522e+18
37.9483  3.67694e+18
38.0656  5.01007e+18
38.1829  7.52151e+18
38.3002  1.11484e+19
38.4175  1.55544e+19
38.5348  2.02027e+19
38.6521  2.4435e+19
38.7694  2.76024e+19
38.8867  2.92302e+19
39.004  2.90556e+19
39.1213  2.7174e+19
39.2386  2.38827e+19
39.3559  1.97395e+19
39.4732  1.53271e+19
39.5905  1.12057e+19
39.7078  7.78214e+18
39.8251  5.28196e+18
39.9425  3.72178e+18
40.0598  2.96016e+18
40.1771  2.77802e+18
40.2944  2.9108e+18
40.4117  3.1341e+18
40.529  3.29168e+18
40.6463  3.29327e+18
40.7636  3.11902e+18
40.8809  2.79993e+18
40.9982  2.38183e+18
41.1155  1.93063e+18
41.2328  1.5151e+18
41.3501  1.20356e+18
41.4674  1.04431e+18
41.5847  1.07469e+18
41.702  1.30088e+18
41.8193  1.68753e+18
41.9366  2.1812e+18
42.0539  2.69957e+18
42.1712  3.17606e+18
42.2885  3.56529e+18
42.4059  3.88151e+18
42.5232  4.17704e+18
42.6405  4.53591e+18
42.7578  5.02192e+18
42.8751  5.66461e+18
42.9924  6.40648e+18
43.1097  7.1014e+18
43.227  7.55233e+18
43.3443  7.57261e+18
43.4616  7.05396e+18
43.5789  6.03494e+18
43.6962  4.71846e+18
43.8135  3.49172e+18
43.9308  2.81704e+18
44.0481  3.14575e+18
44.1654  4.77466e+18
44.2827  7.75803e+18
44.4  1.18519e+19
44.5173  1.65265e+19
44.6347  2.10924e+19
44.752  2.48382e+19
44.8693  2.70987e+19
44.9866  2.7542e+19
45.1039  2.61236e+19
45.2212  2.31383e+19
45.3385  1.90982e+19
45.4558  1.46616e+19
45.5731  1.04406e+19
45.6904  6.89671e+18
45.8077  4.28433e+18
45.925  2.62809e+18
46.0423  1.77109e+18
46.1596  1.46075e+18
46.2769  1.42486e+18
46.3942  1.45602e+18
46.5115  1.4398e+18
46.6288  1.34527e+18
46.7461  1.21273e+18
46.8634  1.09076e+18
46.9808  1.01114e+18
47.0981  9.77933e+17
47.2154  9.56083e+17
47.3327  9.07465e+17
47.45  8.06438e+17
47.5673  6.65776e+17
47.6846  5.38373e+17
47.8019  5.01153e+17
47.9192  6.35528e+17
48.0365  9.96068e+17
48.1538  1.58864e+18
48.2711  2.36934e+18
48.3884  3.23067e+18
48.5057  4.0658e+18
48.623  4.73334e+18
48.7403  5.1472e+18
48.8576  5.25875e+18
48.9749  5.04949e+18
49.0922  4.57031e+18
49.2095  3.91208e+18
49.3269  3.1701e+18
49.4442  2.46656e+18
49.5615  1.92936e+18
49.6788  1.65906e+18
49.7961  1.72898e+18
49.9134  2.15752e+18
50.0307  2.91469e+18
50.148  3.90943e+18
50.2653  4.9862e+18
50.3826  5.97411e+18
50.4999  6.69667e+18
50.6172  7.01466e+18
50.7345  6.85225e+18
50.8518  6.22663e+18
