#S 1 spectral density
#N 2
#UFWHM 17.4784
#L  abscissas [um]  spectral density
-58.5938  1.03086e+19
-58.4764  1.14733e+19
-58.3591  1.31923e+19
-58.2418  1.53589e+19
-58.1245  1.77525e+19
-58.0072  2.00402e+19
-57.8899  2.18865e+19
-57.7726  2.30263e+19
-57.6553  2.33152e+19
-57.538  2.27879e+19
-57.4207  2.1645e+19
-57.3034  2.01582e+19
-57.1861  1.86409e+19
-57.0688  1.73458e+19
-56.9515  1.64008e+19
-56.8342  1.57915e+19
-56.7169  1.538e+19
-56.5996  1.50029e+19
-56.4823  1.44714e+19
-56.365  1.36637e+19
-56.2477  1.26082e+19
-56.1303  1.13645e+19
-56.013  1.00907e+19
-55.8957  8.94394e+18
-55.7784  8.07273e+18
-55.6611  7.53168e+18
-55.5438  7.30507e+18
-55.4265  7.34225e+18
-55.3092  7.54931e+18
-55.1919  7.84373e+18
-55.0746  8.18248e+18
-54.9573  8.53407e+18
-54.84  8.90831e+18
-54.7227  9.28744e+18
-54.6054  9.6573e+18
-54.4881  9.93324e+18
-54.3708  1.00136e+19
-54.2535  9.81583e+18
-54.1362  9.27717e+18
-54.0189  8.39053e+18
-53.9016  7.25992e+18
-53.7842  6.05895e+18
-53.6669  5.0097e+18
-53.5496  4.36146e+18
-53.4323  4.32888e+18
-53.315  5.04619e+18
-53.1977  6.5427e+18
-53.0804  8.74893e+18
-52.9631  1.14704e+19
-52.8458  1.44546e+19
-52.7285  1.74207e+19
-52.6112  2.00771e+19
-52.4939  2.21551e+19
-52.3766  2.34795e+19
-52.2593  2.39339e+19
-52.142  2.35255e+19
-52.0247  2.23288e+19
-51.9074  2.04918e+19
-51.7901  1.82516e+19
-51.6728  1.58556e+19
-51.5555  1.35109e+19
-51.4381  1.14415e+19
-51.3208  9.73925e+18
-51.2035  8.4418e+18
-51.0862  7.50563e+18
-50.9689  6.8244e+18
-50.8516  6.27711e+18
-50.7343  5.77712e+18
-50.617  5.26928e+18
-50.4997  4.7677e+18
-50.3824  4.36924e+18
-50.2651  4.19715e+18
-50.1478  4.40492e+18
-50.0305  5.11447e+18
-49.9132  6.40011e+18
-49.7959  8.26223e+18
-49.6786  1.06302e+19
-49.5613  1.33466e+19
-49.444  1.62104e+19
-49.3267  1.90152e+19
-49.2094  2.15435e+19
-49.092  2.35984e+19
-48.9747  2.50535e+19
-48.8574  2.58355e+19
-48.7401  2.59381e+19
-48.6228  2.54145e+19
-48.5055  2.43897e+19
-48.3882  2.29747e+19
-48.2709  2.1351e+19
-48.1536  1.96517e+19
-48.0363  1.79733e+19
-47.919  1.63755e+19
-47.8017  1.48715e+19
-47.6844  1.3463e+19
-47.5671  1.21283e+19
-47.4498  1.08904e+19
-47.3325  9.83953e+18
-47.2152  9.07662e+18
-47.0979  8.76125e+18
-46.9806  9.0126e+18
-46.8633  9.91329e+18
-46.7459  1.14274e+19
-46.6286  1.34188e+19
-46.5113  1.56559e+19
-46.394  1.78411e+19
-46.2767  1.97081e+19
-46.1594  2.10222e+19
-46.0421  2.16932e+19
-45.9248  2.1737e+19
-45.8075  2.13084e+19
-45.6902  2.06186e+19
-45.5729  1.98716e+19
-45.4556  1.92586e+19
-45.3383  1.88807e+19
-45.221  1.88005e+19
-45.1037  1.90397e+19
-44.9864  1.96395e+19
-44.8691  2.07024e+19
-44.7518  2.24252e+19
-44.6345  2.50188e+19
-44.5172  2.86843e+19
-44.3998  3.3549e+19
-44.2825  3.95166e+19
-44.1652  4.63115e+19
-44.0479  5.33959e+19
-43.9306  6.0108e+19
-43.8133  6.56972e+19
-43.696  6.95166e+19
-43.5787  7.11646e+19
-43.4614  7.05204e+19
-43.3441  6.77867e+19
-43.2268  6.34655e+19
-43.1095  5.82517e+19
-42.9922  5.29079e+19
-42.8749  4.81009e+19
-42.7576  4.43291e+19
-42.6403  4.18222e+19
-42.523  4.05877e+19
-42.4057  4.04081e+19
-42.2884  4.09661e+19
-42.171  4.18934e+19
-42.0537  4.28398e+19
-41.9364  4.36227e+19
-41.8191  4.41348e+19
-41.7018  4.44736e+19
-41.5845  4.48207e+19
-41.4672  4.5458e+19
-41.3499  4.66989e+19
-41.2326  4.88386e+19
-41.1153  5.20742e+19
-40.998  5.64506e+19
-40.8807  6.18741e+19
-40.7634  6.80468e+19
-40.6461  7.44893e+19
-40.5288  8.05937e+19
-40.4115  8.5688e+19
-40.2942  8.92136e+19
-40.1769  9.06811e+19
-40.0596  8.98233e+19
-39.9423  8.66653e+19
-39.825  8.15232e+19
-39.7076  7.49022e+19
-39.5903  6.74341e+19
-39.473  5.98295e+19
-39.3557  5.28288e+19
-39.2384  4.69808e+19
-39.1211  4.27626e+19
-39.0038  4.05068e+19
-38.8865  4.03699e+19
-38.7692  4.2336e+19
-38.6519  4.63471e+19
-38.5346  5.21187e+19
-38.4173  5.92947e+19
-38.3  6.72716e+19
-38.1827  7.54051e+19
-38.0654  8.29474e+19
-37.9481  8.91015e+19
-37.8308  9.32415e+19
-37.7135  9.49563e+19
-37.5962  9.41097e+19
-37.4789  9.09818e+19
-37.3615  8.62451e+19
-37.2442  8.08061e+19
-37.1269  7.57091e+19
-37.0096  7.19691e+19
-36.8923  7.04188e+19
-36.775  7.1536e+19
-36.6577  7.54137e+19
-36.5404  8.16785e+19
-36.4231  8.97069e+19
-36.3058  9.86526e+19
-36.1885  1.07651e+20
-36.0712  1.15886e+20
-35.9539  1.22813e+20
-35.8366  1.28104e+20
-35.7193  1.31804e+20
-35.602  1.3406e+20
-35.4847  1.3525e+20
-35.3674  1.35851e+20
-35.2501  1.36269e+20
-35.1328  1.36898e+20
-35.0154  1.37963e+20
-34.8981  1.39698e+20
-34.7808  1.42067e+20
-34.6635  1.44898e+20
-34.5462  1.48007e+20
-34.4289  1.50951e+20
-34.3116  1.53338e+20
-34.1943  1.54705e+20
-34.077  1.54714e+20
-33.9597  1.53047e+20
-33.8424  1.49648e+20
-33.7251  1.44559e+20
-33.6078  1.38179e+20
-33.4905  1.31017e+20
-33.3732  1.23737e+20
-33.2559  1.17119e+20
-33.1386  1.11859e+20
-33.0213  1.08616e+20
-32.904  1.07844e+20
-32.7867  1.09758e+20
-32.6693  1.14407e+20
-32.552  1.21534e+20
-32.4347  1.30838e+20
-32.3174  1.41783e+20
-32.2001  1.53775e+20
-32.0828  1.66236e+20
-31.9655  1.78525e+20
-31.8482  1.90165e+20
-31.7309  2.00729e+20
-31.6136  2.0991e+20
-31.4963  2.17511e+20
-31.379  2.23532e+20
-31.2617  2.28009e+20
-31.1444  2.31114e+20
-31.0271  2.33005e+20
-30.9098  2.33781e+20
-30.7925  2.33747e+20
-30.6752  2.32992e+20
-30.5579  2.31725e+20
-30.4406  2.30066e+20
-30.3232  2.28121e+20
-30.2059  2.26128e+20
-30.0886  2.24312e+20
-29.9713  2.22845e+20
-29.854  2.22006e+20
-29.7367  2.22076e+20
-29.6194  2.2319e+20
-29.5021  2.25488e+20
-29.3848  2.29009e+20
-29.2675  2.33656e+20
-29.1502  2.39334e+20
-29.0329  2.45785e+20
-28.9156  2.52729e+20
-28.7983  2.59904e+20
-28.681  2.66951e+20
-28.5637  2.7365e+20
-28.4464  2.79694e+20
-28.3291  2.8494e+20
-28.2118  2.89373e+20
-28.0944  2.92923e+20
-27.9771  2.95699e+20
-27.8598  2.97882e+20
-27.7425  2.99491e+20
-27.6252  3.00861e+20
-27.5079  3.01978e+20
-27.3906  3.02968e+20
-27.2733  3.03761e+20
-27.156  3.04271e+20
-27.0387  3.04463e+20
-26.9214  3.04092e+20
-26.8041  3.03113e+20
-26.6868  3.01449e+20
-26.5695  2.99207e+20
-26.4522  2.96412e+20
-26.3349  2.9314e+20
-26.2176  2.89662e+20
-26.1003  2.85912e+20
-25.983  2.82106e+20
-25.8657  2.78328e+20
-25.7483  2.74546e+20
-25.631  2.70899e+20
-25.5137  2.67217e+20
-25.3964  2.63596e+20
-25.2791  2.60009e+20
-25.1618  2.56389e+20
-25.0445  2.52639e+20
-24.9272  2.48785e+20
-24.8099  2.44702e+20
-24.6926  2.40372e+20
-24.5753  2.35748e+20
-24.458  2.30961e+20
-24.3407  2.26083e+20
-24.2234  2.21291e+20
-24.1061  2.16785e+20
-23.9888  2.12807e+20
-23.8715  2.09601e+20
-23.7542  2.07409e+20
-23.6369  2.06372e+20
-23.5196  2.0659e+20
-23.4023  2.08191e+20
-23.2849  2.11169e+20
-23.1676  2.15415e+20
-23.0503  2.20831e+20
-22.933  2.27043e+20
-22.8157  2.33765e+20
-22.6984  2.40548e+20
-22.5811  2.46927e+20
-22.4638  2.5242e+20
-22.3465  2.56583e+20
-22.2292  2.59163e+20
-22.1119  2.59965e+20
-21.9946  2.59062e+20
-21.8773  2.5655e+20
-21.76  2.52691e+20
-21.6427  2.47882e+20
-21.5254  2.42443e+20
-21.4081  2.36681e+20
-21.2908  2.30811e+20
-21.1735  2.25016e+20
-21.0561  2.19427e+20
-20.9388  2.14208e+20
-20.8215  2.09477e+20
-20.7042  2.05365e+20
-20.5869  2.01982e+20
-20.4696  1.9946e+20
-20.3523  1.97787e+20
-20.235  1.96947e+20
-20.1177  1.96705e+20
-20.0004  1.9686e+20
-19.8831  1.97122e+20
-19.7658  1.9718e+20
-19.6485  1.96763e+20
-19.5312  1.95734e+20
-19.4139  1.94012e+20
-19.2966  1.91721e+20
-19.1793  1.89049e+20
-19.062  1.86342e+20
-18.9447  1.84001e+20
-18.8274  1.82514e+20
-18.71  1.82435e+20
-18.5927  1.84324e+20
-18.4754  1.88738e+20
-18.3581  1.96163e+20
-18.2408  2.0703e+20
-18.1235  2.21568e+20
-18.0062  2.39816e+20
-17.8889  2.61555e+20
-17.7716  2.8633e+20
-17.6543  3.13551e+20
-17.537  3.42346e+20
-17.4197  3.71949e+20
-17.3024  4.01552e+20
-17.1851  4.30605e+20
-17.0678  4.5876e+20
-16.9505  4.85912e+20
-16.8332  5.12424e+20
-16.7159  5.388e+20
-16.5986  5.65955e+20
-16.4813  5.94901e+20
-16.364  6.26833e+20
-16.2466  6.62844e+20
-16.1293  7.03803e+20
-16.012  7.50716e+20
-15.8947  8.0392e+20
-15.7774  8.636e+20
-15.6601  9.2944e+20
-15.5428  1.00079e+21
-15.4255  1.07653e+21
-15.3082  1.15542e+21
-15.1909  1.23588e+21
-15.0736  1.31645e+21
-14.9563  1.3956e+21
-14.839  1.47237e+21
-14.7217  1.5457e+21
-14.6044  1.61544e+21
-14.4871  1.68157e+21
-14.3698  1.74474e+21
-14.2525  1.80575e+21
-14.1352  1.86566e+21
-14.0178  1.92593e+21
-13.9005  1.98773e+21
-13.7832  2.0522e+21
-13.6659  2.12023e+21
-13.5486  2.19257e+21
-13.4313  2.26973e+21
-13.314  2.35166e+21
-13.1967  2.43818e+21
-13.0794  2.52916e+21
-12.9621  2.62378e+21
-12.8448  2.72172e+21
-12.7275  2.8222e+21
-12.6102  2.92487e+21
-12.4929  3.0291e+21
-12.3756  3.13451e+21
-12.2583  3.24093e+21
-12.141  3.34822e+21
-12.0237  3.45612e+21
-11.9064  3.56444e+21
-11.7891  3.67305e+21
-11.6718  3.78171e+21
-11.5544  3.89007e+21
-11.4371  3.99773e+21
-11.3198  4.10406e+21
-11.2025  4.20836e+21
-11.0852  4.31033e+21
-10.9679  4.40939e+21
-10.8506  4.5052e+21
-10.7333  4.59722e+21
-10.616  4.68573e+21
-10.4987  4.77136e+21
-10.3814  4.85409e+21
-10.2641  4.93495e+21
-10.1468  5.01532e+21
-10.0295  5.09617e+21
-9.91217  5.17889e+21
-9.79487  5.26526e+21
-9.67756  5.35662e+21
-9.56026  5.45408e+21
-9.44295  5.55851e+21
-9.32565  5.67119e+21
-9.20834  5.79198e+21
-9.09104  5.92103e+21
-8.97373  6.05814e+21
-8.85643  6.20265e+21
-8.73913  6.35338e+21
-8.62182  6.50917e+21
-8.50452  6.66855e+21
-8.38721  6.83043e+21
-8.26991  6.99253e+21
-8.1526  7.15362e+21
-8.03529  7.31148e+21
-7.91799  7.46458e+21
-7.80069  7.61123e+21
-7.68338  7.74936e+21
-7.56608  7.87809e+21
-7.44877  7.99639e+21
-7.33146  8.10327e+21
-7.21416  8.19845e+21
-7.09685  8.28232e+21
-6.97955  8.35544e+21
-6.86224  8.41892e+21
-6.74494  8.47499e+21
-6.62763  8.52491e+21
-6.51033  8.57156e+21
-6.39302  8.61755e+21
-6.27572  8.66567e+21
-6.15842  8.71846e+21
-6.04111  8.77844e+21
-5.92381  8.84753e+21
-5.8065  8.92769e+21
-5.68919  9.01938e+21
-5.57189  9.12308e+21
-5.45458  9.23825e+21
-5.33728  9.36407e+21
-5.21997  9.49824e+21
-5.10267  9.63897e+21
-4.98536  9.78358e+21
-4.86806  9.92907e+21
-4.75075  1.00727e+22
-4.63345  1.0212e+22
-4.51614  1.03443e+22
-4.39884  1.04676e+22
-4.28154  1.05807e+22
-4.16423  1.06828e+22
-4.04692  1.07732e+22
-3.92962  1.08528e+22
-3.81231  1.09224e+22
-3.69501  1.09832e+22
-3.5777  1.10368e+22
-3.4604  1.10854e+22
-3.34309  1.11302e+22
-3.22579  1.11732e+22
-3.10849  1.12159e+22
-2.99118  1.12591e+22
-2.87387  1.1304e+22
-2.75657  1.13509e+22
-2.63926  1.14003e+22
-2.52196  1.14518e+22
-2.40465  1.15054e+22
-2.28735  1.15604e+22
-2.17005  1.16165e+22
-2.05274  1.16738e+22
-1.93544  1.17315e+22
-1.81813  1.17898e+22
-1.70083  1.18483e+22
-1.58352  1.19074e+22
-1.46622  1.19669e+22
-1.34891  1.2027e+22
-1.2316  1.20874e+22
-1.1143  1.21477e+22
-0.996995  1.22071e+22
-0.87969  1.22651e+22
-0.762385  1.23198e+22
-0.64508  1.23704e+22
-0.527775  1.24155e+22
-0.41047  1.24534e+22
-0.293165  1.2483e+22
-0.17586  1.25032e+22
-0.058555  1.25135e+22
0.05875  1.25132e+22
0.176055  1.25027e+22
0.29336  1.2482e+22
0.410665  1.24524e+22
0.52797  1.24143e+22
0.645275  1.23693e+22
0.76258  1.23186e+22
0.879885  1.22641e+22
0.99719  1.22067e+22
1.1145  1.21477e+22
1.2318  1.20881e+22
1.3491  1.20285e+22
1.46641  1.19692e+22
1.58371  1.19104e+22
1.70102  1.18523e+22
1.81832  1.17945e+22
1.93563  1.17372e+22
2.05294  1.16802e+22
2.17024  1.1624e+22
2.28754  1.15687e+22
2.40485  1.15146e+22
2.52216  1.14619e+22
2.63946  1.14114e+22
2.75677  1.13629e+22
2.87407  1.13171e+22
2.99137  1.12731e+22
3.10868  1.12308e+22
3.22599  1.11891e+22
3.34329  1.11472e+22
3.4606  1.11033e+22
3.5779  1.1056e+22
3.69521  1.10031e+22
3.81251  1.09434e+22
3.92982  1.08745e+22
4.04712  1.07957e+22
4.16443  1.0706e+22
4.28173  1.06046e+22
4.39903  1.04919e+22
4.51634  1.03688e+22
4.63364  1.0237e+22
4.75095  1.0098e+22
4.86825  9.95445e+21
4.98556  9.80919e+21
5.10286  9.66497e+21
5.22017  9.52437e+21
5.33748  9.39046e+21
5.45478  9.26522e+21
5.57209  9.15056e+21
5.68939  9.04723e+21
5.8067  8.9561e+21
5.924  8.87659e+21
6.0413  8.80807e+21
6.15861  8.74876e+21
6.27591  8.69642e+21
6.39322  8.64883e+21
6.51052  8.60315e+21
6.62783  8.5566e+21
6.74514  8.50654e+21
6.86244  8.4507e+21
6.97975  8.38673e+21
7.09705  8.31336e+21
7.21436  8.22918e+21
7.33166  8.13323e+21
7.44897  8.02589e+21
7.56627  7.90726e+21
7.68358  7.77795e+21
7.80088  7.63919e+21
7.91819  7.49228e+21
8.03549  7.33905e+21
8.1528  7.18113e+21
8.2701  7.01999e+21
8.38741  6.85787e+21
8.50471  6.69623e+21
8.62202  6.53691e+21
8.73932  6.38134e+21
8.85662  6.23094e+21
8.97393  6.08682e+21
9.09123  5.94993e+21
9.20854  5.82107e+21
9.32584  5.70057e+21
9.44315  5.58811e+21
9.56045  5.48349e+21
9.67776  5.38626e+21
9.79506  5.29485e+21
9.91237  5.20843e+21
10.0297  5.12549e+21
10.147  5.04466e+21
10.2643  4.96432e+21
10.3816  4.8832e+21
10.4989  4.80038e+21
10.6162  4.71469e+21
10.7335  4.6259e+21
10.8508  4.53357e+21
10.9681  4.43765e+21
11.0854  4.33856e+21
11.2027  4.23646e+21
11.32  4.13172e+21
11.4373  4.02512e+21
11.5546  3.91722e+21
11.6719  3.80838e+21
11.7893  3.69944e+21
11.9066  3.59049e+21
12.0239  3.48153e+21
12.1412  3.37336e+21
12.2585  3.26571e+21
12.3758  3.15889e+21
12.4931  3.05299e+21
12.6104  2.94832e+21
12.7277  2.84531e+21
12.845  2.74442e+21
12.9623  2.64595e+21
13.0796  2.55097e+21
13.1969  2.45957e+21
13.3142  2.37274e+21
13.4315  2.2904e+21
13.5488  2.21289e+21
13.6661  2.14011e+21
13.7834  2.07169e+21
13.9007  2.00685e+21
14.018  1.94467e+21
14.1354  1.884e+21
14.2527  1.82359e+21
14.37  1.76212e+21
14.4873  1.69838e+21
14.6046  1.63159e+21
14.7219  1.56123e+21
14.8392  1.48719e+21
14.9565  1.40975e+21
15.0738  1.32983e+21
15.1911  1.24856e+21
15.3084  1.16735e+21
15.4257  1.08775e+21
15.543  1.01132e+21
15.6603  9.39363e+20
15.7776  8.73002e+20
15.8949  8.12851e+20
16.0122  7.59232e+20
16.1295  7.11963e+20
16.2468  6.70577e+20
16.3641  6.34301e+20
16.4815  6.02075e+20
16.5988  5.72817e+20
16.7161  5.45326e+20
16.8334  5.18648e+20
16.9507  4.91817e+20
17.068  4.64318e+20
17.1853  4.3584e+20
17.3026  4.0646e+20
17.4199  3.76483e+20
17.5372  3.46526e+20
17.6545  3.17409e+20
17.7718  2.89948e+20
17.8891  2.64891e+20
18.0064  2.42945e+20
18.1237  2.24512e+20
18.241  2.09789e+20
18.3583  1.98766e+20
18.4756  1.91194e+20
18.5929  1.86654e+20
18.7102  1.84646e+20
18.8275  1.84602e+20
18.9449  1.85974e+20
19.0622  1.88195e+20
19.1795  1.90782e+20
19.2968  1.93324e+20
19.4141  1.95479e+20
19.5314  1.97068e+20
19.6487  1.97975e+20
19.766  1.98241e+20
19.8833  1.98076e+20
20.0006  1.97681e+20
20.1179  1.97384e+20
20.2352  1.97481e+20
20.3525  1.9822e+20
20.4698  1.99779e+20
20.5871  2.02192e+20
20.7044  2.05434e+20
20.8217  2.09422e+20
20.939  2.14003e+20
21.0563  2.19086e+20
21.1736  2.2453e+20
21.291  2.30176e+20
21.4083  2.35917e+20
21.5256  2.41603e+20
21.6429  2.46914e+20
21.7602  2.51601e+20
21.8775  2.55339e+20
21.9948  2.57783e+20
22.1121  2.58638e+20
22.2294  2.57798e+20
22.3467  2.55156e+20
22.464  2.50994e+20
22.5813  2.45523e+20
22.6986  2.39174e+20
22.8159  2.32429e+20
22.9332  2.25767e+20
23.0505  2.19631e+20
23.1678  2.14319e+20
23.2851  2.10147e+20
23.4024  2.07276e+20
23.5198  2.05717e+20
23.6371  2.05555e+20
23.7544  2.06661e+20
23.8717  2.08897e+20
23.989  2.12108e+20
24.1063  2.16081e+20
24.2236  2.20578e+20
24.3409  2.25342e+20
24.4582  2.3016e+20
24.5755  2.34928e+20
24.6928  2.3945e+20
24.8101  2.43738e+20
24.9274  2.47756e+20
25.0447  2.5158e+20
25.162  2.55299e+20
25.2793  2.58908e+20
25.3966  2.62533e+20
25.5139  2.66145e+20
25.6312  2.69827e+20
25.7485  2.73569e+20
25.8658  2.77354e+20
25.9832  2.81262e+20
26.1005  2.85049e+20
26.2178  2.88806e+20
26.3351  2.92412e+20
26.4524  2.95684e+20
26.5697  2.98503e+20
26.687  3.00767e+20
26.8043  3.02383e+20
26.9216  3.03378e+20
27.0389  3.03708e+20
27.1562  3.03553e+20
27.2735  3.03054e+20
27.3908  3.02339e+20
27.5081  3.01407e+20
27.6254  3.00411e+20
27.7427  2.99159e+20
27.86  2.97644e+20
27.9773  2.95613e+20
28.0946  2.92917e+20
28.212  2.89479e+20
28.3293  2.85108e+20
28.4466  2.79908e+20
28.5639  2.73869e+20
28.6812  2.67176e+20
28.7985  2.60115e+20
28.9158  2.52936e+20
29.0331  2.45969e+20
29.1504  2.39518e+20
29.2677  2.33839e+20
29.385  2.29182e+20
29.5023  2.25679e+20
29.6196  2.23436e+20
29.7369  2.22359e+20
29.8542  2.22329e+20
29.9715  2.23158e+20
30.0888  2.24655e+20
30.2061  2.26533e+20
30.3234  2.28541e+20
30.4407  2.30465e+20
30.558  2.32102e+20
30.6754  2.33363e+20
30.7927  2.34053e+20
30.91  2.34036e+20
31.0273  2.33132e+20
31.1446  2.31234e+20
31.2619  2.28058e+20
31.3792  2.23528e+20
31.4965  2.17448e+20
31.6138  2.09751e+20
31.7311  2.0056e+20
31.8484  1.90001e+20
31.9657  1.78377e+20
32.083  1.66101e+20
32.2003  1.53687e+20
32.3176  1.41753e+20
32.4349  1.30853e+20
32.5522  1.21631e+20
32.6695  1.14577e+20
32.7868  1.10005e+20
32.9042  1.08137e+20
33.0215  1.08985e+20
33.1388  1.1223e+20
33.2561  1.17497e+20
33.3734  1.24089e+20
33.4907  1.31331e+20
33.608  1.38434e+20
33.7253  1.44754e+20
33.8426  1.49786e+20
33.9599  1.53129e+20
34.0772  1.54762e+20
34.1945  1.54744e+20
34.3118  1.53356e+20
34.4291  1.50966e+20
34.5464  1.48018e+20
34.6637  1.44984e+20
34.781  1.42136e+20
34.8983  1.39846e+20
35.0156  1.38147e+20
35.1329  1.37044e+20
35.2503  1.36435e+20
35.3676  1.35988e+20
35.4849  1.35402e+20
35.6022  1.34176e+20
35.7195  1.31886e+20
35.8368  1.2815e+20
35.9541  1.22801e+20
36.0714  1.15873e+20
36.1887  1.07606e+20
36.306  9.86427e+19
36.4233  8.97498e+19
36.5406  8.17933e+19
36.6579  7.55937e+19
36.7752  7.18304e+19
36.8925  7.08035e+19
37.0098  7.24104e+19
37.1271  7.62181e+19
37.2444  8.13316e+19
37.3617  8.67679e+19
37.479  9.14764e+19
37.5964  9.45363e+19
37.7137  9.53116e+19
37.831  9.35189e+19
37.9483  8.9304e+19
38.0656  8.30758e+19
38.1829  7.54979e+19
38.3002  6.73396e+19
38.4175  5.93268e+19
38.5348  5.2176e+19
38.6521  4.64184e+19
38.7694  4.24445e+19
38.8867  4.05118e+19
39.004  4.07114e+19
39.1213  4.30413e+19
39.2386  4.73171e+19
39.3559  5.32221e+19
39.4732  6.02726e+19
39.5905  6.78932e+19
39.7078  7.53904e+19
39.8251  8.20484e+19
39.9425  8.71866e+19
40.0598  9.02929e+19
40.1771  9.10953e+19
40.2944  8.96118e+19
40.4117  8.60327e+19
40.529  8.08729e+19
40.6463  7.47598e+19
40.7636  6.82789e+19
40.8809  6.21045e+19
40.9982  5.67023e+19
41.1155  5.23276e+19
41.2328  4.91228e+19
41.3501  4.70191e+19
41.4674  4.58063e+19
41.5847  4.51877e+19
41.702  4.48614e+19
41.8193  4.4527e+19
41.9366  4.4007e+19
42.0539  4.32188e+19
42.1712  4.2255e+19
42.2885  4.13383e+19
42.4059  4.07712e+19
42.5232  4.09596e+19
42.6405  4.21851e+19
42.7578  4.47313e+19
42.8751  4.85425e+19
42.9924  5.33541e+19
43.1097  5.87127e+19
43.227  6.39245e+19
43.3443  6.8221e+19
43.4616  7.09221e+19
43.5789  7.15025e+19
43.6962  6.97851e+19
43.8135  6.5866e+19
43.9308  6.02274e+19
44.0481  5.34678e+19
44.1654  4.63343e+19
44.2827  3.95077e+19
44.4  3.3511e+19
44.5173  2.86385e+19
44.6347  2.49592e+19
44.752  2.23769e+19
44.8693  2.066e+19
44.9866  1.95972e+19
45.1039  1.90099e+19
45.2212  1.87963e+19
45.3385  1.8902e+19
45.4558  1.93087e+19
45.5731  1.996e+19
45.6904  2.07271e+19
45.8077  2.14431e+19
45.925  2.18764e+19
46.0423  2.18221e+19
46.1596  2.11273e+19
46.2769  1.97887e+19
46.3942  1.78997e+19
46.5115  1.5686e+19
46.6288  1.34375e+19
46.7461  1.14449e+19
46.8634  9.94073e+18
46.9808  9.04945e+18
47.0981  8.81217e+18
47.2154  9.14505e+18
47.3327  9.92514e+18
47.45  1.09894e+19
47.5673  1.22269e+19
47.6846  1.35671e+19
47.8019  1.49955e+19
47.9192  1.64902e+19
48.0365  1.80855e+19
48.1538  1.97533e+19
48.2711  2.14485e+19
48.3884  2.30441e+19
48.5057  2.44288e+19
48.623  2.54249e+19
48.7403  2.58988e+19
48.8576  2.57716e+19
48.9749  2.49687e+19
49.0922  2.35005e+19
49.2095  2.14295e+19
49.3269  1.89239e+19
49.4442  1.61257e+19
49.5615  1.32831e+19
49.6788  1.05939e+19
49.7961  8.25463e+18
49.9134  6.40841e+18
50.0307  5.13451e+18
50.148  4.42708e+18
50.2653  4.21997e+18
50.3826  4.38921e+18
50.4999  4.7843e+18
50.6172  5.27764e+18
50.7345  5.78159e+18
