#S 1 spectral density
#N 2
#UFWHM 12.1997
#L  abscissas [um]  spectral density
-58.5938  3.02545e+19
-58.4764  2.60589e+19
-58.3591  2.12481e+19
-58.2418  1.64678e+19
-58.1245  1.22271e+19
-58.0072  8.81917e+18
-57.8899  6.37222e+18
-57.7726  4.82231e+18
-57.6553  3.99697e+18
-57.538  3.69263e+18
-57.4207  3.71341e+18
-57.3034  3.87268e+18
-57.1861  4.03315e+18
-57.0688  4.07995e+18
-56.9515  3.94104e+18
-56.8342  3.57661e+18
-56.7169  3.04314e+18
-56.5996  2.46378e+18
-56.4823  2.0864e+18
-56.365  2.22441e+18
-56.2477  3.20118e+18
-56.1303  5.29633e+18
-56.013  8.62349e+18
-55.8957  1.30974e+19
-55.7784  1.83673e+19
-55.6611  2.3908e+19
-55.5438  2.90903e+19
-55.4265  3.32317e+19
-55.3092  3.58523e+19
-55.1919  3.66704e+19
-55.0746  3.57168e+19
-54.9573  3.32847e+19
-54.84  2.98722e+19
-54.7227  2.60667e+19
-54.6054  2.24537e+19
-54.4881  1.94751e+19
-54.3708  1.73989e+19
-54.2535  1.62382e+19
-54.1362  1.58631e+19
-54.0189  1.60248e+19
-53.9016  1.64421e+19
-53.7842  1.68694e+19
-53.6669  1.71368e+19
-53.5496  1.71652e+19
-53.4323  1.70052e+19
-53.315  1.67534e+19
-53.1977  1.65594e+19
-53.0804  1.65603e+19
-52.9631  1.68475e+19
-52.8458  1.74374e+19
-52.7285  1.82737e+19
-52.6112  1.91893e+19
-52.4939  1.99959e+19
-52.3766  2.04413e+19
-52.2593  2.03114e+19
-52.142  1.946e+19
-52.0247  1.78732e+19
-51.9074  1.56863e+19
-51.7901  1.31919e+19
-51.6728  1.07846e+19
-51.5555  8.95423e+18
-51.4381  8.14086e+18
-51.3208  8.67431e+18
-51.2035  1.07335e+19
-51.0862  1.42296e+19
-50.9689  1.89086e+19
-50.8516  2.43142e+19
-50.7343  2.98333e+19
-50.617  3.48872e+19
-50.4997  3.89325e+19
-50.3824  4.15279e+19
-50.2651  4.24754e+19
-50.1478  4.16471e+19
-50.0305  3.92403e+19
-49.9132  3.54854e+19
-49.7959  3.07935e+19
-49.6786  2.56491e+19
-49.5613  2.04908e+19
-49.444  1.57396e+19
-49.3267  1.1756e+19
-49.2094  8.7677e+18
-49.092  6.87144e+18
-48.9747  6.02747e+18
-48.8574  6.10074e+18
-48.7401  6.86005e+18
-48.6228  8.06174e+18
-48.5055  9.46274e+18
-48.3882  1.08613e+19
-48.2709  1.21569e+19
-48.1536  1.32956e+19
-48.0363  1.43052e+19
-47.919  1.5237e+19
-47.8017  1.61915e+19
-47.6844  1.72355e+19
-47.5671  1.84526e+19
-47.4498  1.98887e+19
-47.3325  2.15693e+19
-47.2152  2.34765e+19
-47.0979  2.55319e+19
-46.9806  2.76133e+19
-46.8633  2.9504e+19
-46.7459  3.08783e+19
-46.6286  3.14627e+19
-46.5113  3.09214e+19
-46.394  2.91075e+19
-46.2767  2.59648e+19
-46.1594  2.17004e+19
-46.0421  1.67513e+19
-45.9248  1.16919e+19
-45.8075  7.16665e+18
-45.6902  3.77247e+18
-45.5729  1.90222e+18
-45.4556  1.70489e+18
-45.3383  3.01086e+18
-45.221  5.41915e+18
-45.1037  8.38843e+18
-44.9864  1.13941e+19
-44.8691  1.40359e+19
-44.7518  1.6131e+19
-44.6345  1.77602e+19
-44.5172  1.92213e+19
-44.3998  2.08515e+19
-44.2825  2.29811e+19
-44.1652  2.57298e+19
-44.0479  2.9019e+19
-43.9306  3.25009e+19
-43.8133  3.56694e+19
-43.696  3.80058e+19
-43.5787  3.90164e+19
-43.4614  3.84056e+19
-43.3441  3.61616e+19
-43.2268  3.25322e+19
-43.1095  2.7922e+19
-42.9922  2.28812e+19
-42.8749  1.79609e+19
-42.7576  1.3628e+19
-42.6403  1.01794e+19
-42.523  7.79078e+18
-42.4057  6.44374e+18
-42.2884  6.03268e+18
-42.171  6.36754e+18
-42.0537  7.21142e+18
-41.9364  8.33503e+18
-41.8191  9.52913e+18
-41.7018  1.06209e+19
-41.5845  1.15135e+19
-41.4672  1.21753e+19
-41.3499  1.2676e+19
-41.2326  1.31634e+19
-41.1153  1.38579e+19
-40.998  1.50126e+19
-40.8807  1.68255e+19
-40.7634  1.94071e+19
-40.6461  2.27706e+19
-40.5288  2.67291e+19
-40.4115  3.10115e+19
-40.2942  3.52487e+19
-40.1769  3.90159e+19
-40.0596  4.19654e+19
-39.9423  4.38593e+19
-39.825  4.45693e+19
-39.7076  4.40935e+19
-39.5903  4.25761e+19
-39.473  4.016e+19
-39.3557  3.71019e+19
-39.2384  3.36123e+19
-39.1211  2.99228e+19
-39.0038  2.63024e+19
-38.8865  2.30268e+19
-38.7692  2.03564e+19
-38.6519  1.86013e+19
-38.5346  1.79552e+19
-38.4173  1.85092e+19
-38.3  2.01469e+19
-38.1827  2.25788e+19
-38.0654  2.53129e+19
-37.9481  2.77978e+19
-37.8308  2.94721e+19
-37.7135  2.99839e+19
-37.5962  2.92169e+19
-37.4789  2.74154e+19
-37.3615  2.51867e+19
-37.2442  2.33201e+19
-37.1269  2.27459e+19
-37.0096  2.42029e+19
-36.8923  2.81929e+19
-36.775  3.47471e+19
-36.6577  4.34225e+19
-36.5404  5.34033e+19
-36.4231  6.35419e+19
-36.3058  7.26349e+19
-36.1885  7.96098e+19
-36.0712  8.37114e+19
-35.9539  8.45526e+19
-35.8366  8.22311e+19
-35.7193  7.71591e+19
-35.602  7.00143e+19
-35.4847  6.16651e+19
-35.3674  5.288e+19
-35.2501  4.4316e+19
-35.1328  3.64633e+19
-35.0154  2.96028e+19
-34.8981  2.38231e+19
-34.7808  1.91155e+19
-34.6635  1.53695e+19
-34.5462  1.24588e+19
-34.4289  1.02918e+19
-34.3116  8.75727e+18
-34.1943  7.79117e+18
-34.077  7.3433e+18
-33.9597  7.38493e+18
-33.8424  7.88365e+18
-33.7251  8.82538e+18
-33.6078  1.01628e+19
-33.4905  1.18538e+19
-33.3732  1.38311e+19
-33.2559  1.60023e+19
-33.1386  1.8254e+19
-33.0213  2.04727e+19
-32.904  2.25448e+19
-32.7867  2.44083e+19
-32.6693  2.60195e+19
-32.552  2.74241e+19
-32.4347  2.86388e+19
-32.3174  2.97727e+19
-32.2001  3.08688e+19
-32.0828  3.19432e+19
-31.9655  3.29422e+19
-31.8482  3.37439e+19
-31.7309  3.41755e+19
-31.6136  3.40328e+19
-31.4963  3.31322e+19
-31.379  3.13652e+19
-31.2617  2.87407e+19
-31.1444  2.53665e+19
-31.0271  2.14363e+19
-30.9098  1.72981e+19
-30.7925  1.32709e+19
-30.6752  9.7302e+18
-30.5579  6.99865e+18
-30.4406  5.31893e+18
-30.3232  4.86619e+18
-30.2059  5.70538e+18
-30.0886  7.82523e+18
-29.9713  1.11381e+19
-29.854  1.55212e+19
-29.7367  2.07953e+19
-29.6194  2.68333e+19
-29.5021  3.35143e+19
-29.3848  4.0792e+19
-29.2675  4.8685e+19
-29.1502  5.72443e+19
-29.0329  6.6598e+19
-28.9156  7.68455e+19
-28.7983  8.7999e+19
-28.681  1.00026e+20
-28.5637  1.12688e+20
-28.4464  1.2567e+20
-28.3291  1.38434e+20
-28.2118  1.50335e+20
-28.0944  1.60787e+20
-27.9771  1.69144e+20
-27.8598  1.7487e+20
-27.7425  1.77639e+20
-27.6252  1.77095e+20
-27.5079  1.73359e+20
-27.3906  1.66556e+20
-27.2733  1.57084e+20
-27.156  1.45479e+20
-27.0387  1.32368e+20
-26.9214  1.18588e+20
-26.8041  1.0497e+20
-26.6868  9.23513e+19
-26.5695  8.14694e+19
-26.4522  7.29633e+19
-26.3349  6.73356e+19
-26.2176  6.47123e+19
-26.1003  6.51234e+19
-25.983  6.82234e+19
-25.8657  7.35128e+19
-25.7483  8.04231e+19
-25.631  8.81973e+19
-25.5137  9.6264e+19
-25.3964  1.03997e+20
-25.2791  1.1096e+20
-25.1618  1.16821e+20
-25.0445  1.21475e+20
-24.9272  1.24791e+20
-24.8099  1.26926e+20
-24.6926  1.28014e+20
-24.5753  1.28303e+20
-24.458  1.28068e+20
-24.3407  1.27637e+20
-24.2234  1.27255e+20
-24.1061  1.27194e+20
-23.9888  1.2757e+20
-23.8715  1.28446e+20
-23.7542  1.29706e+20
-23.6369  1.31258e+20
-23.5196  1.32903e+20
-23.4023  1.34366e+20
-23.2849  1.35462e+20
-23.1676  1.36067e+20
-23.0503  1.36059e+20
-22.933  1.35519e+20
-22.8157  1.3447e+20
-22.6984  1.33071e+20
-22.5811  1.31591e+20
-22.4638  1.30359e+20
-22.3465  1.29828e+20
-22.2292  1.30525e+20
-22.1119  1.33032e+20
-21.9946  1.37892e+20
-21.8773  1.45632e+20
-21.76  1.56576e+20
-21.6427  1.70766e+20
-21.5254  1.87939e+20
-21.4081  2.07514e+20
-21.2908  2.28678e+20
-21.1735  2.50429e+20
-21.0561  2.7168e+20
-20.9388  2.91395e+20
-20.8215  3.08748e+20
-20.7042  3.23276e+20
-20.5869  3.34757e+20
-20.4696  3.43237e+20
-20.3523  3.49058e+20
-20.235  3.52678e+20
-20.1177  3.54763e+20
-20.0004  3.55857e+20
-19.8831  3.56287e+20
-19.7658  3.56649e+20
-19.6485  3.57087e+20
-19.5312  3.57735e+20
-19.4139  3.58518e+20
-19.2966  3.5929e+20
-19.1793  3.59856e+20
-19.062  3.59993e+20
-18.9447  3.59593e+20
-18.8274  3.58778e+20
-18.71  3.57758e+20
-18.5927  3.57216e+20
-18.4754  3.5804e+20
-18.3581  3.61178e+20
-18.2408  3.67967e+20
-18.1235  3.79395e+20
-18.0062  3.96451e+20
-17.8889  4.19589e+20
-17.7716  4.48791e+20
-17.6543  4.83757e+20
-17.537  5.23354e+20
-17.4197  5.6635e+20
-17.3024  6.11139e+20
-17.1851  6.56054e+20
-17.0678  6.99433e+20
-16.9505  7.39856e+20
-16.8332  7.76099e+20
-16.7159  8.07333e+20
-16.5986  8.32998e+20
-16.4813  8.52929e+20
-16.364  8.67224e+20
-16.2466  8.76279e+20
-16.1293  8.80332e+20
-16.012  8.80401e+20
-15.8947  8.77033e+20
-15.7774  8.71125e+20
-15.6601  8.63509e+20
-15.5428  8.55011e+20
-15.4255  8.46323e+20
-15.3082  8.38333e+20
-15.1909  8.31582e+20
-15.0736  8.26812e+20
-14.9563  8.24483e+20
-14.839  8.25255e+20
-14.7217  8.29299e+20
-14.6044  8.37124e+20
-14.4871  8.48919e+20
-14.3698  8.648e+20
-14.2525  8.84646e+20
-14.1352  9.08315e+20
-14.0178  9.35564e+20
-13.9005  9.66085e+20
-13.7832  9.99573e+20
-13.6659  1.03565e+21
-13.5486  1.07431e+21
-13.4313  1.11542e+21
-13.314  1.15902e+21
-13.1967  1.20509e+21
-13.0794  1.25403e+21
-12.9621  1.30573e+21
-12.8448  1.36033e+21
-12.7275  1.4177e+21
-12.6102  1.47778e+21
-12.4929  1.54024e+21
-12.3756  1.60471e+21
-12.2583  1.67102e+21
-12.141  1.7389e+21
-12.0237  1.80831e+21
-11.9064  1.8793e+21
-11.7891  1.95229e+21
-11.6718  2.02782e+21
-11.5544  2.1065e+21
-11.4371  2.18893e+21
-11.3198  2.27568e+21
-11.2025  2.36706e+21
-11.0852  2.46314e+21
-10.9679  2.56359e+21
-10.8506  2.66751e+21
-10.7333  2.77353e+21
-10.616  2.88005e+21
-10.4987  2.98537e+21
-10.3814  3.08717e+21
-10.2641  3.18345e+21
-10.1468  3.27289e+21
-10.0295  3.35403e+21
-9.91217  3.42612e+21
-9.79487  3.48962e+21
-9.67756  3.54525e+21
-9.56026  3.59456e+21
-9.44295  3.63987e+21
-9.32565  3.68433e+21
-9.20834  3.73094e+21
-9.09104  3.7833e+21
-8.97373  3.84487e+21
-8.85643  3.91914e+21
-8.73913  4.00871e+21
-8.62182  4.11611e+21
-8.50452  4.24278e+21
-8.38721  4.38986e+21
-8.26991  4.55683e+21
-8.1526  4.74326e+21
-8.03529  4.94718e+21
-7.91799  5.1666e+21
-7.80069  5.39904e+21
-7.68338  5.64144e+21
-7.56608  5.89153e+21
-7.44877  6.14683e+21
-7.33146  6.40524e+21
-7.21416  6.66513e+21
-7.09685  6.9255e+21
-6.97955  7.18543e+21
-6.86224  7.44451e+21
-6.74494  7.70262e+21
-6.62763  7.95866e+21
-6.51033  8.21237e+21
-6.39302  8.46289e+21
-6.27572  8.70898e+21
-6.15842  8.94926e+21
-6.04111  9.18204e+21
-5.92381  9.40568e+21
-5.8065  9.61907e+21
-5.68919  9.82061e+21
-5.57189  1.00098e+22
-5.45458  1.01867e+22
-5.33728  1.03521e+22
-5.21997  1.05069e+22
-5.10267  1.06536e+22
-4.98536  1.0794e+22
-4.86806  1.09307e+22
-4.75075  1.10661e+22
-4.63345  1.12023e+22
-4.51614  1.13407e+22
-4.39884  1.14819e+22
-4.28154  1.1626e+22
-4.16423  1.17725e+22
-4.04692  1.19192e+22
-3.92962  1.20648e+22
-3.81231  1.22072e+22
-3.69501  1.23441e+22
-3.5777  1.24743e+22
-3.4604  1.25964e+22
-3.34309  1.27101e+22
-3.22579  1.28156e+22
-3.10849  1.29151e+22
-2.99118  1.30104e+22
-2.87387  1.31049e+22
-2.75657  1.32024e+22
-2.63926  1.3307e+22
-2.52196  1.34227e+22
-2.40465  1.35538e+22
-2.28735  1.37029e+22
-2.17005  1.3873e+22
-2.05274  1.40659e+22
-1.93544  1.42811e+22
-1.81813  1.45184e+22
-1.70083  1.47757e+22
-1.58352  1.50498e+22
-1.46622  1.53366e+22
-1.34891  1.56313e+22
-1.2316  1.59285e+22
-1.1143  1.62223e+22
-0.996995  1.65067e+22
-0.87969  1.67761e+22
-0.762385  1.70242e+22
-0.64508  1.72467e+22
-0.527775  1.74388e+22
-0.41047  1.75966e+22
-0.293165  1.77172e+22
-0.17586  1.77984e+22
-0.058555  1.78388e+22
0.05875  1.78375e+22
0.176055  1.77947e+22
0.29336  1.77111e+22
0.410665  1.75883e+22
0.52797  1.74282e+22
0.645275  1.72342e+22
0.76258  1.701e+22
0.879885  1.67603e+22
0.99719  1.64897e+22
1.1145  1.62041e+22
1.2318  1.59095e+22
1.3491  1.56117e+22
1.46641  1.53164e+22
1.58371  1.5029e+22
1.70102  1.47546e+22
1.81832  1.4497e+22
1.93563  1.42593e+22
2.05294  1.40437e+22
2.17024  1.3851e+22
2.28754  1.36807e+22
2.40485  1.35311e+22
2.52216  1.34e+22
2.63946  1.32841e+22
2.75677  1.31791e+22
2.87407  1.30813e+22
2.99137  1.29864e+22
3.10868  1.28906e+22
3.22599  1.27906e+22
3.34329  1.26845e+22
3.4606  1.25704e+22
3.5779  1.24476e+22
3.69521  1.23169e+22
3.81251  1.21793e+22
3.92982  1.20361e+22
4.04712  1.18896e+22
4.16443  1.17421e+22
4.28173  1.1595e+22
4.39903  1.14499e+22
4.51634  1.1308e+22
4.63364  1.11691e+22
4.75095  1.10322e+22
4.86825  1.08962e+22
4.98556  1.07589e+22
5.10286  1.06182e+22
5.22017  1.04711e+22
5.33748  1.03161e+22
5.45478  1.01505e+22
5.57209  9.97356e+21
5.68939  9.78414e+21
5.8067  9.58246e+21
5.924  9.36905e+21
6.0413  9.14537e+21
6.15861  8.91252e+21
6.27591  8.67202e+21
6.39322  8.42603e+21
6.51052  8.17542e+21
6.62783  7.92144e+21
6.74514  7.6652e+21
6.86244  7.40748e+21
6.97975  7.14835e+21
7.09705  6.88865e+21
7.21436  6.62876e+21
7.33166  6.36922e+21
7.44897  6.11156e+21
7.56627  5.85723e+21
7.68358  5.60808e+21
7.80088  5.36657e+21
7.91819  5.13526e+21
8.03549  4.91708e+21
8.1528  4.71445e+21
8.2701  4.52914e+21
8.38741  4.36318e+21
8.50471  4.21719e+21
8.62202  4.09145e+21
8.73932  3.98471e+21
8.85662  3.89575e+21
8.97393  3.82207e+21
9.09123  3.76087e+21
9.20854  3.70885e+21
9.32584  3.66255e+21
9.44315  3.61835e+21
9.56045  3.57312e+21
9.67776  3.52409e+21
9.79506  3.46865e+21
9.91237  3.40546e+21
10.0297  3.33367e+21
10.147  3.25304e+21
10.2643  3.16416e+21
10.3816  3.06824e+21
10.4989  2.96702e+21
10.6162  2.86233e+21
10.7335  2.75625e+21
10.8508  2.65077e+21
10.9681  2.54735e+21
11.0854  2.4475e+21
11.2027  2.35185e+21
11.32  2.26077e+21
11.4373  2.17437e+21
11.5546  2.09221e+21
11.6719  2.01379e+21
11.7893  1.93859e+21
11.9066  1.86589e+21
12.0239  1.795e+21
12.1412  1.726e+21
12.2585  1.65841e+21
12.3758  1.59245e+21
12.4931  1.52827e+21
12.6104  1.46617e+21
12.7277  1.40644e+21
12.845  1.34941e+21
12.9623  1.29508e+21
13.0796  1.24379e+21
13.1969  1.19518e+21
13.3142  1.14945e+21
13.4315  1.10624e+21
13.5488  1.06548e+21
13.6661  1.02725e+21
13.7834  9.9153e+20
13.9007  9.58509e+20
14.018  9.28452e+20
14.1354  9.01667e+20
14.2527  8.78493e+20
14.37  8.59161e+20
14.4873  8.43741e+20
14.6046  8.32367e+20
14.7219  8.24925e+20
14.8392  8.21248e+20
14.9565  8.20871e+20
15.0738  8.23502e+20
15.1911  8.28588e+20
15.3084  8.35578e+20
15.4257  8.4378e+20
15.543  8.52642e+20
15.6603  8.61378e+20
15.7776  8.69245e+20
15.8949  8.75333e+20
16.0122  8.78912e+20
16.1295  8.79017e+20
16.2468  8.7495e+20
16.3641  8.66056e+20
16.4815  8.5181e+20
16.5988  8.31884e+20
16.7161  8.06096e+20
16.8334  7.74853e+20
16.9507  7.38486e+20
17.068  6.98004e+20
17.1853  6.54555e+20
17.3026  6.09624e+20
17.4199  5.6477e+20
17.5372  5.21735e+20
17.6545  4.82139e+20
17.7718  4.47349e+20
17.8891  4.18154e+20
18.0064  3.95181e+20
18.1237  3.78287e+20
18.241  3.66892e+20
18.3583  3.60201e+20
18.4756  3.57112e+20
18.5929  3.56383e+20
18.7102  3.56863e+20
18.8275  3.57883e+20
18.9449  3.58732e+20
19.0622  3.59107e+20
19.1795  3.5901e+20
19.2968  3.5843e+20
19.4141  3.5772e+20
19.5314  3.56985e+20
19.6487  3.56371e+20
19.766  3.56047e+20
19.8833  3.55717e+20
20.0006  3.55332e+20
20.1179  3.54348e+20
20.2352  3.52382e+20
20.3525  3.48758e+20
20.4698  3.42923e+20
20.5871  3.34388e+20
20.7044  3.22897e+20
20.8217  3.08338e+20
20.939  2.90906e+20
21.0563  2.7112e+20
21.1736  2.49785e+20
21.291  2.28016e+20
21.4083  2.06833e+20
21.5256  1.87212e+20
21.6429  1.7008e+20
21.7602  1.55958e+20
21.8775  1.45096e+20
21.9948  1.37432e+20
22.1121  1.3264e+20
22.2294  1.30209e+20
22.3467  1.29628e+20
22.464  1.30205e+20
22.5813  1.31487e+20
22.6986  1.33016e+20
22.8159  1.34462e+20
22.9332  1.35549e+20
23.0505  1.36141e+20
23.1678  1.36147e+20
23.2851  1.35579e+20
23.4024  1.34477e+20
23.5198  1.33073e+20
23.6371  1.31479e+20
23.7544  1.29977e+20
23.8717  1.28761e+20
23.989  1.27965e+20
24.1063  1.27669e+20
24.2236  1.27795e+20
24.3409  1.28209e+20
24.4582  1.28735e+20
24.5755  1.28966e+20
24.6928  1.28701e+20
24.8101  1.27611e+20
24.9274  1.25477e+20
25.0447  1.22091e+20
25.162  1.17378e+20
25.2793  1.11417e+20
25.3966  1.0436e+20
25.5139  9.65611e+19
25.6312  8.84437e+19
25.7485  8.05894e+19
25.8658  7.36884e+19
25.9832  6.83592e+19
26.1005  6.53242e+19
26.2178  6.4984e+19
26.3351  6.76272e+19
26.4524  7.33293e+19
26.5697  8.18555e+19
26.687  9.27392e+19
26.8043  1.05358e+20
26.9216  1.18911e+20
27.0389  1.32576e+20
27.1562  1.45541e+20
27.2735  1.57002e+20
27.3908  1.66312e+20
27.5081  1.72975e+20
27.6254  1.76576e+20
27.7427  1.77e+20
27.86  1.74202e+20
27.9773  1.68434e+20
28.0946  1.60106e+20
28.212  1.49672e+20
28.3293  1.37834e+20
28.4466  1.25152e+20
28.5639  1.12274e+20
28.6812  9.97042e+19
28.7985  8.7754e+19
28.9158  7.66577e+19
29.0331  6.64589e+19
29.1504  5.71378e+19
29.2677  4.85923e+19
29.385  4.07198e+19
29.5023  3.34443e+19
29.6196  2.67575e+19
29.7369  2.07157e+19
29.8542  1.54445e+19
29.9715  1.10819e+19
30.0888  7.77414e+18
30.2061  5.66719e+18
30.3234  4.8426e+18
30.4407  5.3124e+18
30.558  6.99677e+18
30.6754  9.74471e+18
30.7927  1.32699e+19
30.91  1.7277e+19
31.0273  2.14133e+19
31.1446  2.53138e+19
31.2619  2.86767e+19
31.3792  3.12899e+19
31.4965  3.3051e+19
31.6138  3.39717e+19
31.7311  3.41327e+19
31.8484  3.37299e+19
31.9657  3.29716e+19
32.083  3.20128e+19
32.2003  3.09789e+19
32.3176  2.99166e+19
32.4349  2.88183e+19
32.5522  2.76014e+19
32.6695  2.61987e+19
32.7868  2.45711e+19
32.9042  2.27009e+19
33.0215  2.06005e+19
33.1388  1.83678e+19
33.2561  1.60918e+19
33.3734  1.39094e+19
33.4907  1.19145e+19
33.608  1.02056e+19
33.7253  8.86103e+18
33.8426  7.91521e+18
33.9599  7.42376e+18
34.0772  7.38999e+18
34.1945  7.85788e+18
34.3118  8.85012e+18
34.4291  1.04227e+19
34.5464  1.26355e+19
34.6637  1.55778e+19
34.781  1.93818e+19
34.8983  2.41498e+19
35.0156  2.99861e+19
35.1329  3.69061e+19
35.2503  4.47996e+19
35.3676  5.34044e+19
35.4849  6.21906e+19
35.6022  7.05238e+19
35.7195  7.75945e+19
35.8368  8.26181e+19
35.9541  8.48289e+19
36.0714  8.38681e+19
36.1887  7.96873e+19
36.306  7.26027e+19
36.4233  6.34197e+19
36.5406  5.32358e+19
36.6579  4.32605e+19
36.7752  3.45834e+19
36.8925  2.80482e+19
37.0098  2.40952e+19
37.1271  2.26506e+19
37.2444  2.32575e+19
37.3617  2.51274e+19
37.479  2.73521e+19
37.5964  2.91158e+19
37.7137  2.98713e+19
37.831  2.93284e+19
37.9483  2.76486e+19
38.0656  2.51469e+19
38.1829  2.24238e+19
38.3002  2.00188e+19
38.4175  1.84005e+19
38.5348  1.78884e+19
38.6521  1.8554e+19
38.7694  2.03334e+19
38.8867  2.30038e+19
39.004  2.62892e+19
39.1213  2.99132e+19
39.2386  3.35854e+19
39.3559  3.70691e+19
39.4732  4.0118e+19
39.5905  4.25284e+19
39.7078  4.40604e+19
39.8251  4.45446e+19
39.9425  4.38549e+19
40.0598  4.19665e+19
40.1771  3.90352e+19
40.2944  3.52843e+19
40.4117  3.10735e+19
40.529  2.67974e+19
40.6463  2.28394e+19
40.7636  1.94945e+19
40.8809  1.68957e+19
40.9982  1.50727e+19
41.1155  1.3903e+19
41.2328  1.31766e+19
41.3501  1.26521e+19
41.4674  1.21152e+19
41.5847  1.14243e+19
41.702  1.05114e+19
41.8193  9.40573e+18
41.9366  8.21637e+18
42.0539  7.10598e+18
42.1712  6.28371e+18
42.2885  5.9811e+18
42.4059  6.42616e+18
42.5232  7.81257e+18
42.6405  1.02364e+19
42.7578  1.37246e+19
42.8751  1.80943e+19
42.9924  2.30435e+19
43.1097  2.80847e+19
43.227  3.2706e+19
43.3443  3.63369e+19
43.4616  3.85453e+19
43.5789  3.91193e+19
43.6962  3.80874e+19
43.8135  3.57375e+19
43.9308  3.25305e+19
44.0481  2.90325e+19
44.1654  2.5721e+19
44.2827  2.29565e+19
44.4  2.08211e+19
44.5173  1.91754e+19
44.6347  1.76957e+19
44.752  1.60179e+19
44.8693  1.38907e+19
44.9866  1.12418e+19
45.1039  8.23217e+18
45.2212  5.28088e+18
45.3385  2.91374e+18
45.4558  1.66623e+18
45.5731  1.93915e+18
45.6904  3.87448e+18
45.8077  7.33504e+18
45.925  1.18954e+19
46.0423  1.69672e+19
46.1596  2.18981e+19
46.2769  2.61073e+19
46.3942  2.9205e+19
46.5115  3.09588e+19
46.6288  3.14442e+19
46.7461  3.08169e+19
46.8634  2.94002e+19
46.9808  2.75221e+19
47.0981  2.54426e+19
47.2154  2.33993e+19
47.3327  2.14998e+19
47.45  1.98588e+19
47.5673  1.84532e+19
47.6846  1.72396e+19
47.8019  1.61984e+19
47.9192  1.52539e+19
48.0365  1.43136e+19
48.1538  1.32982e+19
48.2711  1.21332e+19
48.3884  1.08239e+19
48.5057  9.39852e+18
48.623  8.0042e+18
48.7403  6.80711e+18
48.8576  6.06749e+18
48.9749  6.03235e+18
49.0922  6.91739e+18
49.2095  8.85889e+18
49.3269  1.18987e+19
49.4442  1.5906e+19
49.5615  2.0668e+19
49.6788  2.58158e+19
49.7961  3.09354e+19
49.9134  3.55543e+19
50.0307  3.92302e+19
50.148  4.15662e+19
50.2653  4.22981e+19
50.3826  4.132e+19
50.4999  3.86593e+19
50.6172  3.46004e+19
50.7345  2.95557e+19
50.8518  2.40695e+19
