#S 1 spectral density
#N 2
#UFWHM 36.2472
#L  abscissas [um]  spectral density
-58.5938  2.56642e+20
-58.4764  2.58503e+20
-58.3591  2.59943e+20
-58.2418  2.61202e+20
-58.1245  2.62374e+20
-58.0072  2.63449e+20
-57.8899  2.64284e+20
-57.7726  2.64654e+20
-57.6553  2.64482e+20
-57.538  2.63686e+20
-57.4207  2.62228e+20
-57.3034  2.60219e+20
-57.1861  2.57679e+20
-57.0688  2.54538e+20
-56.9515  2.50707e+20
-56.8342  2.45973e+20
-56.7169  2.40172e+20
-56.5996  2.33186e+20
-56.4823  2.24968e+20
-56.365  2.15749e+20
-56.2477  2.05872e+20
-56.1303  1.9597e+20
-56.013  1.86597e+20
-55.8957  1.78463e+20
-55.7784  1.72046e+20
-55.6611  1.67829e+20
-55.5438  1.66088e+20
-55.4265  1.66788e+20
-55.3092  1.69937e+20
-55.1919  1.75354e+20
-55.0746  1.82766e+20
-54.9573  1.91884e+20
-54.84  2.02227e+20
-54.7227  2.13397e+20
-54.6054  2.24725e+20
-54.4881  2.35569e+20
-54.3708  2.45334e+20
-54.2535  2.53221e+20
-54.1362  2.58623e+20
-54.0189  2.61157e+20
-53.9016  2.60669e+20
-53.7842  2.57006e+20
-53.6669  2.50592e+20
-53.5496  2.41831e+20
-53.4323  2.31367e+20
-53.315  2.19937e+20
-53.1977  2.08173e+20
-53.0804  1.96832e+20
-52.9631  1.86493e+20
-52.8458  1.77652e+20
-52.7285  1.70657e+20
-52.6112  1.65739e+20
-52.4939  1.62943e+20
-52.3766  1.62167e+20
-52.2593  1.6314e+20
-52.142  1.65541e+20
-52.0247  1.68989e+20
-51.9074  1.73001e+20
-51.7901  1.77171e+20
-51.6728  1.8108e+20
-51.5555  1.84359e+20
-51.4381  1.86786e+20
-51.3208  1.8813e+20
-51.2035  1.88293e+20
-51.0862  1.87132e+20
-50.9689  1.84804e+20
-50.8516  1.81454e+20
-50.7343  1.77218e+20
-50.617  1.72487e+20
-50.4997  1.6763e+20
-50.3824  1.63034e+20
-50.2651  1.59138e+20
-50.1478  1.56185e+20
-50.0305  1.54394e+20
-49.9132  1.53799e+20
-49.7959  1.54315e+20
-49.6786  1.55782e+20
-49.5613  1.57766e+20
-49.444  1.59893e+20
-49.3267  1.61755e+20
-49.2094  1.63021e+20
-49.092  1.63272e+20
-48.9747  1.62407e+20
-48.8574  1.60258e+20
-48.7401  1.56887e+20
-48.6228  1.52485e+20
-48.5055  1.47227e+20
-48.3882  1.41596e+20
-48.2709  1.35935e+20
-48.1536  1.30668e+20
-48.0363  1.26178e+20
-47.919  1.22751e+20
-47.8017  1.20565e+20
-47.6844  1.19705e+20
-47.5671  1.20076e+20
-47.4498  1.21581e+20
-47.3325  1.2405e+20
-47.2152  1.27195e+20
-47.0979  1.30793e+20
-46.9806  1.34482e+20
-46.8633  1.3788e+20
-46.7459  1.40628e+20
-46.6286  1.42312e+20
-46.5113  1.42573e+20
-46.394  1.41069e+20
-46.2767  1.37783e+20
-46.1594  1.32808e+20
-46.0421  1.26438e+20
-45.9248  1.19213e+20
-45.8075  1.11764e+20
-45.6902  1.04712e+20
-45.5729  9.8621e+19
-45.4556  9.38171e+19
-45.3383  9.04019e+19
-45.221  8.83216e+19
-45.1037  8.73237e+19
-44.9864  8.71658e+19
-44.8691  8.75884e+19
-44.7518  8.85052e+19
-44.6345  8.99579e+19
-44.5172  9.21024e+19
-44.3998  9.51073e+19
-44.2825  9.91231e+19
-44.1652  1.0408e+20
-44.0479  1.09779e+20
-43.9306  1.15848e+20
-43.8133  1.21739e+20
-43.696  1.27018e+20
-43.5787  1.31239e+20
-43.4614  1.34198e+20
-43.3441  1.35899e+20
-43.2268  1.36535e+20
-43.1095  1.36443e+20
-42.9922  1.36034e+20
-42.8749  1.35624e+20
-42.7576  1.35462e+20
-42.6403  1.35655e+20
-42.523  1.36131e+20
-42.4057  1.36769e+20
-42.2884  1.37368e+20
-42.171  1.37751e+20
-42.0537  1.37795e+20
-41.9364  1.37451e+20
-41.8191  1.36761e+20
-41.7018  1.35806e+20
-41.5845  1.34719e+20
-41.4672  1.33674e+20
-41.3499  1.32831e+20
-41.2326  1.32359e+20
-41.1153  1.3239e+20
-40.998  1.33036e+20
-40.8807  1.34355e+20
-40.7634  1.36346e+20
-40.6461  1.38931e+20
-40.5288  1.42e+20
-40.4115  1.45429e+20
-40.2942  1.49051e+20
-40.1769  1.52799e+20
-40.0596  1.56625e+20
-39.9423  1.60566e+20
-39.825  1.64647e+20
-39.7076  1.68902e+20
-39.5903  1.73407e+20
-39.473  1.78029e+20
-39.3557  1.82617e+20
-39.2384  1.86985e+20
-39.1211  1.90904e+20
-39.0038  1.9422e+20
-38.8865  1.96919e+20
-38.7692  1.99166e+20
-38.6519  2.01278e+20
-38.5346  2.03647e+20
-38.4173  2.06706e+20
-38.3  2.10783e+20
-38.1827  2.16026e+20
-38.0654  2.22279e+20
-37.9481  2.29233e+20
-37.8308  2.36315e+20
-37.7135  2.42964e+20
-37.5962  2.48636e+20
-37.4789  2.5304e+20
-37.3615  2.56066e+20
-37.2442  2.57921e+20
-37.1269  2.59125e+20
-37.0096  2.6024e+20
-36.8923  2.61883e+20
-36.775  2.64575e+20
-36.6577  2.68659e+20
-36.5404  2.74326e+20
-36.4231  2.81474e+20
-36.3058  2.89984e+20
-36.1885  2.99572e+20
-36.0712  3.0999e+20
-35.9539  3.21019e+20
-35.8366  3.32397e+20
-35.7193  3.44087e+20
-35.602  3.55856e+20
-35.4847  3.67596e+20
-35.3674  3.79069e+20
-35.2501  3.90106e+20
-35.1328  4.00467e+20
-35.0154  4.09954e+20
-34.8981  4.187e+20
-34.7808  4.26644e+20
-34.6635  4.33994e+20
-34.5462  4.41101e+20
-34.4289  4.48318e+20
-34.3116  4.55882e+20
-34.1943  4.64126e+20
-34.077  4.73243e+20
-33.9597  4.83344e+20
-33.8424  4.94332e+20
-33.7251  5.06135e+20
-33.6078  5.18621e+20
-33.4905  5.31625e+20
-33.3732  5.44889e+20
-33.2559  5.58345e+20
-33.1386  5.71765e+20
-33.0213  5.85099e+20
-32.904  5.9821e+20
-32.7867  6.11102e+20
-32.6693  6.23751e+20
-32.552  6.36124e+20
-32.4347  6.48478e+20
-32.3174  6.60756e+20
-32.2001  6.73112e+20
-32.0828  6.8559e+20
-31.9655  6.98152e+20
-31.8482  7.10843e+20
-31.7309  7.23358e+20
-31.6136  7.35703e+20
-31.4963  7.4752e+20
-31.379  7.58577e+20
-31.2617  7.68668e+20
-31.1444  7.77443e+20
-31.0271  7.84999e+20
-30.9098  7.91122e+20
-30.7925  7.95994e+20
-30.6752  7.99678e+20
-30.5579  8.02515e+20
-30.4406  8.04893e+20
-30.3232  8.0726e+20
-30.2059  8.10573e+20
-30.0886  8.15305e+20
-29.9713  8.22314e+20
-29.854  8.32381e+20
-29.7367  8.46184e+20
-29.6194  8.6411e+20
-29.5021  8.86422e+20
-29.3848  9.1313e+20
-29.2675  9.44023e+20
-29.1502  9.78318e+20
-29.0329  1.01522e+21
-28.9156  1.05368e+21
-28.7983  1.09244e+21
-28.681  1.13009e+21
-28.5637  1.16546e+21
-28.4464  1.19729e+21
-28.3291  1.22465e+21
-28.2118  1.24677e+21
-28.0944  1.26336e+21
-27.9771  1.27449e+21
-27.8598  1.28044e+21
-27.7425  1.28232e+21
-27.6252  1.28089e+21
-27.5079  1.27766e+21
-27.3906  1.27388e+21
-27.2733  1.27094e+21
-27.156  1.27023e+21
-27.0387  1.27258e+21
-26.9214  1.27915e+21
-26.8041  1.29035e+21
-26.6868  1.30645e+21
-26.5695  1.32743e+21
-26.4522  1.35279e+21
-26.3349  1.38223e+21
-26.2176  1.41481e+21
-26.1003  1.44979e+21
-25.983  1.48601e+21
-25.8657  1.52264e+21
-25.7483  1.55895e+21
-25.631  1.59422e+21
-25.5137  1.62854e+21
-25.3964  1.66139e+21
-25.2791  1.6931e+21
-25.1618  1.72393e+21
-25.0445  1.75423e+21
-24.9272  1.78428e+21
-24.8099  1.8142e+21
-24.6926  1.84406e+21
-24.5753  1.87394e+21
-24.458  1.90318e+21
-24.3407  1.93134e+21
-24.2234  1.95777e+21
-24.1061  1.9817e+21
-23.9888  2.00227e+21
-23.8715  2.01883e+21
-23.7542  2.03088e+21
-23.6369  2.03804e+21
-23.5196  2.04027e+21
-23.4023  2.03799e+21
-23.2849  2.03205e+21
-23.1676  2.02338e+21
-23.0503  2.01383e+21
-22.933  2.00466e+21
-22.8157  1.99798e+21
-22.6984  1.99546e+21
-22.5811  1.99874e+21
-22.4638  2.00937e+21
-22.3465  2.02817e+21
-22.2292  2.05613e+21
-22.1119  2.09331e+21
-21.9946  2.13942e+21
-21.8773  2.19368e+21
-21.76  2.25461e+21
-21.6427  2.32072e+21
-21.5254  2.3897e+21
-21.4081  2.45926e+21
-21.2908  2.52668e+21
-21.1735  2.58944e+21
-21.0561  2.64545e+21
-20.9388  2.69282e+21
-20.8215  2.73082e+21
-20.7042  2.75847e+21
-20.5869  2.77623e+21
-20.4696  2.78497e+21
-20.3523  2.78593e+21
-20.235  2.78095e+21
-20.1177  2.77178e+21
-20.0004  2.76051e+21
-19.8831  2.7493e+21
-19.7658  2.73953e+21
-19.6485  2.73283e+21
-19.5312  2.73027e+21
-19.4139  2.73272e+21
-19.2966  2.74036e+21
-19.1793  2.75336e+21
-19.062  2.77142e+21
-18.9447  2.79397e+21
-18.8274  2.82016e+21
-18.71  2.84951e+21
-18.5927  2.88143e+21
-18.4754  2.91531e+21
-18.3581  2.95133e+21
-18.2408  2.98911e+21
-18.1235  3.02919e+21
-18.0062  3.07186e+21
-17.8889  3.11744e+21
-17.7716  3.16632e+21
-17.6543  3.2183e+21
-17.537  3.27345e+21
-17.4197  3.33112e+21
-17.3024  3.39046e+21
-17.1851  3.45025e+21
-17.0678  3.50901e+21
-16.9505  3.56529e+21
-16.8332  3.61738e+21
-16.7159  3.66362e+21
-16.5986  3.70241e+21
-16.4813  3.73227e+21
-16.364  3.75248e+21
-16.2466  3.76245e+21
-16.1293  3.76262e+21
-16.012  3.75335e+21
-15.8947  3.73629e+21
-15.7774  3.71342e+21
-15.6601  3.68691e+21
-15.5428  3.65965e+21
-15.4255  3.63422e+21
-15.3082  3.61335e+21
-15.1909  3.5997e+21
-15.0736  3.59493e+21
-14.9563  3.60076e+21
-14.839  3.61789e+21
-14.7217  3.64668e+21
-14.6044  3.68653e+21
-14.4871  3.73657e+21
-14.3698  3.79523e+21
-14.2525  3.86053e+21
-14.1352  3.92994e+21
-14.0178  4.00135e+21
-13.9005  4.07215e+21
-13.7832  4.13997e+21
-13.6659  4.20307e+21
-13.5486  4.2594e+21
-13.4313  4.30813e+21
-13.314  4.3485e+21
-13.1967  4.38046e+21
-13.0794  4.40447e+21
-12.9621  4.42104e+21
-12.8448  4.43158e+21
-12.7275  4.4372e+21
-12.6102  4.43925e+21
-12.4929  4.43901e+21
-12.3756  4.43758e+21
-12.2583  4.43603e+21
-12.141  4.43519e+21
-12.0237  4.43547e+21
-11.9064  4.43716e+21
-11.7891  4.44039e+21
-11.6718  4.44529e+21
-11.5544  4.45185e+21
-11.4371  4.46022e+21
-11.3198  4.47036e+21
-11.2025  4.4827e+21
-11.0852  4.4977e+21
-10.9679  4.51561e+21
-10.8506  4.53726e+21
-10.7333  4.563e+21
-10.616  4.59325e+21
-10.4987  4.62851e+21
-10.3814  4.66855e+21
-10.2641  4.71327e+21
-10.1468  4.76207e+21
-10.0295  4.81394e+21
-9.91217  4.86778e+21
-9.79487  4.92196e+21
-9.67756  4.97507e+21
-9.56026  5.02523e+21
-9.44295  5.07055e+21
-9.32565  5.1097e+21
-9.20834  5.14111e+21
-9.09104  5.16371e+21
-8.97373  5.17709e+21
-8.85643  5.18085e+21
-8.73913  5.17565e+21
-8.62182  5.16229e+21
-8.50452  5.14226e+21
-8.38721  5.11745e+21
-8.26991  5.08979e+21
-8.1526  5.06172e+21
-8.03529  5.03549e+21
-7.91799  5.01323e+21
-7.80069  4.9969e+21
-7.68338  4.98797e+21
-7.56608  4.98788e+21
-7.44877  4.99758e+21
-7.33146  5.01717e+21
-7.21416  5.04655e+21
-7.09685  5.08542e+21
-6.97955  5.13263e+21
-6.86224  5.18705e+21
-6.74494  5.24695e+21
-6.62763  5.31053e+21
-6.51033  5.37579e+21
-6.39302  5.44073e+21
-6.27572  5.5031e+21
-6.15842  5.56116e+21
-6.04111  5.61298e+21
-5.92381  5.65696e+21
-5.8065  5.692e+21
-5.68919  5.71707e+21
-5.57189  5.73167e+21
-5.45458  5.7356e+21
-5.33728  5.72904e+21
-5.21997  5.71276e+21
-5.10267  5.68753e+21
-4.98536  5.65498e+21
-4.86806  5.61666e+21
-4.75075  5.57438e+21
-4.63345  5.53034e+21
-4.51614  5.48656e+21
-4.39884  5.44524e+21
-4.28154  5.40851e+21
-4.16423  5.37808e+21
-4.04692  5.35588e+21
-3.92962  5.34324e+21
-3.81231  5.34119e+21
-3.69501  5.35047e+21
-3.5777  5.3712e+21
-3.4604  5.40309e+21
-3.34309  5.44543e+21
-3.22579  5.49685e+21
-3.10849  5.55574e+21
-2.99118  5.6198e+21
-2.87387  5.68682e+21
-2.75657  5.75447e+21
-2.63926  5.81989e+21
-2.52196  5.88058e+21
-2.40465  5.93448e+21
-2.28735  5.97928e+21
-2.17005  6.01352e+21
-2.05274  6.03587e+21
-1.93544  6.0459e+21
-1.81813  6.04332e+21
-1.70083  6.02885e+21
-1.58352  6.00323e+21
-1.46622  5.96798e+21
-1.34891  5.92482e+21
-1.2316  5.87575e+21
-1.1143  5.82284e+21
-0.996995  5.76823e+21
-0.87969  5.71394e+21
-0.762385  5.66192e+21
-0.64508  5.61386e+21
-0.527775  5.57132e+21
-0.41047  5.53573e+21
-0.293165  5.50809e+21
-0.17586  5.48928e+21
-0.058555  5.47995e+21
0.05875  5.48026e+21
0.176055  5.49035e+21
0.29336  5.50984e+21
0.410665  5.53816e+21
0.52797  5.57429e+21
0.645275  5.61725e+21
0.76258  5.66579e+21
0.879885  5.71807e+21
0.99719  5.7725e+21
1.1145  5.82728e+21
1.2318  5.88009e+21
1.3491  5.92912e+21
1.46641  5.97213e+21
1.58371  6.00724e+21
1.70102  6.03262e+21
1.81832  6.04689e+21
1.93563  6.04933e+21
2.05294  6.03913e+21
2.17024  6.01653e+21
2.28754  5.98224e+21
2.40485  5.93733e+21
2.52216  5.8834e+21
2.63946  5.82256e+21
2.75677  5.75723e+21
2.87407  5.68966e+21
2.99137  5.62273e+21
3.10868  5.55869e+21
3.22599  5.50002e+21
3.34329  5.44875e+21
3.4606  5.40672e+21
3.5779  5.37503e+21
3.69521  5.35465e+21
3.81251  5.3458e+21
3.92982  5.3483e+21
4.04712  5.36141e+21
4.16443  5.38405e+21
4.28173  5.41501e+21
4.39903  5.45219e+21
4.51634  5.49391e+21
4.63364  5.53811e+21
4.75095  5.58245e+21
4.86825  5.62488e+21
4.98556  5.66337e+21
5.10286  5.69596e+21
5.22017  5.72096e+21
5.33748  5.73705e+21
5.45478  5.74343e+21
5.57209  5.73913e+21
5.68939  5.72405e+21
5.8067  5.69859e+21
5.924  5.66313e+21
6.0413  5.61874e+21
6.15861  5.56663e+21
6.27591  5.50837e+21
6.39322  5.44588e+21
6.51052  5.38102e+21
6.62783  5.31593e+21
6.74514  5.25254e+21
6.86244  5.19291e+21
6.97975  5.13897e+21
7.09705  5.0923e+21
7.21436  5.05387e+21
7.33166  5.02499e+21
7.44897  5.00598e+21
7.56627  4.99685e+21
7.68358  4.99734e+21
7.80088  5.00656e+21
7.91819  5.02317e+21
8.03549  5.04566e+21
8.1528  5.07215e+21
8.2701  5.10021e+21
8.38741  5.12786e+21
8.50471  5.15267e+21
8.62202  5.17268e+21
8.73932  5.18593e+21
8.85662  5.19101e+21
8.97393  5.18723e+21
9.09123  5.17375e+21
9.20854  5.15107e+21
9.32584  5.1198e+21
9.44315  5.08073e+21
9.56045  5.03541e+21
9.67776  4.98548e+21
9.79506  4.93263e+21
9.91237  4.87856e+21
10.0297  4.82496e+21
10.147  4.77339e+21
10.2643  4.72489e+21
10.3816  4.68036e+21
10.4989  4.64057e+21
10.6162  4.60556e+21
10.7335  4.57544e+21
10.8508  4.54984e+21
10.9681  4.52837e+21
11.0854  4.51056e+21
11.2027  4.49585e+21
11.32  4.48356e+21
11.4373  4.47342e+21
11.5546  4.46517e+21
11.6719  4.4587e+21
11.7893  4.45397e+21
11.9066  4.45066e+21
12.0239  4.44908e+21
12.1412  4.44894e+21
12.2585  4.44988e+21
12.3758  4.45139e+21
12.4931  4.45279e+21
12.6104  4.45301e+21
12.7277  4.45092e+21
12.845  4.44539e+21
12.9623  4.43474e+21
13.0796  4.41803e+21
13.1969  4.39388e+21
13.3142  4.36178e+21
13.4315  4.32119e+21
13.5488  4.27226e+21
13.6661  4.21574e+21
13.7834  4.15247e+21
13.9007  4.08446e+21
14.018  4.01373e+21
14.1354  3.94226e+21
14.2527  3.87279e+21
14.37  3.80767e+21
14.4873  3.74921e+21
14.6046  3.69938e+21
14.7219  3.65974e+21
14.8392  3.63133e+21
14.9565  3.61459e+21
15.0738  3.60912e+21
15.1911  3.61426e+21
15.3084  3.62833e+21
15.4257  3.64945e+21
15.543  3.67507e+21
15.6603  3.70257e+21
15.7776  3.72915e+21
15.8949  3.7522e+21
16.0122  3.76907e+21
16.1295  3.77804e+21
16.2468  3.77775e+21
16.3641  3.7674e+21
16.4815  3.74686e+21
16.5988  3.71644e+21
16.7161  3.67733e+21
16.8334  3.6308e+21
16.9507  3.57839e+21
17.068  3.52173e+21
17.1853  3.46274e+21
17.3026  3.40281e+21
17.4199  3.34346e+21
17.5372  3.28597e+21
17.6545  3.23092e+21
17.7718  3.17909e+21
17.8891  3.13042e+21
18.0064  3.08506e+21
18.1237  3.04263e+21
18.241  3.00275e+21
18.3583  2.96516e+21
18.4756  2.92933e+21
18.5929  2.89556e+21
18.7102  2.86392e+21
18.8275  2.83457e+21
18.9449  2.80843e+21
19.0622  2.78598e+21
19.1795  2.76804e+21
19.2968  2.75506e+21
19.4141  2.74744e+21
19.5314  2.74512e+21
19.6487  2.74777e+21
19.766  2.75451e+21
19.8833  2.76433e+21
20.0006  2.7757e+21
20.1179  2.78693e+21
20.2352  2.796e+21
20.3525  2.80097e+21
20.4698  2.79988e+21
20.5871  2.79109e+21
20.7044  2.77296e+21
20.8217  2.74497e+21
20.939  2.7068e+21
21.0563  2.65893e+21
21.1736  2.60259e+21
21.291  2.53933e+21
21.4083  2.47166e+21
21.5256  2.40196e+21
21.6429  2.33276e+21
21.7602  2.26645e+21
21.8775  2.20541e+21
21.9948  2.15119e+21
22.1121  2.10523e+21
22.2294  2.06835e+21
22.3467  2.04064e+21
22.464  2.02209e+21
22.5813  2.01182e+21
22.6986  2.00878e+21
22.8159  2.01162e+21
22.9332  2.01857e+21
23.0505  2.02789e+21
23.1678  2.03765e+21
23.2851  2.04633e+21
23.4024  2.05243e+21
23.5198  2.05451e+21
23.6371  2.05216e+21
23.7544  2.04476e+21
23.8717  2.03254e+21
23.989  2.01565e+21
24.1063  1.99476e+21
24.2236  1.9706e+21
24.3409  1.94396e+21
24.4582  1.91553e+21
24.5755  1.88608e+21
24.6928  1.85616e+21
24.8101  1.82614e+21
24.9274  1.79609e+21
25.0447  1.766e+21
25.162  1.73562e+21
25.2793  1.70477e+21
25.3966  1.67287e+21
25.5139  1.63992e+21
25.6312  1.60561e+21
25.7485  1.57002e+21
25.8658  1.53362e+21
25.9832  1.4967e+21
26.1005  1.46038e+21
26.2178  1.42533e+21
26.3351  1.39259e+21
26.4524  1.36303e+21
26.5697  1.33753e+21
26.687  1.31654e+21
26.8043  1.30047e+21
26.9216  1.28939e+21
27.0389  1.2829e+21
27.1562  1.28057e+21
27.2735  1.28146e+21
27.3908  1.28445e+21
27.5081  1.28832e+21
27.6254  1.29162e+21
27.7427  1.29302e+21
27.86  1.29117e+21
27.9773  1.28507e+21
28.0946  1.27393e+21
28.212  1.25705e+21
28.3293  1.23473e+21
28.4466  1.20708e+21
28.5639  1.17497e+21
28.6812  1.13927e+21
28.7985  1.10127e+21
28.9158  1.06229e+21
29.0331  1.02363e+21
29.1504  9.86507e+20
29.2677  9.52029e+20
29.385  9.21091e+20
29.5023  8.94348e+20
29.6196  8.71996e+20
29.7369  8.54082e+20
29.8542  8.40335e+20
29.9715  8.30334e+20
30.0888  8.23331e+20
30.2061  8.18687e+20
30.3234  8.15516e+20
30.4407  8.13033e+20
30.558  8.10705e+20
30.6754  8.07775e+20
30.7927  8.04106e+20
30.91  7.99178e+20
31.0273  7.92926e+20
31.1446  7.85246e+20
31.2619  7.76282e+20
31.3792  7.66079e+20
31.4965  7.5489e+20
31.6138  7.4298e+20
31.7311  7.30547e+20
31.8484  7.17894e+20
31.9657  7.05184e+20
32.083  6.92507e+20
32.2003  6.79979e+20
32.3176  6.67574e+20
32.4349  6.55257e+20
32.5522  6.42888e+20
32.6695  6.30421e+20
32.7868  6.17788e+20
32.9042  6.04774e+20
33.0215  5.91611e+20
33.1388  5.78171e+20
33.2561  5.64657e+20
33.3734  5.51078e+20
33.4907  5.3766e+20
33.608  5.24559e+20
33.7253  5.11959e+20
33.8426  5.00029e+20
33.9599  4.88911e+20
34.0772  4.78727e+20
34.1945  4.69546e+20
34.3118  4.61198e+20
34.4291  4.53507e+20
34.5464  4.46219e+20
34.6637  4.39016e+20
34.781  4.31517e+20
34.8983  4.23497e+20
35.0156  4.14698e+20
35.1329  4.05004e+20
35.2503  3.94555e+20
35.3676  3.83385e+20
35.4849  3.71837e+20
35.6022  3.5998e+20
35.7195  3.48104e+20
35.8368  3.36311e+20
35.9541  3.24797e+20
36.0714  3.13706e+20
36.1887  3.0322e+20
36.306  2.9357e+20
36.4233  2.8503e+20
36.5406  2.77834e+20
36.6579  2.72171e+20
36.7752  2.68034e+20
36.8925  2.65314e+20
37.0098  2.63641e+20
37.1271  2.6248e+20
37.2444  2.61211e+20
37.3617  2.59255e+20
37.479  2.56141e+20
37.5964  2.51623e+20
37.7137  2.45834e+20
37.831  2.39065e+20
37.9483  2.31883e+20
38.0656  2.24841e+20
38.1829  2.18492e+20
38.3002  2.13188e+20
38.4175  2.09051e+20
38.5348  2.05919e+20
38.6521  2.03475e+20
38.7694  2.01307e+20
38.8867  1.99013e+20
39.004  1.96246e+20
39.1213  1.92864e+20
39.2386  1.88897e+20
39.3559  1.84496e+20
39.4732  1.79858e+20
39.5905  1.75217e+20
39.7078  1.70703e+20
39.8251  1.66373e+20
39.9425  1.62257e+20
40.0598  1.58264e+20
40.1771  1.54384e+20
40.2944  1.50555e+20
40.4117  1.46858e+20
40.529  1.4337e+20
40.6463  1.40219e+20
40.7636  1.37573e+20
40.8809  1.35544e+20
40.9982  1.34179e+20
41.1155  1.33513e+20
41.2328  1.33456e+20
41.3501  1.33923e+20
41.4674  1.34754e+20
41.5847  1.35802e+20
41.702  1.36884e+20
41.8193  1.37827e+20
41.9366  1.38498e+20
42.0539  1.3881e+20
42.1712  1.38716e+20
42.2885  1.38277e+20
42.4059  1.37604e+20
42.5232  1.36882e+20
42.6405  1.36315e+20
42.7578  1.36026e+20
42.8751  1.36076e+20
42.9924  1.36394e+20
43.1097  1.36709e+20
43.227  1.3669e+20
43.3443  1.3596e+20
43.4616  1.34165e+20
43.5789  1.31135e+20
43.6962  1.26844e+20
43.8135  1.21542e+20
43.9308  1.15612e+20
44.0481  1.09569e+20
44.1654  1.03907e+20
44.2827  9.89781e+19
44.4  9.50126e+19
44.5173  9.20544e+19
44.6347  8.99476e+19
44.752  8.85023e+19
44.8693  8.75798e+19
44.9866  8.71582e+19
45.1039  8.72999e+19
45.2212  8.8287e+19
45.3385  9.03456e+19
45.4558  9.37185e+19
45.5731  9.84966e+19
45.6904  1.04575e+20
45.8077  1.11563e+20
45.925  1.18955e+20
46.0423  1.26094e+20
46.1596  1.32416e+20
46.2769  1.37316e+20
46.3942  1.40509e+20
46.5115  1.41928e+20
46.6288  1.4161e+20
46.7461  1.39897e+20
46.8634  1.37133e+20
46.9808  1.33715e+20
47.0981  1.3004e+20
47.2154  1.26465e+20
47.3327  1.23347e+20
47.45  1.20901e+20
47.5673  1.19411e+20
47.6846  1.19084e+20
47.8019  1.19981e+20
47.9192  1.22184e+20
48.0365  1.25624e+20
48.1538  1.30087e+20
48.2711  1.35335e+20
48.3884  1.40947e+20
48.5057  1.4655e+20
48.623  1.51689e+20
48.7403  1.56038e+20
48.8576  1.59365e+20
48.9749  1.61418e+20
49.0922  1.62228e+20
49.2095  1.61945e+20
49.3269  1.60694e+20
49.4442  1.58785e+20
49.5615  1.56675e+20
49.6788  1.54754e+20
49.7961  1.53344e+20
49.9134  1.52882e+20
50.0307  1.53528e+20
50.148  1.55365e+20
50.2653  1.58346e+20
50.3826  1.62334e+20
50.4999  1.66916e+20
50.6172  1.7179e+20
50.7345  1.76489e+20
