#S 1 spectral density
#N 2
#UFWHM 13.1382
#L  abscissas [um]  spectral density
-58.5938  1.29674e+19
-58.4764  8.93359e+18
-58.3591  5.36923e+18
-58.2418  2.71569e+18
-58.1245  1.19804e+18
-58.0072  8.28663e+17
-57.8899  1.41236e+18
-57.7726  2.64148e+18
-57.6553  4.16219e+18
-57.538  5.67429e+18
-57.4207  6.96958e+18
-57.3034  7.9232e+18
-57.1861  8.50837e+18
-57.0688  8.75452e+18
-56.9515  8.71619e+18
-56.8342  8.44407e+18
-56.7169  8.02919e+18
-56.5996  7.5989e+18
-56.4823  7.32398e+18
-56.365  7.40888e+18
-56.2477  8.09423e+18
-56.1303  9.54156e+18
-56.013  1.1833e+19
-55.8957  1.48666e+19
-55.7784  1.8388e+19
-55.6611  2.19636e+19
-55.5438  2.50717e+19
-55.4265  2.72712e+19
-55.3092  2.81514e+19
-55.1919  2.75315e+19
-55.0746  2.54912e+19
-54.9573  2.22663e+19
-54.84  1.8336e+19
-54.7227  1.41739e+19
-54.6054  1.03129e+19
-54.4881  7.13665e+18
-54.3708  4.90548e+18
-54.2535  3.73198e+18
-54.1362  3.59895e+18
-54.0189  4.41373e+18
-53.9016  6.03386e+18
-53.7842  8.29834e+18
-53.6669  1.10813e+19
-53.5496  1.42317e+19
-53.4323  1.75961e+19
-53.315  2.10025e+19
-53.1977  2.42434e+19
-53.0804  2.70729e+19
-52.9631  2.92539e+19
-52.8458  3.05726e+19
-52.7285  3.08214e+19
-52.6112  2.99281e+19
-52.4939  2.78597e+19
-52.3766  2.47489e+19
-52.2593  2.0804e+19
-52.142  1.63861e+19
-52.0247  1.19244e+19
-51.9074  7.90546e+18
-51.7901  4.8203e+18
-51.6728  3.07687e+18
-51.5555  2.95829e+18
-51.4381  4.54296e+18
-51.3208  7.68368e+18
-51.2035  1.19966e+19
-51.0862  1.69422e+19
-50.9689  2.18322e+19
-50.8516  2.59968e+19
-50.7343  2.88801e+19
-50.617  3.00851e+19
-50.4997  2.94827e+19
-50.3824  2.7208e+19
-50.2651  2.35871e+19
-50.1478  1.91646e+19
-50.0305  1.44943e+19
-49.9132  1.01338e+19
-49.7959  6.53726e+18
-49.6786  4.00131e+18
-49.5613  2.66871e+18
-49.444  2.51099e+18
-49.3267  3.36214e+18
-49.2094  4.96274e+18
-49.092  7.00003e+18
-48.9747  9.1729e+18
-48.8574  1.1203e+19
-48.7401  1.28883e+19
-48.6228  1.40816e+19
-48.5055  1.47548e+19
-48.3882  1.49203e+19
-48.2709  1.4641e+19
-48.1536  1.40217e+19
-48.0363  1.31316e+19
-47.919  1.20475e+19
-47.8017  1.08049e+19
-47.6844  9.44398e+18
-47.5671  8.00362e+18
-47.4498  6.56235e+18
-47.3325  5.24142e+18
-47.2152  4.19248e+18
-47.0979  3.57404e+18
-46.9806  3.49501e+18
-46.8633  3.99347e+18
-46.7459  4.99808e+18
-46.6286  6.33404e+18
-46.5113  7.7609e+18
-46.394  9.04573e+18
-46.2767  1.00248e+19
-46.1594  1.06713e+19
-46.0421  1.11426e+19
-45.9248  1.17144e+19
-45.8075  1.27518e+19
-45.6902  1.45813e+19
-45.5729  1.73636e+19
-45.4556  2.11077e+19
-45.3383  2.54747e+19
-45.221  3.00233e+19
-45.1037  3.41347e+19
-44.9864  3.72057e+19
-44.8691  3.88299e+19
-44.7518  3.88352e+19
-44.6345  3.72822e+19
-44.5172  3.44916e+19
-44.3998  3.09432e+19
-44.2825  2.71094e+19
-44.1652  2.34245e+19
-44.0479  2.0115e+19
-43.9306  1.72898e+19
-43.8133  1.4877e+19
-43.696  1.27592e+19
-43.5787  1.08531e+19
-43.4614  9.14865e+18
-43.3441  7.73414e+18
-43.2268  6.80316e+18
-43.1095  6.58298e+18
-42.9922  7.27545e+18
-42.8749  8.9741e+18
-42.7576  1.16572e+19
-42.6403  1.51628e+19
-42.523  1.92517e+19
-42.4057  2.36228e+19
-42.2884  2.79676e+19
-42.171  3.20127e+19
-42.0537  3.56174e+19
-41.9364  3.8593e+19
-41.8191  4.08313e+19
-41.7018  4.22286e+19
-41.5845  4.26834e+19
-41.4672  4.21329e+19
-41.3499  4.05055e+19
-41.2326  3.7817e+19
-41.1153  3.41684e+19
-40.998  2.97472e+19
-40.8807  2.4832e+19
-40.7634  1.97354e+19
-40.6461  1.48483e+19
-40.5288  1.04894e+19
-40.4115  6.98626e+18
-40.2942  4.60614e+18
-40.1769  3.52295e+18
-40.0596  3.84304e+18
-39.9423  5.57405e+18
-39.825  8.59422e+18
-39.7076  1.26481e+19
-39.5903  1.73191e+19
-39.473  2.20928e+19
-39.3557  2.63295e+19
-39.2384  2.94299e+19
-39.1211  3.0882e+19
-39.0038  3.03676e+19
-38.8865  2.78882e+19
-38.7692  2.37844e+19
-38.6519  1.86245e+19
-38.5346  1.3203e+19
-38.4173  8.33334e+18
-38.3  4.73572e+18
-38.1827  2.85861e+18
-38.0654  2.81234e+18
-37.9481  4.37862e+18
-37.8308  7.06684e+18
-37.7135  1.02459e+19
-37.5962  1.32947e+19
-37.4789  1.57446e+19
-37.3615  1.73821e+19
-37.2442  1.82592e+19
-37.1269  1.85892e+19
-37.0096  1.87328e+19
-36.8923  1.89969e+19
-36.775  1.95854e+19
-36.6577  2.05103e+19
-36.5404  2.15625e+19
-36.4231  2.24543e+19
-36.3058  2.28591e+19
-36.1885  2.25263e+19
-36.0712  2.1373e+19
-35.9539  1.95205e+19
-35.8366  1.72894e+19
-35.7193  1.51522e+19
-35.602  1.3545e+19
-35.4847  1.28993e+19
-35.3674  1.3474e+19
-35.2501  1.53349e+19
-35.1328  1.8356e+19
-35.0154  2.22877e+19
-34.8981  2.67871e+19
-34.7808  3.152e+19
-34.6635  3.61491e+19
-34.5462  4.04714e+19
-34.4289  4.43933e+19
-34.3116  4.78357e+19
-34.1943  5.08021e+19
-34.077  5.33456e+19
-33.9597  5.5491e+19
-33.8424  5.72409e+19
-33.7251  5.85928e+19
-33.6078  5.9511e+19
-33.4905  5.99527e+19
-33.3732  5.9848e+19
-33.2559  5.9136e+19
-33.1386  5.77469e+19
-33.0213  5.56537e+19
-32.904  5.28752e+19
-32.7867  4.94774e+19
-32.6693  4.55564e+19
-32.552  4.12986e+19
-32.4347  3.69087e+19
-32.3174  3.26634e+19
-32.2001  2.87824e+19
-32.0828  2.54716e+19
-31.9655  2.28877e+19
-31.8482  2.11436e+19
-31.7309  2.02846e+19
-31.6136  2.03189e+19
-31.4963  2.12445e+19
-31.379  2.30502e+19
-31.2617  2.57286e+19
-31.1444  2.9251e+19
-31.0271  3.35561e+19
-30.9098  3.8578e+19
-30.7925  4.40754e+19
-30.6752  4.98025e+19
-30.5579  5.53867e+19
-30.4406  6.04131e+19
-30.3232  6.44954e+19
-30.2059  6.72039e+19
-30.0886  6.8249e+19
-29.9713  6.74889e+19
-29.854  6.4869e+19
-29.7367  6.05007e+19
-29.6194  5.4692e+19
-29.5021  4.78577e+19
-29.3848  4.04942e+19
-29.2675  3.31525e+19
-29.1502  2.63796e+19
-29.0329  2.06707e+19
-28.9156  1.63813e+19
-28.7983  1.37017e+19
-28.681  1.26572e+19
-28.5637  1.30547e+19
-28.4464  1.45608e+19
-28.3291  1.67296e+19
-28.2118  1.90874e+19
-28.0944  2.12123e+19
-27.9771  2.28035e+19
-27.8598  2.37125e+19
-27.7425  2.40008e+19
-27.6252  2.38508e+19
-27.5079  2.36023e+19
-27.3906  2.36348e+19
-27.2733  2.43415e+19
-27.156  2.60469e+19
-27.0387  2.89956e+19
-26.9214  3.33274e+19
-26.8041  3.90636e+19
-26.6868  4.61053e+19
-26.5695  5.42182e+19
-26.4522  6.30694e+19
-26.3349  7.22873e+19
-26.2176  8.1349e+19
-26.1003  8.97589e+19
-25.983  9.69576e+19
-25.8657  1.02459e+20
-25.7483  1.05923e+20
-25.631  1.07145e+20
-25.5137  1.06185e+20
-25.3964  1.03229e+20
-25.2791  9.87132e+19
-25.1618  9.32116e+19
-25.0445  8.73941e+19
-24.9272  8.19286e+19
-24.8099  7.74281e+19
-24.6926  7.44229e+19
-24.5753  7.33291e+19
-24.458  7.42698e+19
-24.3407  7.7316e+19
-24.2234  8.2273e+19
-24.1061  8.88392e+19
-23.9888  9.65432e+19
-23.8715  1.04852e+20
-23.7542  1.13222e+20
-23.6369  1.21196e+20
-23.5196  1.28431e+20
-23.4023  1.34678e+20
-23.2849  1.39968e+20
-23.1676  1.44492e+20
-23.0503  1.48502e+20
-22.933  1.52474e+20
-22.8157  1.56698e+20
-22.6984  1.6147e+20
-22.5811  1.66975e+20
-22.4638  1.73238e+20
-22.3465  1.80181e+20
-22.2292  1.87628e+20
-22.1119  1.95354e+20
-21.9946  2.03066e+20
-21.8773  2.10554e+20
-21.76  2.17573e+20
-21.6427  2.23827e+20
-21.5254  2.29038e+20
-21.4081  2.3298e+20
-21.2908  2.35408e+20
-21.1735  2.36143e+20
-21.0561  2.35115e+20
-20.9388  2.32275e+20
-20.8215  2.27838e+20
-20.7042  2.22021e+20
-20.5869  2.15193e+20
-20.4696  2.07653e+20
-20.3523  1.99765e+20
-20.235  1.9175e+20
-20.1177  1.83882e+20
-20.0004  1.76272e+20
-19.8831  1.6895e+20
-19.7658  1.62153e+20
-19.6485  1.56027e+20
-19.5312  1.50873e+20
-19.4139  1.47026e+20
-19.2966  1.4496e+20
-19.1793  1.45139e+20
-19.062  1.48076e+20
-18.9447  1.54268e+20
-18.8274  1.64231e+20
-18.71  1.78362e+20
-18.5927  1.97104e+20
-18.4754  2.20797e+20
-18.3581  2.4954e+20
-18.2408  2.83442e+20
-18.1235  3.22118e+20
-18.0062  3.64987e+20
-17.8889  4.11048e+20
-17.7716  4.58746e+20
-17.6543  5.06642e+20
-17.537  5.52633e+20
-17.4197  5.95022e+20
-17.3024  6.31928e+20
-17.1851  6.62128e+20
-17.0678  6.84734e+20
-16.9505  6.99406e+20
-16.8332  7.06535e+20
-16.7159  7.07116e+20
-16.5986  7.02698e+20
-16.4813  6.95224e+20
-16.364  6.86951e+20
-16.2466  6.80216e+20
-16.1293  6.76951e+20
-16.012  6.79477e+20
-15.8947  6.89106e+20
-15.7774  7.06895e+20
-15.6601  7.33196e+20
-15.5428  7.6778e+20
-15.4255  8.09637e+20
-15.3082  8.57513e+20
-15.1909  9.09351e+20
-15.0736  9.63275e+20
-14.9563  1.01704e+21
-14.839  1.06884e+21
-14.7217  1.11673e+21
-14.6044  1.1597e+21
-14.4871  1.19691e+21
-14.3698  1.22823e+21
-14.2525  1.25386e+21
-14.1352  1.2745e+21
-14.0178  1.29115e+21
-13.9005  1.30511e+21
-13.7832  1.31759e+21
-13.6659  1.32987e+21
-13.5486  1.34324e+21
-13.4313  1.3587e+21
-13.314  1.37687e+21
-13.1967  1.3982e+21
-13.0794  1.4231e+21
-12.9621  1.45137e+21
-12.8448  1.4828e+21
-12.7275  1.51705e+21
-12.6102  1.55383e+21
-12.4929  1.59277e+21
-12.3756  1.63359e+21
-12.2583  1.67634e+21
-12.141  1.72121e+21
-12.0237  1.76862e+21
-11.9064  1.81899e+21
-11.7891  1.87311e+21
-11.6718  1.93172e+21
-11.5544  1.99546e+21
-11.4371  2.06473e+21
-11.3198  2.13994e+21
-11.2025  2.22099e+21
-11.0852  2.30782e+21
-10.9679  2.40005e+21
-10.8506  2.49718e+21
-10.7333  2.59866e+21
-10.616  2.70428e+21
-10.4987  2.81399e+21
-10.3814  2.92778e+21
-10.2641  3.04614e+21
-10.1468  3.17038e+21
-10.0295  3.30147e+21
-9.91217  3.44076e+21
-9.79487  3.5901e+21
-9.67756  3.75064e+21
-9.56026  3.92349e+21
-9.44295  4.10895e+21
-9.32565  4.30733e+21
-9.20834  4.51752e+21
-9.09104  4.73801e+21
-8.97373  4.96639e+21
-8.85643  5.20019e+21
-8.73913  5.43572e+21
-8.62182  5.66951e+21
-8.50452  5.8979e+21
-8.38721  6.11779e+21
-8.26991  6.32542e+21
-8.1526  6.51856e+21
-8.03529  6.69464e+21
-7.91799  6.85231e+21
-7.80069  6.99086e+21
-7.68338  7.10979e+21
-7.56608  7.20995e+21
-7.44877  7.29272e+21
-7.33146  7.35976e+21
-7.21416  7.41336e+21
-7.09685  7.45624e+21
-6.97955  7.49143e+21
-6.86224  7.52204e+21
-6.74494  7.55159e+21
-6.62763  7.58266e+21
-6.51033  7.61887e+21
-6.39302  7.66318e+21
-6.27572  7.71854e+21
-6.15842  7.78778e+21
-6.04111  7.87349e+21
-5.92381  7.9779e+21
-5.8065  8.10309e+21
-5.68919  8.25031e+21
-5.57189  8.42038e+21
-5.45458  8.61357e+21
-5.33728  8.82949e+21
-5.21997  9.06646e+21
-5.10267  9.32279e+21
-4.98536  9.59552e+21
-4.86806  9.8811e+21
-4.75075  1.01757e+22
-4.63345  1.04754e+22
-4.51614  1.07757e+22
-4.39884  1.10726e+22
-4.28154  1.13626e+22
-4.16423  1.16432e+22
-4.04692  1.19115e+22
-3.92962  1.21671e+22
-3.81231  1.24097e+22
-3.69501  1.26397e+22
-3.5777  1.28585e+22
-3.4604  1.30677e+22
-3.34309  1.32687e+22
-3.22579  1.34628e+22
-3.10849  1.36515e+22
-2.99118  1.38347e+22
-2.87387  1.40123e+22
-2.75657  1.41835e+22
-2.63926  1.43468e+22
-2.52196  1.44999e+22
-2.40465  1.46407e+22
-2.28735  1.47666e+22
-2.17005  1.48757e+22
-2.05274  1.49666e+22
-1.93544  1.50376e+22
-1.81813  1.5089e+22
-1.70083  1.5121e+22
-1.58352  1.51349e+22
-1.46622  1.51329e+22
-1.34891  1.51172e+22
-1.2316  1.50908e+22
-1.1143  1.50564e+22
-0.996995  1.50173e+22
-0.87969  1.49763e+22
-0.762385  1.49349e+22
-0.64508  1.48962e+22
-0.527775  1.48616e+22
-0.41047  1.48322e+22
-0.293165  1.48092e+22
-0.17586  1.47934e+22
-0.058555  1.47855e+22
0.05875  1.47854e+22
0.176055  1.47932e+22
0.29336  1.48087e+22
0.410665  1.48316e+22
0.52797  1.48605e+22
0.645275  1.48948e+22
0.76258  1.49331e+22
0.879885  1.49739e+22
0.99719  1.50146e+22
1.1145  1.50531e+22
1.2318  1.50866e+22
1.3491  1.51123e+22
1.46641  1.5127e+22
1.58371  1.51279e+22
1.70102  1.51128e+22
1.81832  1.50794e+22
1.93563  1.50266e+22
2.05294  1.49539e+22
2.17024  1.48617e+22
2.28754  1.47511e+22
2.40485  1.46234e+22
2.52216  1.4481e+22
2.63946  1.43263e+22
2.75677  1.41614e+22
2.87407  1.39886e+22
2.99137  1.38093e+22
3.10868  1.36246e+22
3.22599  1.34346e+22
3.34329  1.32391e+22
3.4606  1.30371e+22
3.5779  1.28269e+22
3.69521  1.26071e+22
3.81251  1.23764e+22
3.92982  1.21329e+22
4.04712  1.18767e+22
4.16443  1.16079e+22
4.28173  1.13271e+22
4.39903  1.10366e+22
4.51634  1.07395e+22
4.63364  1.04393e+22
4.75095  1.01397e+22
4.86825  9.84503e+21
4.98556  9.55951e+21
5.10286  9.28724e+21
5.22017  9.03102e+21
5.33748  8.79447e+21
5.45478  8.57907e+21
5.57209  8.38652e+21
5.68939  8.21692e+21
5.8067  8.07031e+21
5.924  7.94579e+21
6.0413  7.8421e+21
6.15861  7.75709e+21
6.27591  7.68833e+21
6.39322  7.6336e+21
6.51052  7.58976e+21
6.62783  7.55382e+21
6.74514  7.52277e+21
6.86244  7.49349e+21
6.97975  7.46257e+21
7.09705  7.4271e+21
7.21436  7.38375e+21
7.33166  7.32937e+21
7.44897  7.26178e+21
7.56627  7.17841e+21
7.68358  7.07743e+21
7.80088  6.9578e+21
7.91819  6.81872e+21
8.03549  6.66063e+21
8.1528  6.48439e+21
8.2701  6.29119e+21
8.38741  6.0836e+21
8.50471  5.8641e+21
8.62202  5.63628e+21
8.73932  5.40299e+21
8.85662  5.16832e+21
8.97393  4.93549e+21
9.09123  4.70793e+21
9.20854  4.48841e+21
9.32584  4.27921e+21
9.44315  4.08173e+21
9.56045  3.89688e+21
9.67776  3.72493e+21
9.79506  3.56497e+21
9.91237  3.41631e+21
10.0297  3.27752e+21
10.147  3.14708e+21
10.2643  3.02348e+21
10.3816  2.90556e+21
10.4989  2.79236e+21
10.6162  2.68336e+21
10.7335  2.5783e+21
10.8508  2.47745e+21
10.9681  2.38099e+21
11.0854  2.28955e+21
11.2027  2.20344e+21
11.32  2.12307e+21
11.4373  2.04857e+21
11.5546  1.97986e+21
11.6719  1.91667e+21
11.7893  1.85863e+21
11.9066  1.80498e+21
12.0239  1.7549e+21
12.1412  1.70807e+21
12.2585  1.66357e+21
12.3758  1.62125e+21
12.4931  1.58084e+21
12.6104  1.54236e+21
12.7277  1.50603e+21
12.845  1.47218e+21
12.9623  1.4411e+21
13.0796  1.41338e+21
13.1969  1.38885e+21
13.3142  1.36793e+21
13.4315  1.35011e+21
13.5488  1.33498e+21
13.6661  1.32191e+21
13.7834  1.3098e+21
13.9007  1.29755e+21
14.018  1.28377e+21
14.1354  1.26728e+21
14.2527  1.24683e+21
14.37  1.2214e+21
14.4873  1.19028e+21
14.6046  1.1532e+21
14.7219  1.11044e+21
14.8392  1.06275e+21
14.9565  1.01125e+21
15.0738  9.5776e+20
15.1911  9.04132e+20
15.3084  8.52532e+20
15.4257  8.04943e+20
15.543  7.63329e+20
15.6603  7.29011e+20
15.7776  7.02916e+20
15.8949  6.85286e+20
16.0122  6.75829e+20
16.1295  6.73409e+20
16.2468  6.7656e+20
16.3641  6.83361e+20
16.4815  6.91545e+20
16.5988  6.98893e+20
16.7161  7.03176e+20
16.8334  7.02438e+20
16.9507  6.95153e+20
17.068  6.80417e+20
17.1853  6.57793e+20
17.3026  6.27668e+20
17.4199  5.90782e+20
17.5372  5.48519e+20
17.6545  5.02736e+20
17.7718  4.55186e+20
17.8891  4.07692e+20
18.0064  3.62052e+20
18.1237  3.19583e+20
18.241  2.81241e+20
18.3583  2.47703e+20
18.4756  2.19282e+20
18.5929  1.95933e+20
18.7102  1.77428e+20
18.8275  1.63555e+20
18.9449  1.53822e+20
19.0622  1.47777e+20
19.1795  1.44999e+20
19.2968  1.449e+20
19.4141  1.47043e+20
19.5314  1.50896e+20
19.6487  1.56028e+20
19.766  1.62136e+20
19.8833  1.68839e+20
20.0006  1.76068e+20
20.1179  1.83628e+20
20.2352  1.91451e+20
20.3525  1.99378e+20
20.4698  2.07193e+20
20.5871  2.14685e+20
20.7044  2.2152e+20
20.8217  2.27345e+20
20.939  2.31824e+20
21.0563  2.34647e+20
21.1736  2.3572e+20
21.291  2.35017e+20
21.4083  2.32648e+20
21.5256  2.287e+20
21.6429  2.23542e+20
21.7602  2.17347e+20
21.8775  2.10385e+20
21.9948  2.02923e+20
22.1121  1.95251e+20
22.2294  1.87557e+20
22.3467  1.80207e+20
22.464  1.73307e+20
22.5813  1.67091e+20
22.6986  1.61662e+20
22.8159  1.56949e+20
22.9332  1.52784e+20
23.0505  1.48869e+20
23.1678  1.44839e+20
23.2851  1.40319e+20
23.4024  1.34976e+20
23.5198  1.28694e+20
23.6371  1.21402e+20
23.7544  1.13367e+20
23.8717  1.04926e+20
23.989  9.65739e+19
24.1063  8.88403e+19
24.2236  8.22627e+19
24.3409  7.73015e+19
24.4582  7.42834e+19
24.5755  7.33581e+19
24.6928  7.45101e+19
24.8101  7.75388e+19
24.9274  8.20474e+19
25.0447  8.75285e+19
25.162  9.33302e+19
25.2793  9.87959e+19
25.3966  1.03222e+20
25.5139  1.06085e+20
25.6312  1.06939e+20
25.7485  1.05603e+20
25.8658  1.0207e+20
25.9832  9.64562e+19
26.1005  8.92423e+19
26.2178  8.08436e+19
26.3351  7.17791e+19
26.4524  6.25923e+19
26.5697  5.3786e+19
26.687  4.5744e+19
26.8043  3.87953e+19
26.9216  3.31414e+19
27.0389  2.8856e+19
27.1562  2.59509e+19
27.2735  2.42775e+19
27.3908  2.35867e+19
27.5081  2.35592e+19
27.6254  2.38025e+19
27.7427  2.3936e+19
27.86  2.36404e+19
27.9773  2.27139e+19
28.0946  2.11191e+19
28.212  1.89923e+19
28.3293  1.66518e+19
28.4466  1.45145e+19
28.5639  1.30567e+19
28.6812  1.27282e+19
28.7985  1.38564e+19
28.9158  1.66191e+19
29.0331  2.09992e+19
29.1504  2.67894e+19
29.2677  3.36282e+19
29.385  4.10197e+19
29.5023  4.84188e+19
29.6196  5.52381e+19
29.7369  6.101e+19
29.8542  6.53333e+19
29.9715  6.79114e+19
30.0888  6.86133e+19
30.2061  6.74729e+19
30.3234  6.46924e+19
30.4407  6.05745e+19
30.558  5.55035e+19
30.6754  4.98948e+19
30.7927  4.41631e+19
30.91  3.86572e+19
31.0273  3.36729e+19
31.1446  2.93504e+19
31.2619  2.58461e+19
31.3792  2.31748e+19
31.4965  2.13816e+19
31.6138  2.04751e+19
31.7311  2.04529e+19
31.8484  2.13233e+19
31.9657  2.30871e+19
32.083  2.56806e+19
32.2003  2.90069e+19
32.3176  3.2914e+19
32.4349  3.71754e+19
32.5522  4.1573e+19
32.6695  4.58326e+19
32.7868  4.97585e+19
32.9042  5.31646e+19
33.0215  5.59165e+19
33.1388  5.80086e+19
33.2561  5.93673e+19
33.3734  6.0073e+19
33.4907  6.01386e+19
33.608  5.96652e+19
33.7253  5.87312e+19
33.8426  5.73287e+19
33.9599  5.5558e+19
34.0772  5.33734e+19
34.1945  5.07922e+19
34.3118  4.77888e+19
34.4291  4.43272e+19
34.5464  4.03929e+19
34.6637  3.60296e+19
34.781  3.13872e+19
34.8983  2.66725e+19
35.0156  2.21878e+19
35.1329  1.82842e+19
35.2503  1.52962e+19
35.3676  1.34849e+19
35.4849  1.29546e+19
35.6022  1.3631e+19
35.7195  1.52445e+19
35.8368  1.73942e+19
35.9541  1.95932e+19
36.0714  2.14178e+19
36.1887  2.25143e+19
36.306  2.28014e+19
36.4233  2.23627e+19
36.5406  2.14363e+19
36.6579  2.03447e+19
36.7752  1.94194e+19
36.8925  1.88218e+19
37.0098  1.85403e+19
37.1271  1.83966e+19
37.2444  1.80477e+19
37.3617  1.71658e+19
37.479  1.55204e+19
37.5964  1.3072e+19
37.7137  1.00375e+19
37.831  6.89152e+18
37.9483  4.25951e+18
38.0656  2.75355e+18
38.1829  2.87519e+18
38.3002  4.8295e+18
38.4175  8.49795e+18
38.5348  1.34109e+19
38.6521  1.88558e+19
38.7694  2.4017e+19
38.8867  2.80973e+19
39.004  3.05098e+19
39.1213  3.09359e+19
39.2386  2.94128e+19
39.3559  2.62486e+19
39.4732  2.19615e+19
39.5905  1.71648e+19
39.7078  1.24768e+19
39.8251  8.43918e+18
39.9425  5.45948e+18
40.0598  3.79074e+18
40.1771  3.54097e+18
40.2944  4.69958e+18
40.4117  7.1547e+18
40.529  1.07114e+19
40.6463  1.51173e+19
40.7636  2.00403e+19
40.8809  2.51198e+19
40.9982  3.00243e+19
41.1155  3.44036e+19
41.2328  3.80061e+19
41.3501  4.0623e+19
41.4674  4.21946e+19
41.5847  4.26981e+19
41.702  4.21839e+19
41.8193  4.07565e+19
41.9366  3.84895e+19
42.0539  3.55063e+19
42.1712  3.19176e+19
42.2885  2.78587e+19
42.4059  2.3531e+19
42.5232  1.91733e+19
42.6405  1.51068e+19
42.7578  1.16058e+19
42.8751  8.93168e+18
42.9924  7.24551e+18
43.1097  6.56851e+18
43.227  6.79623e+18
43.3443  7.7366e+18
43.4616  9.16625e+18
43.5789  1.08868e+19
43.6962  1.28094e+19
43.8135  1.4933e+19
43.9308  1.7382e+19
44.0481  2.0243e+19
44.1654  2.35584e+19
44.2827  2.7258e+19
44.4  3.10736e+19
44.5173  3.45914e+19
44.6347  3.73219e+19
44.752  3.88229e+19
44.8693  3.8751e+19
44.9866  3.70553e+19
45.1039  3.39113e+19
45.2212  2.97785e+19
45.3385  2.5237e+19
45.4558  2.08817e+19
45.5731  1.72022e+19
45.6904  1.44562e+19
45.8077  1.26951e+19
45.925  1.17024e+19
46.0423  1.11619e+19
46.1596  1.06982e+19
46.2769  1.00471e+19
46.3942  9.05156e+18
46.5115  7.7549e+18
46.6288  6.31016e+18
46.7461  4.96535e+18
46.8634  3.95964e+18
46.9808  3.46107e+18
47.0981  3.5485e+18
47.2154  4.17688e+18
47.3327  5.23665e+18
47.45  6.55309e+18
47.5673  7.98534e+18
47.6846  9.42601e+18
47.8019  1.07858e+19
47.9192  1.20124e+19
48.0365  1.30846e+19
48.1538  1.39545e+19
48.2711  1.45721e+19
48.3884  1.48206e+19
48.5057  1.46483e+19
48.623  1.39495e+19
48.7403  1.27251e+19
48.8576  1.1045e+19
48.9749  9.01872e+18
49.0922  6.8633e+18
49.2095  4.85031e+18
49.3269  3.28958e+18
49.4442  2.4786e+18
49.5615  2.67866e+18
49.6788  4.04211e+18
49.7961  6.60204e+18
49.9134  1.02069e+19
50.0307  1.45634e+19
50.148  1.92318e+19
50.2653  2.36341e+19
50.3826  2.72023e+19
50.4999  2.9451e+19
50.6172  3.00095e+19
50.7345  2.87661e+19
50.8518  2.58465e+19
