#S 1 spectral density
#N 2
#UFWHM 12.0824
#L  abscissas [um]  spectral density
-58.5938  2.26747e+19
-58.4764  2.3873e+19
-58.3591  2.42343e+19
-58.2418  2.36932e+19
-58.1245  2.23899e+19
-58.0072  2.06403e+19
-57.8899  1.87882e+19
-57.7726  1.7186e+19
-57.6553  1.60975e+19
-57.538  1.56526e+19
-57.4207  1.58334e+19
-57.3034  1.65039e+19
-57.1861  1.74191e+19
-57.0688  1.83244e+19
-56.9515  1.8946e+19
-56.8342  1.91512e+19
-56.7169  1.87939e+19
-56.5996  1.79446e+19
-56.4823  1.6683e+19
-56.365  1.51638e+19
-56.2477  1.35931e+19
-56.1303  1.21159e+19
-56.013  1.08606e+19
-55.8957  9.92147e+18
-55.7784  9.34289e+18
-55.6611  9.15538e+18
-55.5438  9.39142e+18
-55.4265  1.00691e+19
-55.3092  1.12178e+19
-55.1919  1.28252e+19
-55.0746  1.48148e+19
-54.9573  1.70324e+19
-54.84  1.92378e+19
-54.7227  2.1101e+19
-54.6054  2.23091e+19
-54.4881  2.25755e+19
-54.3708  2.17729e+19
-54.2535  1.99033e+19
-54.1362  1.71913e+19
-54.0189  1.40311e+19
-53.9016  1.09074e+19
-53.7842  8.30731e+18
-53.6669  6.65544e+18
-53.5496  6.16659e+18
-53.4323  6.88422e+18
-53.315  8.62253e+18
-53.1977  1.1075e+19
-53.0804  1.38582e+19
-52.9631  1.65752e+19
-52.8458  1.89142e+19
-52.7285  2.06796e+19
-52.6112  2.17298e+19
-52.4939  2.2041e+19
-52.3766  2.16072e+19
-52.2593  2.0502e+19
-52.142  1.87945e+19
-52.0247  1.66305e+19
-51.9074  1.42706e+19
-51.7901  1.21047e+19
-51.6728  1.06652e+19
-51.5555  1.05745e+19
-51.4381  1.24682e+19
-51.3208  1.68711e+19
-51.2035  2.40711e+19
-51.0862  3.39754e+19
-50.9689  4.61306e+19
-50.8516  5.96567e+19
-50.7343  7.33053e+19
-50.617  8.57104e+19
-50.4997  9.55757e+19
-50.3824  1.01704e+20
-50.2651  1.03459e+20
-50.1478  1.00533e+20
-50.0305  9.33914e+19
-49.9132  8.26974e+19
-49.7959  6.96912e+19
-49.6786  5.5741e+19
-49.5613  4.21948e+19
-49.444  3.02318e+19
-49.3267  2.07414e+19
-49.2094  1.41501e+19
-49.092  1.05234e+19
-48.9747  9.55164e+18
-48.8574  1.06768e+19
-48.7401  1.32043e+19
-48.6228  1.64327e+19
-48.5055  1.97484e+19
-48.3882  2.27182e+19
-48.2709  2.50543e+19
-48.1536  2.66309e+19
-48.0363  2.74383e+19
-47.919  2.75163e+19
-47.8017  2.69151e+19
-47.6844  2.57133e+19
-47.5671  2.3994e+19
-47.4498  2.19084e+19
-47.3325  1.96567e+19
-47.2152  1.75853e+19
-47.0979  1.60984e+19
-46.9806  1.56477e+19
-46.8633  1.66572e+19
-46.7459  1.94099e+19
-46.6286  2.39959e+19
-46.5113  3.02245e+19
-46.394  3.76556e+19
-46.2767  4.55798e+19
-46.1594  5.31709e+19
-46.0421  5.955e+19
-45.9248  6.39512e+19
-45.8075  6.57611e+19
-45.6902  6.46457e+19
-45.5729  6.06061e+19
-45.4556  5.39826e+19
-45.3383  4.53324e+19
-45.221  3.55416e+19
-45.1037  2.55556e+19
-44.9864  1.63932e+19
-44.8691  9.05367e+18
-44.7518  4.33325e+18
-44.6345  2.7637e+18
-44.5172  4.53411e+18
-44.3998  9.43848e+18
-44.2825  1.68744e+19
-44.1652  2.59158e+19
-44.0479  3.54674e+19
-43.9306  4.42915e+19
-43.8133  5.13329e+19
-43.696  5.57646e+19
-43.5787  5.71557e+19
-43.4614  5.54824e+19
-43.3441  5.11308e+19
-43.2268  4.4762e+19
-43.1095  3.72701e+19
-42.9922  2.952e+19
-42.8749  2.2296e+19
-42.7576  1.61677e+19
-42.6403  1.14645e+19
-42.523  8.24486e+18
-42.4057  6.3799e+18
-42.2884  5.59724e+18
-42.171  5.58518e+18
-42.0537  6.04537e+18
-41.9364  6.75662e+18
-41.8191  7.57302e+18
-41.7018  8.45044e+18
-41.5845  9.40178e+18
-41.4672  1.04581e+19
-41.3499  1.16365e+19
-41.2326  1.29036e+19
-41.1153  1.41512e+19
-40.998  1.52055e+19
-40.8807  1.58511e+19
-40.7634  1.58626e+19
-40.6461  1.50917e+19
-40.5288  1.35193e+19
-40.4115  1.12892e+19
-40.2942  8.70734e+18
-40.1769  6.25002e+18
-40.0596  4.45488e+18
-39.9423  3.78927e+18
-39.825  4.58374e+18
-39.7076  6.90265e+18
-39.5903  1.0522e+19
-39.473  1.49316e+19
-39.3557  1.9484e+19
-39.2384  2.35108e+19
-39.1211  2.65251e+19
-39.0038  2.83833e+19
-38.8865  2.93193e+19
-38.7692  2.99483e+19
-38.6519  3.11602e+19
-38.5346  3.38246e+19
-38.4173  3.85791e+19
-38.3  4.56079e+19
-38.1827  5.44882e+19
-38.0654  6.41879e+19
-37.9481  7.32542e+19
-37.8308  8.00513e+19
-37.7135  8.31534e+19
-37.5962  8.15915e+19
-37.4789  7.52293e+19
-37.3615  6.47786e+19
-37.2442  5.1662e+19
-37.1269  3.79105e+19
-37.0096  2.56062e+19
-36.8923  1.66384e+19
-36.775  1.22467e+19
-36.6577  1.28452e+19
-36.5404  1.79746e+19
-36.4231  2.64345e+19
-36.3058  3.65539e+19
-36.1885  4.6557e+19
-36.0712  5.48856e+19
-35.9539  6.05139e+19
-35.8366  6.30217e+19
-35.7193  6.25711e+19
-35.602  5.99267e+19
-35.4847  5.60108e+19
-35.3674  5.18199e+19
-35.2501  4.81553e+19
-35.1328  4.5536e+19
-35.0154  4.41408e+19
-34.8981  4.38358e+19
-34.7808  4.43515e+19
-34.6635  4.54334e+19
-34.5462  4.68114e+19
-34.4289  4.84651e+19
-34.3116  5.04066e+19
-34.1943  5.27981e+19
-34.077  5.57185e+19
-33.9597  5.91841e+19
-33.8424  6.29594e+19
-33.7251  6.67025e+19
-33.6078  6.98322e+19
-33.4905  7.17105e+19
-33.3732  7.17876e+19
-33.2559  6.9654e+19
-33.1386  6.51891e+19
-33.0213  5.86131e+19
-32.904  5.05421e+19
-32.7867  4.18568e+19
-32.6693  3.36209e+19
-32.552  2.70121e+19
-32.4347  2.29985e+19
-32.3174  2.23841e+19
-32.2001  2.55367e+19
-32.0828  3.24134e+19
-31.9655  4.25345e+19
-31.8482  5.49706e+19
-31.7309  6.85554e+19
-31.6136  8.19714e+19
-31.4963  9.39066e+19
-31.379  1.03258e+20
-31.2617  1.09147e+20
-31.1444  1.11142e+20
-31.0271  1.09215e+20
-30.9098  1.03684e+20
-30.7925  9.5249e+19
-30.6752  8.47504e+19
-30.5579  7.31376e+19
-30.4406  6.13797e+19
-30.3232  5.02179e+19
-30.2059  4.02815e+19
-30.0886  3.18785e+19
-29.9713  2.51018e+19
-29.854  1.98881e+19
-29.7367  1.59819e+19
-29.6194  1.31242e+19
-29.5021  1.10595e+19
-29.3848  9.62659e+18
-29.2675  8.75032e+18
-29.1502  8.46241e+18
-29.0329  8.83371e+18
-28.9156  9.94062e+18
-28.7983  1.17784e+19
-28.681  1.42486e+19
-28.5637  1.7134e+19
-28.4464  2.01109e+19
-28.3291  2.28447e+19
-28.2118  2.50443e+19
-28.0944  2.65276e+19
-27.9771  2.72909e+19
-27.8598  2.75192e+19
-27.7425  2.75346e+19
-27.6252  2.77491e+19
-27.5079  2.85163e+19
-27.3906  3.00859e+19
-27.2733  3.24787e+19
-27.156  3.55149e+19
-27.0387  3.87811e+19
-26.9214  4.17576e+19
-26.8041  4.38954e+19
-26.6868  4.47436e+19
-26.5695  4.40505e+19
-26.4522  4.18089e+19
-26.3349  3.82235e+19
-26.2176  3.3748e+19
-26.1003  2.88962e+19
-25.983  2.42596e+19
-25.8657  2.03045e+19
-25.7483  1.7337e+19
-25.631  1.54657e+19
-25.5137  1.45972e+19
-25.3964  1.44812e+19
-25.2791  1.47705e+19
-25.1618  1.51276e+19
-25.0445  1.52993e+19
-24.9272  1.51944e+19
-24.8099  1.49394e+19
-24.6926  1.48683e+19
-24.5753  1.54771e+19
-24.458  1.73892e+19
-24.3407  2.12143e+19
-24.2234  2.74099e+19
-24.1061  3.62626e+19
-23.9888  4.76897e+19
-23.8715  6.13385e+19
-23.7542  7.64554e+19
-23.6369  9.21313e+19
-23.5196  1.07289e+20
-23.4023  1.20809e+20
-23.2849  1.31826e+20
-23.1676  1.39559e+20
-23.0503  1.43619e+20
-22.933  1.43913e+20
-22.8157  1.4058e+20
-22.6984  1.34183e+20
-22.5811  1.25358e+20
-22.4638  1.1488e+20
-22.3465  1.03726e+20
-22.2292  9.27258e+19
-22.1119  8.27778e+19
-21.9946  7.46745e+19
-21.8773  6.90308e+19
-21.76  6.62323e+19
-21.6427  6.63458e+19
-21.5254  6.91985e+19
-21.4081  7.42152e+19
-21.2908  8.06872e+19
-21.1735  8.77347e+19
-21.0561  9.44633e+19
-20.9388  1.00218e+20
-20.8215  1.04591e+20
-20.7042  1.07576e+20
-20.5869  1.09587e+20
-20.4696  1.11471e+20
-20.3523  1.14274e+20
-20.235  1.19235e+20
-20.1177  1.27414e+20
-20.0004  1.39744e+20
-19.8831  1.56777e+20
-19.7658  1.78362e+20
-19.6485  2.04019e+20
-19.5312  2.32593e+20
-19.4139  2.62596e+20
-19.2966  2.922e+20
-19.1793  3.19456e+20
-19.062  3.42513e+20
-18.9447  3.59819e+20
-18.8274  3.70173e+20
-18.71  3.73042e+20
-18.5927  3.68383e+20
-18.4754  3.56661e+20
-18.3581  3.39134e+20
-18.2408  3.16961e+20
-18.1235  2.91983e+20
-18.0062  2.65708e+20
-17.8889  2.3982e+20
-17.7716  2.15735e+20
-17.6543  1.94391e+20
-17.537  1.76747e+20
-17.4197  1.63179e+20
-17.3024  1.53935e+20
-17.1851  1.48997e+20
-17.0678  1.48224e+20
-16.9505  1.51406e+20
-16.8332  1.58272e+20
-16.7159  1.68516e+20
-16.5986  1.81913e+20
-16.4813  1.98259e+20
-16.364  2.17375e+20
-16.2466  2.39111e+20
-16.1293  2.63453e+20
-16.012  2.90226e+20
-15.8947  3.19367e+20
-15.7774  3.50651e+20
-15.6601  3.83849e+20
-15.5428  4.18613e+20
-15.4255  4.54591e+20
-15.3082  4.91287e+20
-15.1909  5.28046e+20
-15.0736  5.64334e+20
-14.9563  5.9955e+20
-14.839  6.33013e+20
-14.7217  6.64106e+20
-14.6044  6.92331e+20
-14.4871  7.16986e+20
-14.3698  7.37747e+20
-14.2525  7.54318e+20
-14.1352  7.66651e+20
-14.0178  7.74661e+20
-13.9005  7.78696e+20
-13.7832  7.79212e+20
-13.6659  7.76716e+20
-13.5486  7.71848e+20
-13.4313  7.65479e+20
-13.314  7.58249e+20
-13.1967  7.51045e+20
-13.0794  7.44676e+20
-12.9621  7.40431e+20
-12.8448  7.39505e+20
-12.7275  7.43852e+20
-12.6102  7.55195e+20
-12.4929  7.75903e+20
-12.3756  8.08289e+20
-12.2583  8.54235e+20
-12.141  9.15314e+20
-12.0237  9.92325e+20
-11.9064  1.08488e+21
-11.7891  1.19126e+21
-11.6718  1.30875e+21
-11.5544  1.4332e+21
-11.4371  1.55971e+21
-11.3198  1.68337e+21
-11.2025  1.79891e+21
-11.0852  1.90204e+21
-10.9679  1.98964e+21
-10.8506  2.05979e+21
-10.7333  2.11254e+21
-10.616  2.14949e+21
-10.4987  2.17349e+21
-10.3814  2.18876e+21
-10.2641  2.20008e+21
-10.1468  2.21303e+21
-10.0295  2.23242e+21
-9.91217  2.26329e+21
-9.79487  2.30985e+21
-9.67756  2.37524e+21
-9.56026  2.46198e+21
-9.44295  2.57106e+21
-9.32565  2.70305e+21
-9.20834  2.85696e+21
-9.09104  3.03128e+21
-8.97373  3.22325e+21
-8.85643  3.42978e+21
-8.73913  3.64733e+21
-8.62182  3.87164e+21
-8.50452  4.0987e+21
-8.38721  4.32509e+21
-8.26991  4.54729e+21
-8.1526  4.76326e+21
-8.03529  4.97125e+21
-7.91799  5.17118e+21
-7.80069  5.36386e+21
-7.68338  5.55082e+21
-7.56608  5.73482e+21
-7.44877  5.91922e+21
-7.33146  6.10704e+21
-7.21416  6.30148e+21
-7.09685  6.50524e+21
-6.97955  6.71994e+21
-6.86224  6.94617e+21
-6.74494  7.18312e+21
-6.62763  7.4288e+21
-6.51033  7.67986e+21
-6.39302  7.93216e+21
-6.27572  8.1809e+21
-6.15842  8.42098e+21
-6.04111  8.64703e+21
-5.92381  8.85468e+21
-5.8065  9.03966e+21
-5.68919  9.19879e+21
-5.57189  9.33024e+21
-5.45458  9.43326e+21
-5.33728  9.50831e+21
-5.21997  9.55723e+21
-5.10267  9.58328e+21
-4.98536  9.5907e+21
-4.86806  9.58471e+21
-4.75075  9.57156e+21
-4.63345  9.55812e+21
-4.51614  9.55105e+21
-4.39884  9.55716e+21
-4.28154  9.58282e+21
-4.16423  9.63355e+21
-4.04692  9.71262e+21
-3.92962  9.82237e+21
-3.81231  9.9634e+21
-3.69501  1.01337e+22
-3.5777  1.03306e+22
-3.4604  1.05489e+22
-3.34309  1.0783e+22
-3.22579  1.10264e+22
-3.10849  1.12733e+22
-2.99118  1.15179e+22
-2.87387  1.17559e+22
-2.75657  1.19841e+22
-2.63926  1.22016e+22
-2.52196  1.2408e+22
-2.40465  1.26055e+22
-2.28735  1.27964e+22
-2.17005  1.29846e+22
-2.05274  1.31746e+22
-1.93544  1.33701e+22
-1.81813  1.35751e+22
-1.70083  1.37927e+22
-1.58352  1.40254e+22
-1.46622  1.42736e+22
-1.34891  1.45367e+22
-1.2316  1.48128e+22
-1.1143  1.5098e+22
-0.996995  1.53871e+22
-0.87969  1.56737e+22
-0.762385  1.59497e+22
-0.64508  1.62073e+22
-0.527775  1.6438e+22
-0.41047  1.6634e+22
-0.293165  1.67877e+22
-0.17586  1.68938e+22
-0.058555  1.69481e+22
0.05875  1.69483e+22
0.176055  1.68947e+22
0.29336  1.67894e+22
0.410665  1.66364e+22
0.52797  1.64417e+22
0.645275  1.62121e+22
0.76258  1.59561e+22
0.879885  1.56818e+22
0.99719  1.53975e+22
1.1145  1.51107e+22
1.2318  1.48279e+22
1.3491  1.45541e+22
1.46641  1.42935e+22
1.58371  1.40478e+22
1.70102  1.38175e+22
1.81832  1.3602e+22
1.93563  1.33991e+22
2.05294  1.32052e+22
2.17024  1.30169e+22
2.28754  1.28297e+22
2.40485  1.26392e+22
2.52216  1.24422e+22
2.63946  1.22356e+22
2.75677  1.20178e+22
2.87407  1.17886e+22
2.99137  1.15498e+22
3.10868  1.13042e+22
3.22599  1.10563e+22
3.34329  1.08121e+22
3.4606  1.05772e+22
3.5779  1.03586e+22
3.69521  1.01616e+22
3.81251  9.99113e+21
3.92982  9.85046e+21
4.04712  9.74124e+21
4.16443  9.66306e+21
4.28173  9.61344e+21
4.39903  9.58852e+21
4.51634  9.58324e+21
4.63364  9.59119e+21
4.75095  9.60548e+21
4.86825  9.61914e+21
4.98556  9.62531e+21
5.10286  9.61807e+21
5.22017  9.59139e+21
5.33748  9.54198e+21
5.45478  9.46596e+21
5.57209  9.36181e+21
5.68939  9.22913e+21
5.8067  9.06826e+21
5.924  8.88173e+21
6.0413  8.67282e+21
6.15861  8.44538e+21
6.27591  8.20407e+21
6.39322  7.95448e+21
6.51052  7.70143e+21
6.62783  7.44979e+21
6.74514  7.20374e+21
6.86244  6.96662e+21
6.97975  6.74027e+21
7.09705  6.52567e+21
7.21436  6.32196e+21
7.33166  6.12727e+21
7.44897  5.93928e+21
7.56627  5.75461e+21
7.68358  5.56998e+21
7.80088  5.38227e+21
7.91819  5.18884e+21
8.03549  4.98805e+21
8.1528  4.77928e+21
8.2701  4.56249e+21
8.38741  4.33958e+21
8.50471  4.11264e+21
8.62202  3.88536e+21
8.73932  3.66097e+21
8.85662  3.44349e+21
8.97393  3.23716e+21
9.09123  3.04561e+21
9.20854  2.87179e+21
9.32584  2.71836e+21
9.44315  2.587e+21
9.56045  2.47834e+21
9.67776  2.39217e+21
9.79506  2.32703e+21
9.91237  2.28086e+21
10.0297  2.25001e+21
10.147  2.23045e+21
10.2643  2.21722e+21
10.3816  2.20535e+21
10.4989  2.1893e+21
10.6162  2.16435e+21
10.7335  2.12625e+21
10.8508  2.07219e+21
10.9681  2.00059e+21
11.0854  1.91173e+21
11.2027  1.80731e+21
11.32  1.69064e+21
11.4373  1.56609e+21
11.5546  1.43867e+21
11.6719  1.31363e+21
11.7893  1.19576e+21
11.9066  1.08904e+21
12.0239  9.96482e+20
12.1412  9.19524e+20
12.2585  8.58523e+20
12.3758  8.12774e+20
12.4931  7.80684e+20
12.6104  7.60214e+20
12.7277  7.49051e+20
12.845  7.44845e+20
12.9623  7.45909e+20
13.0796  7.50309e+20
13.1969  7.56661e+20
13.3142  7.63936e+20
13.4315  7.71198e+20
13.5488  7.77481e+20
13.6661  7.82165e+20
13.7834  7.84543e+20
13.9007  7.83804e+20
14.018  7.79484e+20
14.1354  7.71303e+20
14.2527  7.58839e+20
14.37  7.42002e+20
14.4873  7.21143e+20
14.6046  6.96314e+20
14.7219  6.68047e+20
14.8392  6.36823e+20
14.9565  6.03231e+20
15.0738  5.67974e+20
15.1911  5.31482e+20
15.3084  4.94586e+20
15.4257  4.57822e+20
15.543  4.21678e+20
15.6603  3.86664e+20
15.7776  3.53187e+20
15.8949  3.21641e+20
16.0122  2.9222e+20
16.1295  2.65178e+20
16.2468  2.40609e+20
16.3641  2.18627e+20
16.4815  1.99317e+20
16.5988  1.8283e+20
16.7161  1.69361e+20
16.8334  1.59033e+20
16.9507  1.52205e+20
17.068  1.49054e+20
17.1853  1.49897e+20
17.3026  1.54957e+20
17.4199  1.64394e+20
17.5372  1.78209e+20
17.6545  1.96066e+20
17.7718  2.1754e+20
17.8891  2.41903e+20
18.0064  2.67913e+20
18.1237  2.94222e+20
18.241  3.19295e+20
18.3583  3.41393e+20
18.4756  3.58853e+20
18.5929  3.70314e+20
18.7102  3.748e+20
18.8275  3.71615e+20
18.9449  3.60962e+20
19.0622  3.43368e+20
19.1795  3.20034e+20
19.2968  2.92639e+20
19.4141  2.629e+20
19.5314  2.32845e+20
19.6487  2.04314e+20
19.766  1.7873e+20
19.8833  1.57276e+20
20.0006  1.40425e+20
20.1179  1.28228e+20
20.2352  1.20114e+20
20.3525  1.15255e+20
20.4698  1.12501e+20
20.5871  1.10615e+20
20.7044  1.08512e+20
20.8217  1.05407e+20
20.939  1.00912e+20
21.0563  9.50533e+19
21.1736  8.81963e+19
21.291  8.10821e+19
21.4083  7.45546e+19
21.5256  6.95433e+19
21.6429  6.67297e+19
21.7602  6.66865e+19
21.8775  6.96006e+19
21.9948  7.53732e+19
22.1121  8.35725e+19
22.2294  9.3641e+19
22.3467  1.0474e+20
22.464  1.15982e+20
22.5813  1.26492e+20
22.6986  1.35318e+20
22.8159  1.4163e+20
22.9332  1.44821e+20
23.0505  1.44387e+20
23.1678  1.40145e+20
23.2851  1.32234e+20
23.4024  1.21029e+20
23.5198  1.07308e+20
23.6371  9.20432e+19
23.7544  7.62734e+19
23.8717  6.11152e+19
23.989  4.74774e+19
24.1063  3.60999e+19
24.2236  2.73171e+19
24.3409  2.11848e+19
24.4582  1.7446e+19
24.5755  1.55767e+19
24.6928  1.4997e+19
24.8101  1.50803e+19
24.9274  1.53349e+19
25.0447  1.54224e+19
25.162  1.52374e+19
25.2793  1.48796e+19
25.3966  1.46072e+19
25.5139  1.47603e+19
25.6312  1.56806e+19
25.7485  1.76132e+19
25.8658  2.06483e+19
25.9832  2.46712e+19
26.1005  2.93556e+19
26.2178  3.42249e+19
26.3351  3.87277e+19
26.4524  4.23061e+19
26.5697  4.45268e+19
26.687  4.51784e+19
26.8043  4.42729e+19
26.9216  4.20941e+19
27.0389  3.90887e+19
27.1562  3.57886e+19
27.2735  3.27582e+19
27.3908  3.0359e+19
27.5081  2.87827e+19
27.6254  2.80152e+19
27.7427  2.77812e+19
27.86  2.77331e+19
27.9773  2.74715e+19
28.0946  2.66604e+19
28.212  2.5125e+19
28.3293  2.28754e+19
28.4466  2.00807e+19
28.5639  1.70642e+19
28.6812  1.41608e+19
28.7985  1.1681e+19
28.9158  9.84817e+18
29.0331  8.75259e+18
29.1504  8.40479e+18
29.2677  8.71412e+18
29.385  9.61663e+18
29.5023  1.10763e+19
29.6196  1.31708e+19
29.7369  1.60709e+19
29.8542  2.00232e+19
29.9715  2.53179e+19
30.0888  3.21559e+19
30.2061  4.0661e+19
30.3234  5.07032e+19
30.4407  6.19468e+19
30.558  7.37964e+19
30.6754  8.54154e+19
30.7927  9.59508e+19
30.91  1.04398e+20
31.0273  1.09814e+20
31.1446  1.11614e+20
31.2619  1.09482e+20
31.3792  1.03448e+20
31.4965  9.39547e+19
31.6138  8.19034e+19
31.7311  6.84284e+19
31.8484  5.48182e+19
31.9657  4.24017e+19
32.083  3.23646e+19
32.2003  2.55645e+19
32.3176  2.24916e+19
32.4349  2.31926e+19
32.5522  2.72382e+19
32.6695  3.38535e+19
32.7868  4.20313e+19
32.9042  5.06359e+19
33.0215  5.85755e+19
33.1388  6.50146e+19
33.2561  6.93398e+19
33.3734  7.13942e+19
33.4907  7.12392e+19
33.608  6.93236e+19
33.7253  6.62269e+19
33.8426  6.25296e+19
33.9599  5.88221e+19
34.0772  5.54545e+19
34.1945  5.26102e+19
34.3118  5.0299e+19
34.4291  4.84262e+19
34.5464  4.68461e+19
34.6637  4.55006e+19
34.781  4.45223e+19
34.8983  4.40757e+19
35.0156  4.44725e+19
35.1329  4.60051e+19
35.2503  4.87288e+19
35.3676  5.24751e+19
35.4849  5.6709e+19
35.6022  6.0617e+19
35.7195  6.31988e+19
35.8368  6.34984e+19
35.9541  6.08555e+19
36.0714  5.50473e+19
36.1887  4.65564e+19
36.306  3.64365e+19
36.4233  2.62613e+19
36.5406  1.7813e+19
36.6579  1.2763e+19
36.7752  1.22838e+19
36.8925  1.68071e+19
37.0098  2.58974e+19
37.1271  3.82667e+19
37.2444  5.20551e+19
37.3617  6.51484e+19
37.479  7.55222e+19
37.5964  8.17354e+19
37.7137  8.31764e+19
37.831  7.99558e+19
37.9483  7.30717e+19
38.0656  6.39459e+19
38.1829  5.42324e+19
38.3002  4.53749e+19
38.4175  3.84027e+19
38.5348  3.36914e+19
38.6521  3.10612e+19
38.7694  2.98656e+19
38.8867  2.92143e+19
39.004  2.82436e+19
39.1213  2.63437e+19
39.2386  2.3283e+19
39.3559  1.92359e+19
39.4732  1.46919e+19
39.5905  1.03189e+19
39.7078  6.7679e+18
39.8251  4.53303e+18
39.9425  3.82549e+18
40.0598  4.57228e+18
40.1771  6.43689e+18
40.2944  8.92176e+18
40.4117  1.15103e+19
40.529  1.37301e+19
40.6463  1.52573e+19
40.7636  1.59743e+19
40.8809  1.59103e+19
40.9982  1.52209e+19
41.1155  1.41259e+19
41.2328  1.28443e+19
41.3501  1.15578e+19
41.4674  1.03656e+19
41.5847  9.30392e+18
41.702  8.35826e+18
41.8193  7.48011e+18
41.9366  6.67724e+18
42.0539  5.98884e+18
42.1712  5.56018e+18
42.2885  5.62286e+18
42.4059  6.46805e+18
42.5232  8.41141e+18
42.6405  1.17267e+19
42.7578  1.65235e+19
42.8751  2.27347e+19
42.9924  3.00329e+19
43.1097  3.78318e+19
43.227  4.53304e+19
43.3443  5.16552e+19
43.4616  5.59411e+19
43.5789  5.75117e+19
43.6962  5.59816e+19
43.8135  5.14091e+19
43.9308  4.42223e+19
44.0481  3.5288e+19
44.1654  2.57007e+19
44.2827  1.66295e+19
44.4  9.22468e+18
44.5173  4.40283e+18
44.6347  2.7424e+18
44.752  4.43645e+18
44.8693  9.2749e+18
44.9866  1.67164e+19
45.1039  2.59167e+19
45.2212  3.59281e+19
45.3385  4.57046e+19
45.4558  5.42475e+19
45.5731  6.07573e+19
45.6904  6.46645e+19
45.8077  6.56157e+19
45.925  6.36793e+19
46.0423  5.91806e+19
46.1596  5.27321e+19
46.2769  4.51084e+19
46.3942  3.7222e+19
46.5115  2.9849e+19
46.6288  2.37075e+19
46.7461  1.92306e+19
46.8634  1.65872e+19
46.9808  1.56926e+19
47.0981  1.62315e+19
47.2154  1.77874e+19
47.3327  1.99007e+19
47.45  2.21788e+19
47.5673  2.42898e+19
47.6846  2.60017e+19
47.8019  2.71887e+19
47.9192  2.77726e+19
48.0365  2.76601e+19
48.1538  2.68107e+19
48.2711  2.51697e+19
48.3884  2.27754e+19
48.5057  1.97404e+19
48.623  1.63671e+19
48.7403  1.31141e+19
48.8576  1.05797e+19
48.9749  9.49055e+18
49.0922  1.05287e+19
49.2095  1.4242e+19
49.3269  2.09474e+19
49.4442  3.05478e+19
49.5615  4.25947e+19
49.6788  5.61705e+19
49.7961  7.01482e+19
49.9134  8.30581e+19
50.0307  9.36469e+19
50.148  1.00735e+20
50.2653  1.03491e+20
50.3826  1.01613e+20
50.4999  9.53477e+19
50.6172  8.54247e+19
50.7345  7.29734e+19
