#S 1 spectral density
#N 2
#UFWHM 8.56327
#L  abscissas [um]  spectral density
-58.5938  6.60389e+18
-58.4764  6.24958e+18
-58.3591  6.03992e+18
-58.2418  6.13936e+18
-58.1245  6.62872e+18
-58.0072  7.49736e+18
-57.8899  8.67944e+18
-57.7726  1.00664e+19
-57.6553  1.15518e+19
-57.538  1.3054e+19
-57.4207  1.45224e+19
-57.3034  1.58758e+19
-57.1861  1.70345e+19
-57.0688  1.78581e+19
-56.9515  1.81699e+19
-56.8342  1.77805e+19
-56.7169  1.6559e+19
-56.5996  1.45458e+19
-56.4823  1.19067e+19
-56.365  9.02209e+18
-56.2477  6.41765e+18
-56.1303  4.62327e+18
-56.013  4.12511e+18
-55.8957  5.20208e+18
-55.7784  7.87581e+18
-55.6611  1.18603e+19
-55.5438  1.66333e+19
-55.4265  2.15531e+19
-55.3092  2.59129e+19
-55.1919  2.91382e+19
-55.0746  3.08668e+19
-54.9573  3.095e+19
-54.84  2.95288e+19
-54.7227  2.68475e+19
-54.6054  2.33743e+19
-54.4881  1.9509e+19
-54.3708  1.56374e+19
-54.2535  1.20616e+19
-54.1362  8.98509e+18
-54.0189  6.5028e+18
-53.9016  4.6776e+18
-53.7842  3.49939e+18
-53.6669  2.92944e+18
-53.5496  2.89976e+18
-53.4323  3.33769e+18
-53.315  4.14331e+18
-53.1977  5.21936e+18
-53.0804  6.46174e+18
-52.9631  7.78006e+18
-52.8458  9.1094e+18
-52.7285  1.03798e+19
-52.6112  1.15661e+19
-52.4939  1.26257e+19
-52.3766  1.35346e+19
-52.2593  1.42217e+19
-52.142  1.46599e+19
-52.0247  1.47973e+19
-51.9074  1.46088e+19
-51.7901  1.40921e+19
-51.6728  1.32723e+19
-51.5555  1.22024e+19
-51.4381  1.09585e+19
-51.3208  9.58703e+18
-51.2035  8.15209e+18
-51.0862  6.69545e+18
-50.9689  5.2573e+18
-50.8516  3.87681e+18
-50.7343  2.62072e+18
-50.617  1.57479e+18
-50.4997  8.50173e+17
-50.3824  5.59438e+17
-50.2651  7.86404e+17
-50.1478  1.57213e+18
-50.0305  2.87363e+18
-49.9132  4.58576e+18
-49.7959  6.52109e+18
-49.6786  8.47703e+18
-49.5613  1.02277e+19
-49.444  1.15666e+19
-49.3267  1.2378e+19
-49.2094  1.26177e+19
-49.092  1.22866e+19
-48.9747  1.14981e+19
-48.8574  1.03524e+19
-48.7401  9.0047e+18
-48.6228  7.58309e+18
-48.5055  6.22765e+18
-48.3882  5.03455e+18
-48.2709  4.055e+18
-48.1536  3.3304e+18
-48.0363  2.86682e+18
-47.919  2.66873e+18
-47.8017  2.74218e+18
-47.6844  3.13177e+18
-47.5671  3.92407e+18
-47.4498  5.25562e+18
-47.3325  7.28771e+18
-47.2152  1.01665e+19
-47.0979  1.39693e+19
-46.9806  1.86323e+19
-46.8633  2.39296e+19
-46.7459  2.93924e+19
-46.6286  3.44451e+19
-46.5113  3.84009e+19
-46.394  4.06368e+19
-46.2767  4.07133e+19
-46.1594  3.84602e+19
-46.0421  3.40893e+19
-45.9248  2.81334e+19
-45.8075  2.13944e+19
-45.6902  1.47799e+19
-45.5729  9.12582e+18
-45.4556  5.06803e+18
-45.3383  2.90469e+18
-45.221  2.60142e+18
-45.1037  3.81104e+18
-44.9864  5.99522e+18
-44.8691  8.58313e+18
-44.7518  1.10663e+19
-44.6345  1.30903e+19
-44.5172  1.45266e+19
-44.3998  1.53974e+19
-44.2825  1.58131e+19
-44.1652  1.59252e+19
-44.0479  1.58337e+19
-43.9306  1.55879e+19
-43.8133  1.51596e+19
-43.696  1.45118e+19
-43.5787  1.36342e+19
-43.4614  1.25594e+19
-43.3441  1.13978e+19
-43.2268  1.03102e+19
-43.1095  9.44556e+18
-42.9922  8.91258e+18
-42.8749  8.73964e+18
-42.7576  8.87252e+18
-42.6403  9.15763e+18
-42.523  9.45737e+18
-42.4057  9.63753e+18
-42.2884  9.64855e+18
-42.171  9.51875e+18
-42.0537  9.38024e+18
-41.9364  9.37526e+18
-41.8191  9.64333e+18
-41.7018  1.02548e+19
-41.5845  1.12021e+19
-41.4672  1.23752e+19
-41.3499  1.35954e+19
-41.2326  1.4652e+19
-41.1153  1.53611e+19
-40.998  1.55859e+19
-40.8807  1.52677e+19
-40.7634  1.43882e+19
-40.6461  1.30533e+19
-40.5288  1.13514e+19
-40.4115  9.43473e+18
-40.2942  7.46424e+18
-40.1769  5.58151e+18
-40.0596  3.93145e+18
-39.9423  2.64194e+18
-39.825  1.80781e+18
-39.7076  1.45164e+18
-39.5903  1.53271e+18
-39.473  1.92701e+18
-39.3557  2.4611e+18
-39.2384  2.95454e+18
-39.1211  3.26168e+18
-39.0038  3.34605e+18
-38.8865  3.30421e+18
-38.7692  3.36893e+18
-38.6519  3.85664e+18
-38.5346  5.08486e+18
-38.4173  7.27496e+18
-38.3  1.04296e+19
-38.1827  1.43111e+19
-38.0654  1.84151e+19
-37.9481  2.20575e+19
-37.8308  2.45389e+19
-37.7135  2.52524e+19
-37.5962  2.38942e+19
-37.4789  2.056e+19
-37.3615  1.5778e+19
-37.2442  1.04446e+19
-37.1269  5.61259e+18
-37.0096  2.39065e+18
-36.8923  1.64863e+18
-36.775  3.88054e+18
-36.6577  9.11286e+18
-36.5404  1.68907e+19
-36.4231  2.63861e+19
-36.3058  3.65695e+19
-36.1885  4.63616e+19
-36.0712  5.48486e+19
-35.9539  6.1367e+19
-35.8366  6.56139e+19
-35.7193  6.76213e+19
-35.602  6.75727e+19
-35.4847  6.59222e+19
-35.3674  6.31063e+19
-35.2501  5.95313e+19
-35.1328  5.55144e+19
-35.0154  5.12553e+19
-34.8981  4.69213e+19
-34.7808  4.258e+19
-34.6635  3.82242e+19
-34.5462  3.3927e+19
-34.4289  2.97562e+19
-34.3116  2.57674e+19
-34.1943  2.20764e+19
-34.077  1.88293e+19
-33.9597  1.61558e+19
-33.8424  1.42115e+19
-33.7251  1.31229e+19
-33.6078  1.30112e+19
-33.4905  1.39291e+19
-33.3732  1.58627e+19
-33.2559  1.86994e+19
-33.1386  2.22396e+19
-33.0213  2.61807e+19
-32.904  3.01814e+19
-32.7867  3.38847e+19
-32.6693  3.695e+19
-32.552  3.91392e+19
-32.4347  4.02544e+19
-32.3174  4.03001e+19
-32.2001  3.93246e+19
-32.0828  3.74765e+19
-31.9655  3.4968e+19
-31.8482  3.20243e+19
-31.7309  2.88906e+19
-31.6136  2.57645e+19
-31.4963  2.28487e+19
-31.379  2.03122e+19
-31.2617  1.83092e+19
-31.1444  1.69462e+19
-31.0271  1.62897e+19
-30.9098  1.63979e+19
-30.7925  1.71994e+19
-30.6752  1.86342e+19
-30.5579  2.0544e+19
-30.4406  2.27489e+19
-30.3232  2.5077e+19
-30.2059  2.73084e+19
-30.0886  2.92747e+19
-29.9713  3.08766e+19
-29.854  3.20176e+19
-29.7367  3.26153e+19
-29.6194  3.27125e+19
-29.5021  3.23409e+19
-29.3848  3.15677e+19
-29.2675  3.05468e+19
-29.1502  2.94019e+19
-29.0329  2.8336e+19
-28.9156  2.75216e+19
-28.7983  2.71156e+19
-28.681  2.72686e+19
-28.5637  2.80216e+19
-28.4464  2.94124e+19
-28.3291  3.13552e+19
-28.2118  3.37198e+19
-28.0944  3.63718e+19
-27.9771  3.91181e+19
-27.8598  4.17913e+19
-27.7425  4.42294e+19
-27.6252  4.62387e+19
-27.5079  4.77556e+19
-27.3906  4.86739e+19
-27.2733  4.90004e+19
-27.156  4.87843e+19
-27.0387  4.8169e+19
-26.9214  4.74296e+19
-26.8041  4.69274e+19
-26.6868  4.70938e+19
-26.5695  4.83588e+19
-26.4522  5.1139e+19
-26.3349  5.57841e+19
-26.2176  6.24139e+19
-26.1003  7.10424e+19
-25.983  8.14279e+19
-25.8657  9.31607e+19
-25.7483  1.05835e+20
-25.631  1.18874e+20
-25.5137  1.31925e+20
-25.3964  1.44552e+20
-25.2791  1.56488e+20
-25.1618  1.67647e+20
-25.0445  1.78022e+20
-24.9272  1.87555e+20
-24.8099  1.96362e+20
-24.6926  2.04458e+20
-24.5753  2.11822e+20
-24.458  2.18281e+20
-24.3407  2.23689e+20
-24.2234  2.27733e+20
-24.1061  2.30122e+20
-23.9888  2.30467e+20
-23.8715  2.2847e+20
-23.7542  2.23823e+20
-23.6369  2.1654e+20
-23.5196  2.0675e+20
-23.4023  1.94743e+20
-23.2849  1.81155e+20
-23.1676  1.66757e+20
-23.0503  1.52449e+20
-22.933  1.39208e+20
-22.8157  1.27786e+20
-22.6984  1.18883e+20
-22.5811  1.12951e+20
-22.4638  1.10179e+20
-22.3465  1.10635e+20
-22.2292  1.14103e+20
-22.1119  1.20354e+20
-21.9946  1.29034e+20
-21.8773  1.3989e+20
-21.76  1.52597e+20
-21.6427  1.66769e+20
-21.5254  1.82086e+20
-21.4081  1.98158e+20
-21.2908  2.14636e+20
-21.1735  2.31149e+20
-21.0561  2.47348e+20
-20.9388  2.62908e+20
-20.8215  2.77499e+20
-20.7042  2.91097e+20
-20.5869  3.03524e+20
-20.4696  3.14673e+20
-20.3523  3.24458e+20
-20.235  3.32791e+20
-20.1177  3.39626e+20
-20.0004  3.44906e+20
-19.8831  3.48392e+20
-19.7658  3.50445e+20
-19.6485  3.51161e+20
-19.5312  3.50975e+20
-19.4139  3.50405e+20
-19.2966  3.50209e+20
-19.1793  3.51154e+20
-19.062  3.54061e+20
-18.9447  3.59825e+20
-18.8274  3.69313e+20
-18.71  3.83157e+20
-18.5927  4.02109e+20
-18.4754  4.26602e+20
-18.3581  4.56749e+20
-18.2408  4.92589e+20
-18.1235  5.33585e+20
-18.0062  5.789e+20
-17.8889  6.27229e+20
-17.7716  6.76819e+20
-17.6543  7.25937e+20
-17.537  7.72391e+20
-17.4197  8.14367e+20
-17.3024  8.50302e+20
-17.1851  8.791e+20
-17.0678  9.00366e+20
-16.9505  9.14241e+20
-16.8332  9.21666e+20
-16.7159  9.24007e+20
-16.5986  9.2307e+20
-16.4813  9.20925e+20
-16.364  9.19584e+20
-16.2466  9.20847e+20
-16.1293  9.25913e+20
-16.012  9.35936e+20
-15.8947  9.50945e+20
-15.7774  9.70831e+20
-15.6601  9.94648e+20
-15.5428  1.02123e+21
-15.4255  1.04882e+21
-15.3082  1.07591e+21
-15.1909  1.10096e+21
-15.0736  1.12258e+21
-14.9563  1.13967e+21
-14.839  1.15204e+21
-14.7217  1.15944e+21
-14.6044  1.16252e+21
-14.4871  1.16225e+21
-14.3698  1.15991e+21
-14.2525  1.15685e+21
-14.1352  1.15447e+21
-14.0178  1.15444e+21
-13.9005  1.15775e+21
-13.7832  1.16555e+21
-13.6659  1.17861e+21
-13.5486  1.19759e+21
-13.4313  1.22285e+21
-13.314  1.25466e+21
-13.1967  1.29297e+21
-13.0794  1.33807e+21
-12.9621  1.3894e+21
-12.8448  1.44697e+21
-12.7275  1.50998e+21
-12.6102  1.57808e+21
-12.4929  1.65034e+21
-12.3756  1.72569e+21
-12.2583  1.80329e+21
-12.141  1.88197e+21
-12.0237  1.96051e+21
-11.9064  2.03762e+21
-11.7891  2.11232e+21
-11.6718  2.1835e+21
-11.5544  2.25038e+21
-11.4371  2.31232e+21
-11.3198  2.36859e+21
-11.2025  2.4189e+21
-11.0852  2.46323e+21
-10.9679  2.50162e+21
-10.8506  2.5344e+21
-10.7333  2.56186e+21
-10.616  2.58473e+21
-10.4987  2.60407e+21
-10.3814  2.62063e+21
-10.2641  2.6356e+21
-10.1468  2.65047e+21
-10.0295  2.66665e+21
-9.91217  2.68536e+21
-9.79487  2.70848e+21
-9.67756  2.73721e+21
-9.56026  2.77274e+21
-9.44295  2.81596e+21
-9.32565  2.86793e+21
-9.20834  2.92879e+21
-9.09104  2.99861e+21
-8.97373  3.07719e+21
-8.85643  3.16424e+21
-8.73913  3.25861e+21
-8.62182  3.3596e+21
-8.50452  3.46615e+21
-8.38721  3.57733e+21
-8.26991  3.69171e+21
-8.1526  3.80852e+21
-8.03529  3.92619e+21
-7.91799  4.04405e+21
-7.80069  4.1613e+21
-7.68338  4.27707e+21
-7.56608  4.39122e+21
-7.44877  4.50379e+21
-7.33146  4.61506e+21
-7.21416  4.72548e+21
-7.09685  4.83629e+21
-6.97955  4.94844e+21
-6.86224  5.06351e+21
-6.74494  5.18339e+21
-6.62763  5.3092e+21
-6.51033  5.44297e+21
-6.39302  5.58643e+21
-6.27572  5.74134e+21
-6.15842  5.90921e+21
-6.04111  6.09165e+21
-5.92381  6.29001e+21
-5.8065  6.5057e+21
-5.68919  6.73938e+21
-5.57189  6.99211e+21
-5.45458  7.26411e+21
-5.33728  7.55564e+21
-5.21997  7.86626e+21
-5.10267  8.19565e+21
-4.98536  8.54236e+21
-4.86806  8.90507e+21
-4.75075  9.28181e+21
-4.63345  9.67055e+21
-4.51614  1.00688e+22
-4.39884  1.0474e+22
-4.28154  1.08837e+22
-4.16423  1.1296e+22
-4.04692  1.17083e+22
-3.92962  1.21193e+22
-3.81231  1.25281e+22
-3.69501  1.29336e+22
-3.5777  1.33358e+22
-3.4604  1.37347e+22
-3.34309  1.413e+22
-3.22579  1.45219e+22
-3.10849  1.49109e+22
-2.99118  1.52962e+22
-2.87387  1.56778e+22
-2.75657  1.60553e+22
-2.63926  1.64273e+22
-2.52196  1.67929e+22
-2.40465  1.7151e+22
-2.28735  1.75e+22
-2.17005  1.78387e+22
-2.05274  1.81662e+22
-1.93544  1.84809e+22
-1.81813  1.87826e+22
-1.70083  1.90704e+22
-1.58352  1.93439e+22
-1.46622  1.9603e+22
-1.34891  1.98474e+22
-1.2316  2.00766e+22
-1.1143  2.029e+22
-0.996995  2.0487e+22
-0.87969  2.06667e+22
-0.762385  2.08275e+22
-0.64508  2.09687e+22
-0.527775  2.10887e+22
-0.41047  2.11861e+22
-0.293165  2.126e+22
-0.17586  2.13092e+22
-0.058555  2.13334e+22
0.05875  2.13321e+22
0.176055  2.13052e+22
0.29336  2.12533e+22
0.410665  2.1177e+22
0.52797  2.10771e+22
0.645275  2.09549e+22
0.76258  2.08118e+22
0.879885  2.06489e+22
0.99719  2.04676e+22
1.1145  2.02691e+22
1.2318  2.00541e+22
1.3491  1.98239e+22
1.46641  1.95785e+22
1.58371  1.93183e+22
1.70102  1.90438e+22
1.81832  1.87551e+22
1.93563  1.84525e+22
2.05294  1.81366e+22
2.17024  1.78084e+22
2.28754  1.74688e+22
2.40485  1.71189e+22
2.52216  1.676e+22
2.63946  1.63935e+22
2.75677  1.60206e+22
2.87407  1.56427e+22
2.99137  1.52602e+22
3.10868  1.48741e+22
3.22599  1.44847e+22
3.34329  1.40925e+22
3.4606  1.36969e+22
3.5779  1.32978e+22
3.69521  1.28955e+22
3.81251  1.24899e+22
3.92982  1.20812e+22
4.04712  1.16702e+22
4.16443  1.12581e+22
4.28173  1.08462e+22
4.39903  1.04366e+22
4.51634  1.00316e+22
4.63364  9.63385e+21
4.75095  9.24533e+21
4.86825  8.8689e+21
4.98556  8.50657e+21
5.10286  8.16038e+21
5.22017  7.83149e+21
5.33748  7.5214e+21
5.45478  7.23054e+21
5.57209  6.9593e+21
5.68939  6.70739e+21
5.8067  6.47452e+21
5.924  6.2598e+21
6.0413  6.06244e+21
6.15861  5.88104e+21
6.27591  5.71404e+21
6.39322  5.56032e+21
6.51052  5.41784e+21
6.62783  5.28487e+21
6.74514  5.15985e+21
6.86244  5.04105e+21
6.97975  4.92652e+21
7.09705  4.81501e+21
7.21436  4.70487e+21
7.33166  4.59481e+21
7.44897  4.48412e+21
7.56627  4.37216e+21
7.68358  4.25848e+21
7.80088  4.14319e+21
7.91819  4.02655e+21
8.03549  3.9094e+21
8.1528  3.79244e+21
8.2701  3.67656e+21
8.38741  3.56298e+21
8.50471  3.45277e+21
8.62202  3.34707e+21
8.73932  3.24691e+21
8.85662  3.15347e+21
8.97393  3.0674e+21
9.09123  2.98947e+21
9.20854  2.92031e+21
9.32584  2.8601e+21
9.44315  2.80858e+21
9.56045  2.76551e+21
9.67776  2.73029e+21
9.79506  2.70172e+21
9.91237  2.67861e+21
10.0297  2.65984e+21
10.147  2.64376e+21
10.2643  2.62894e+21
10.3816  2.6138e+21
10.4989  2.59729e+21
10.6162  2.57798e+21
10.7335  2.55514e+21
10.8508  2.52773e+21
10.9681  2.49511e+21
11.0854  2.45695e+21
11.2027  2.41286e+21
11.32  2.36266e+21
11.4373  2.30655e+21
11.5546  2.24494e+21
11.6719  2.17817e+21
11.7893  2.10726e+21
11.9066  2.03286e+21
12.0239  1.95581e+21
12.1412  1.87764e+21
12.2585  1.79932e+21
12.3758  1.72199e+21
12.4931  1.64687e+21
12.6104  1.57493e+21
12.7277  1.50722e+21
12.845  1.44453e+21
12.9623  1.38729e+21
13.0796  1.33626e+21
13.1969  1.29153e+21
13.3142  1.25346e+21
13.4315  1.2219e+21
13.5488  1.19689e+21
13.6661  1.17809e+21
13.7834  1.16515e+21
13.9007  1.15746e+21
14.018  1.15426e+21
14.1354  1.15434e+21
14.2527  1.15661e+21
14.37  1.1597e+21
14.4873  1.16191e+21
14.6046  1.16207e+21
14.7219  1.15883e+21
14.8392  1.15134e+21
14.9565  1.13895e+21
15.0738  1.12163e+21
15.1911  1.10002e+21
15.3084  1.0749e+21
15.4257  1.04765e+21
15.543  1.01994e+21
15.6603  9.93391e+20
15.7776  9.69636e+20
15.8949  9.49808e+20
16.0122  9.34799e+20
16.1295  9.24867e+20
16.2468  9.19711e+20
16.3641  9.18487e+20
16.4815  9.19794e+20
16.5988  9.21898e+20
16.7161  9.22645e+20
16.8334  9.20299e+20
16.9507  9.12751e+20
17.068  8.98787e+20
17.1853  8.7744e+20
17.3026  8.48583e+20
17.4199  8.12573e+20
17.5372  7.70523e+20
17.6545  7.24072e+20
17.7718  6.75131e+20
17.8891  6.25563e+20
18.0064  5.77459e+20
18.1237  5.32295e+20
18.241  4.91446e+20
18.3583  4.55802e+20
18.4756  4.25813e+20
18.5929  4.01534e+20
18.7102  3.82713e+20
18.8275  3.68987e+20
18.9449  3.59668e+20
19.0622  3.53967e+20
19.1795  3.51135e+20
19.2968  3.50181e+20
19.4141  3.504e+20
19.5314  3.50892e+20
19.6487  3.50952e+20
19.766  3.50174e+20
19.8833  3.47978e+20
20.0006  3.44288e+20
20.1179  3.38955e+20
20.2352  3.32061e+20
20.3525  3.23618e+20
20.4698  3.13739e+20
20.5871  3.02539e+20
20.7044  2.90145e+20
20.8217  2.76583e+20
20.939  2.61988e+20
21.0563  2.46519e+20
21.1736  2.30375e+20
21.291  2.13939e+20
21.4083  1.97536e+20
21.5256  1.8149e+20
21.6429  1.66261e+20
21.7602  1.52161e+20
21.8775  1.39551e+20
21.9948  1.28767e+20
22.1121  1.20118e+20
22.2294  1.13919e+20
22.3467  1.10562e+20
22.464  1.10192e+20
22.5813  1.13041e+20
22.6986  1.19069e+20
22.8159  1.28065e+20
22.9332  1.39565e+20
23.0505  1.5289e+20
23.1678  1.67212e+20
23.2851  1.81611e+20
23.4024  1.95147e+20
23.5198  2.07103e+20
23.6371  2.16828e+20
23.7544  2.2399e+20
23.8717  2.28507e+20
23.989  2.30423e+20
24.1063  2.30005e+20
24.2236  2.27535e+20
24.3409  2.23416e+20
24.4582  2.18011e+20
24.5755  2.11496e+20
24.6928  2.04169e+20
24.8101  1.96092e+20
24.9274  1.87306e+20
25.0447  1.77765e+20
25.162  1.67397e+20
25.2793  1.56226e+20
25.3966  1.44217e+20
25.5139  1.3158e+20
25.6312  1.18518e+20
25.7485  1.05399e+20
25.8658  9.27335e+19
25.9832  8.09476e+19
26.1005  7.0614e+19
26.2178  6.20345e+19
26.3351  5.54258e+19
26.4524  5.0821e+19
26.5697  4.80728e+19
26.687  4.68268e+19
26.8043  4.66836e+19
26.9216  4.71963e+19
27.0389  4.78907e+19
27.1562  4.84682e+19
27.2735  4.86427e+19
27.3908  4.82683e+19
27.5081  4.73048e+19
27.6254  4.57614e+19
27.7427  4.3734e+19
27.86  4.13088e+19
27.9773  3.8649e+19
28.0946  3.59437e+19
28.212  3.3331e+19
28.3293  3.10127e+19
28.4466  2.91264e+19
28.5639  2.7798e+19
28.6812  2.71023e+19
28.7985  2.70077e+19
28.9158  2.74628e+19
29.0331  2.83235e+19
29.1504  2.94337e+19
29.2677  3.06092e+19
29.385  3.16662e+19
29.5023  3.24476e+19
29.6196  3.28174e+19
29.7369  3.2717e+19
29.8542  3.21079e+19
29.9715  3.0978e+19
30.0888  2.93622e+19
30.2061  2.7365e+19
30.3234  2.51171e+19
30.4407  2.28045e+19
30.558  2.05962e+19
30.6754  1.86965e+19
30.7927  1.72742e+19
30.91  1.64822e+19
31.0273  1.64042e+19
31.1446  1.70593e+19
31.2619  1.84289e+19
31.3792  2.04314e+19
31.4965  2.29589e+19
31.6138  2.58658e+19
31.7311  2.89628e+19
31.8484  3.20671e+19
31.9657  3.49781e+19
32.083  3.74554e+19
32.2003  3.92597e+19
32.3176  4.02125e+19
32.4349  4.0148e+19
32.5522  3.90103e+19
32.6695  3.68167e+19
32.7868  3.37512e+19
32.9042  3.00683e+19
33.0215  2.60783e+19
33.1388  2.21794e+19
33.2561  1.86674e+19
33.3734  1.58719e+19
33.4907  1.39673e+19
33.608  1.30696e+19
33.7253  1.32118e+19
33.8426  1.43078e+19
33.9599  1.62689e+19
34.0772  1.89496e+19
34.1945  2.22064e+19
34.3118  2.59019e+19
34.4291  2.98936e+19
34.5464  3.40734e+19
34.6637  3.83628e+19
34.781  4.27066e+19
34.8983  4.70652e+19
35.0156  5.13912e+19
35.1329  5.56037e+19
35.2503  5.95892e+19
35.3676  6.31338e+19
35.4849  6.59117e+19
35.6022  6.75009e+19
35.7195  6.74579e+19
35.8368  6.54119e+19
35.9541  6.10746e+19
36.0714  5.45093e+19
36.1887  4.5989e+19
36.306  3.61857e+19
36.4233  2.60398e+19
36.5406  1.66018e+19
36.6579  8.90209e+18
36.7752  3.76108e+18
36.8925  1.61452e+18
37.0098  2.42479e+18
37.1271  5.69761e+18
37.2444  1.05339e+19
37.3617  1.5852e+19
37.479  2.05822e+19
37.5964  2.38578e+19
37.7137  2.51436e+19
37.831  2.43687e+19
37.9483  2.18532e+19
38.0656  1.81851e+19
38.1829  1.40879e+19
38.3002  1.02392e+19
38.4175  7.11782e+18
38.5348  4.9767e+18
38.6521  3.78877e+18
38.7694  3.33664e+18
38.8867  3.29443e+18
39.004  3.3441e+18
39.1213  3.25646e+18
39.2386  2.93982e+18
39.3559  2.44309e+18
39.4732  1.9029e+18
39.5905  1.51332e+18
39.7078  1.44553e+18
39.8251  1.82096e+18
39.9425  2.68088e+18
40.0598  3.98745e+18
40.1771  5.66048e+18
40.2944  7.56832e+18
40.4117  9.55578e+18
40.529  1.14688e+19
40.6463  1.31698e+19
40.7636  1.44976e+19
40.8809  1.53396e+19
40.9982  1.56506e+19
41.1155  1.54034e+19
41.2328  1.46754e+19
41.3501  1.35997e+19
41.4674  1.23782e+19
41.5847  1.1208e+19
41.702  1.02659e+19
41.8193  9.66656e+18
41.9366  9.40692e+18
42.0539  9.41692e+18
42.1712  9.55814e+18
42.2885  9.67802e+18
42.4059  9.64953e+18
42.5232  9.44831e+18
42.6405  9.12285e+18
42.7578  8.81933e+18
42.8751  8.67991e+18
42.9924  8.84509e+18
43.1097  9.37429e+18
43.227  1.02528e+19
43.3443  1.13572e+19
43.4616  1.25277e+19
43.5789  1.36074e+19
43.6962  1.4502e+19
43.8135  1.51453e+19
43.9308  1.55821e+19
44.0481  1.58363e+19
44.1654  1.59125e+19
44.2827  1.57892e+19
44.4  1.53604e+19
44.5173  1.44801e+19
44.6347  1.30195e+19
44.752  1.0979e+19
44.8693  8.49178e+18
44.9866  5.91931e+18
45.1039  3.75188e+18
45.2212  2.59218e+18
45.3385  2.954e+18
45.4558  5.18137e+18
45.5731  9.30319e+18
45.6904  1.49883e+19
45.8077  2.16246e+19
45.925  2.83453e+19
46.0423  3.42484e+19
46.1596  3.8536e+19
46.2769  4.06948e+19
46.3942  4.05295e+19
46.5115  3.82133e+19
46.6288  3.41997e+19
46.7461  2.91241e+19
46.8634  2.36586e+19
46.9808  1.83898e+19
47.0981  1.37627e+19
47.2154  1.00077e+19
47.3327  7.17147e+18
47.45  5.18361e+18
47.5673  3.88387e+18
47.6846  3.11444e+18
47.8019  2.74206e+18
47.9192  2.68004e+18
48.0365  2.88832e+18
48.1538  3.35471e+18
48.2711  4.08826e+18
48.3884  5.06616e+18
48.5057  6.27375e+18
48.623  7.62036e+18
48.7403  9.02714e+18
48.8576  1.03774e+19
48.9749  1.15112e+19
49.0922  1.22983e+19
49.2095  1.2618e+19
49.3269  1.23712e+19
49.4442  1.15352e+19
49.5615  1.01784e+19
49.6788  8.42596e+18
49.7961  6.4585e+18
49.9134  4.52128e+18
50.0307  2.8187e+18
50.148  1.52335e+18
50.2653  7.59737e+17
50.3826  5.57119e+17
50.4999  8.7531e+17
50.6172  1.62248e+18
50.7345  2.68397e+18
50.8518  3.94346e+18
