#S 1 spectral density
#N 2
#UFWHM 22.6399
#L  abscissas [um]  spectral density
-58.5938  7.76393e+19
-58.4764  8.04954e+19
-58.3591  8.5044e+19
-58.2418  9.06917e+19
-58.1245  9.67381e+19
-58.0072  1.0235e+20
-57.8899  1.0668e+20
-57.7726  1.0909e+20
-57.6553  1.09146e+20
-57.538  1.06825e+20
-57.4207  1.02396e+20
-57.3034  9.6399e+19
-57.1861  8.95064e+19
-57.0688  8.24817e+19
-56.9515  7.59333e+19
-56.8342  7.03769e+19
-56.7169  6.61506e+19
-56.5996  6.33764e+19
-56.4823  6.2143e+19
-56.365  6.24336e+19
-56.2477  6.418e+19
-56.1303  6.72951e+19
-56.013  7.16571e+19
-55.8957  7.70207e+19
-55.7784  8.31147e+19
-55.6611  8.95383e+19
-55.5438  9.58897e+19
-55.4265  1.01835e+20
-55.3092  1.07089e+20
-55.1919  1.11486e+20
-55.0746  1.15087e+20
-54.9573  1.17975e+20
-54.84  1.20463e+20
-54.7227  1.22685e+20
-54.6054  1.24877e+20
-54.4881  1.27034e+20
-54.3708  1.28965e+20
-54.2535  1.30534e+20
-54.1362  1.31431e+20
-54.0189  1.31255e+20
-53.9016  1.29793e+20
-53.7842  1.26941e+20
-53.6669  1.22603e+20
-53.5496  1.16952e+20
-53.4323  1.10217e+20
-53.315  1.0273e+20
-53.1977  9.49212e+19
-53.0804  8.71829e+19
-52.9631  7.9959e+19
-52.8458  7.36394e+19
-52.7285  6.85635e+19
-52.6112  6.49624e+19
-52.4939  6.29863e+19
-52.3766  6.26433e+19
-52.2593  6.38374e+19
-52.142  6.63315e+19
-52.0247  6.97865e+19
-51.9074  7.38582e+19
-51.7901  7.81104e+19
-51.6728  8.21158e+19
-51.5555  8.55729e+19
-51.4381  8.80842e+19
-51.3208  8.94198e+19
-51.2035  8.94257e+19
-51.0862  8.80332e+19
-50.9689  8.53008e+19
-50.8516  8.13581e+19
-50.7343  7.65447e+19
-50.617  7.12433e+19
-50.4997  6.59539e+19
-50.3824  6.12037e+19
-50.2651  5.74846e+19
-50.1478  5.51968e+19
-50.0305  5.46249e+19
-49.9132  5.58243e+19
-49.7959  5.87228e+19
-49.6786  6.30344e+19
-49.5613  6.83511e+19
-49.444  7.41618e+19
-49.3267  7.99933e+19
-49.2094  8.52827e+19
-49.092  8.9558e+19
-48.9747  9.25089e+19
-48.8574  9.39148e+19
-48.7401  9.36599e+19
-48.6228  9.1868e+19
-48.5055  8.86671e+19
-48.3882  8.43699e+19
-48.2709  7.93518e+19
-48.1536  7.40355e+19
-48.0363  6.87831e+19
-47.919  6.39523e+19
-47.8017  5.98004e+19
-47.6844  5.65257e+19
-47.5671  5.42143e+19
-47.4498  5.2957e+19
-47.3325  5.27956e+19
-47.2152  5.3729e+19
-47.0979  5.57527e+19
-46.9806  5.87659e+19
-46.8633  6.26124e+19
-46.7459  6.71012e+19
-46.6286  7.18791e+19
-46.5113  7.66755e+19
-46.394  8.11053e+19
-46.2767  8.50197e+19
-46.1594  8.83526e+19
-46.0421  9.11658e+19
-45.9248  9.36936e+19
-45.8075  9.62528e+19
-45.6902  9.91107e+19
-45.5729  1.02462e+20
-45.4556  1.06214e+20
-45.3383  1.1017e+20
-45.221  1.13849e+20
-45.1037  1.16808e+20
-44.9864  1.18646e+20
-44.8691  1.18982e+20
-44.7518  1.1777e+20
-44.6345  1.15208e+20
-44.5172  1.11687e+20
-44.3998  1.07694e+20
-44.2825  1.03736e+20
-44.1652  1.00177e+20
-44.0479  9.72057e+19
-43.9306  9.48572e+19
-43.8133  9.29757e+19
-43.696  9.14362e+19
-43.5787  9.01106e+19
-43.4614  8.9065e+19
-43.3441  8.84551e+19
-43.2268  8.86391e+19
-43.1095  8.99811e+19
-42.9922  9.28539e+19
-42.8749  9.74548e+19
-42.7576  1.03858e+20
-42.6403  1.11912e+20
-42.523  1.21284e+20
-42.4057  1.31584e+20
-42.2884  1.4235e+20
-42.171  1.53129e+20
-42.0537  1.63756e+20
-41.9364  1.74064e+20
-41.8191  1.84022e+20
-41.7018  1.93698e+20
-41.5845  2.03294e+20
-41.4672  2.12988e+20
-41.3499  2.22948e+20
-41.2326  2.33155e+20
-41.1153  2.4366e+20
-40.998  2.54234e+20
-40.8807  2.64587e+20
-40.7634  2.74212e+20
-40.6461  2.82581e+20
-40.5288  2.89056e+20
-40.4115  2.93035e+20
-40.2942  2.94182e+20
-40.1769  2.92124e+20
-40.0596  2.86953e+20
-39.9423  2.79021e+20
-39.825  2.6902e+20
-39.7076  2.57879e+20
-39.5903  2.46535e+20
-39.473  2.36088e+20
-39.3557  2.27678e+20
-39.2384  2.22089e+20
-39.1211  2.20121e+20
-39.0038  2.2244e+20
-38.8865  2.29427e+20
-38.7692  2.41279e+20
-38.6519  2.58012e+20
-38.5346  2.7938e+20
-38.4173  3.04824e+20
-38.3  3.33255e+20
-38.1827  3.63452e+20
-38.0654  3.93713e+20
-37.9481  4.22138e+20
-37.8308  4.46913e+20
-37.7135  4.6635e+20
-37.5962  4.7931e+20
-37.4789  4.85182e+20
-37.3615  4.84071e+20
-37.2442  4.76959e+20
-37.1269  4.64982e+20
-37.0096  4.50291e+20
-36.8923  4.34575e+20
-36.775  4.19827e+20
-36.6577  4.07648e+20
-36.5404  3.9919e+20
-36.4231  3.95229e+20
-36.3058  3.95927e+20
-36.1885  4.01114e+20
-36.0712  4.10365e+20
-35.9539  4.22923e+20
-35.8366  4.38008e+20
-35.7193  4.54495e+20
-35.602  4.71337e+20
-35.4847  4.87581e+20
-35.3674  5.02317e+20
-35.2501  5.14766e+20
-35.1328  5.24289e+20
-35.0154  5.30653e+20
-34.8981  5.33677e+20
-34.7808  5.33813e+20
-34.6635  5.31518e+20
-34.5462  5.27521e+20
-34.4289  5.2267e+20
-34.3116  5.17683e+20
-34.1943  5.13377e+20
-34.077  5.10182e+20
-33.9597  5.08395e+20
-33.8424  5.0823e+20
-33.7251  5.09707e+20
-33.6078  5.12714e+20
-33.4905  5.17142e+20
-33.3732  5.22787e+20
-33.2559  5.29506e+20
-33.1386  5.37092e+20
-33.0213  5.45449e+20
-32.904  5.54538e+20
-32.7867  5.64232e+20
-32.6693  5.74262e+20
-32.552  5.84551e+20
-32.4347  5.94832e+20
-32.3174  6.04938e+20
-32.2001  6.14347e+20
-32.0828  6.22737e+20
-31.9655  6.29508e+20
-31.8482  6.34194e+20
-31.7309  6.36277e+20
-31.6136  6.35344e+20
-31.4963  6.31088e+20
-31.379  6.23334e+20
-31.2617  6.12321e+20
-31.1444  5.98288e+20
-31.0271  5.81833e+20
-30.9098  5.63599e+20
-30.7925  5.44516e+20
-30.6752  5.25465e+20
-30.5579  5.07474e+20
-30.4406  4.91295e+20
-30.3232  4.77594e+20
-30.2059  4.67218e+20
-30.0886  4.60406e+20
-29.9713  4.57351e+20
-29.854  4.57985e+20
-29.7367  4.62096e+20
-29.6194  4.6897e+20
-29.5021  4.77936e+20
-29.3848  4.88097e+20
-29.2675  4.98494e+20
-29.1502  5.08044e+20
-29.0329  5.15814e+20
-28.9156  5.21006e+20
-28.7983  5.23012e+20
-28.681  5.21285e+20
-28.5637  5.15816e+20
-28.4464  5.06509e+20
-28.3291  4.93785e+20
-28.2118  4.78198e+20
-28.0944  4.60452e+20
-27.9771  4.41516e+20
-27.8598  4.22285e+20
-27.7425  4.03958e+20
-27.6252  3.87372e+20
-27.5079  3.73396e+20
-27.3906  3.62674e+20
-27.2733  3.55555e+20
-27.156  3.52286e+20
-27.0387  3.52678e+20
-26.9214  3.56534e+20
-26.8041  3.63346e+20
-26.6868  3.72512e+20
-26.5695  3.83322e+20
-26.4522  3.9503e+20
-26.3349  4.06961e+20
-26.2176  4.18262e+20
-26.1003  4.28345e+20
-25.983  4.36551e+20
-25.8657  4.42437e+20
-25.7483  4.45808e+20
-25.631  4.46519e+20
-25.5137  4.45056e+20
-25.3964  4.41616e+20
-25.2791  4.36878e+20
-25.1618  4.31589e+20
-25.0445  4.26527e+20
-24.9272  4.22381e+20
-24.8099  4.19803e+20
-24.6926  4.19235e+20
-24.5753  4.21032e+20
-24.458  4.25223e+20
-24.3407  4.31757e+20
-24.2234  4.40303e+20
-24.1061  4.50545e+20
-23.9888  4.61821e+20
-23.8715  4.73559e+20
-23.7542  4.8505e+20
-23.6369  4.95751e+20
-23.5196  5.05117e+20
-23.4023  5.12795e+20
-23.2849  5.18733e+20
-23.1676  5.22999e+20
-23.0503  5.2607e+20
-22.933  5.28439e+20
-22.8157  5.30797e+20
-22.6984  5.33981e+20
-22.5811  5.38817e+20
-22.4638  5.4606e+20
-22.3465  5.56389e+20
-22.2292  5.70424e+20
-22.1119  5.88477e+20
-21.9946  6.10685e+20
-21.8773  6.36866e+20
-21.76  6.66455e+20
-21.6427  6.98712e+20
-21.5254  7.32385e+20
-21.4081  7.66156e+20
-21.2908  7.98456e+20
-21.1735  8.27814e+20
-21.0561  8.53006e+20
-20.9388  8.73005e+20
-20.8215  8.87736e+20
-20.7042  8.9708e+20
-20.5869  9.01944e+20
-20.4696  9.03511e+20
-20.3523  9.03461e+20
-20.235  9.03528e+20
-20.1177  9.05665e+20
-20.0004  9.11486e+20
-19.8831  9.22599e+20
-19.7658  9.39879e+20
-19.6485  9.64026e+20
-19.5312  9.94972e+20
-19.4139  1.03241e+21
-19.2966  1.07515e+21
-19.1793  1.12188e+21
-19.062  1.1707e+21
-18.9447  1.21973e+21
-18.8274  1.26692e+21
-18.71  1.31051e+21
-18.5927  1.34904e+21
-18.4754  1.38165e+21
-18.3581  1.40817e+21
-18.2408  1.42887e+21
-18.1235  1.4448e+21
-18.0062  1.45733e+21
-17.8889  1.46844e+21
-17.7716  1.48011e+21
-17.6543  1.4942e+21
-17.537  1.51268e+21
-17.4197  1.53693e+21
-17.3024  1.56802e+21
-17.1851  1.60644e+21
-17.0678  1.65217e+21
-16.9505  1.70477e+21
-16.8332  1.76312e+21
-16.7159  1.82593e+21
-16.5986  1.89135e+21
-16.4813  1.95756e+21
-16.364  2.02268e+21
-16.2466  2.08504e+21
-16.1293  2.14372e+21
-16.012  2.19732e+21
-15.8947  2.24604e+21
-15.7774  2.28994e+21
-15.6601  2.32985e+21
-15.5428  2.36693e+21
-15.4255  2.40247e+21
-15.3082  2.43799e+21
-15.1909  2.4752e+21
-15.0736  2.51482e+21
-14.9563  2.55824e+21
-14.839  2.60571e+21
-14.7217  2.6577e+21
-14.6044  2.71393e+21
-14.4871  2.77387e+21
-14.3698  2.83684e+21
-14.2525  2.90188e+21
-14.1352  2.96785e+21
-14.0178  3.03403e+21
-13.9005  3.09946e+21
-13.7832  3.16349e+21
-13.6659  3.22624e+21
-13.5486  3.2876e+21
-13.4313  3.34816e+21
-13.314  3.40867e+21
-13.1967  3.47043e+21
-13.0794  3.53483e+21
-12.9621  3.60275e+21
-12.8448  3.67573e+21
-12.7275  3.75438e+21
-12.6102  3.83922e+21
-12.4929  3.93013e+21
-12.3756  4.02638e+21
-12.2583  4.1271e+21
-12.141  4.23065e+21
-12.0237  4.33532e+21
-11.9064  4.43885e+21
-11.7891  4.53913e+21
-11.6718  4.63413e+21
-11.5544  4.72243e+21
-11.4371  4.80291e+21
-11.3198  4.87452e+21
-11.2025  4.9376e+21
-11.0852  4.99266e+21
-10.9679  5.04082e+21
-10.8506  5.08381e+21
-10.7333  5.12333e+21
-10.616  5.16142e+21
-10.4987  5.20053e+21
-10.3814  5.24193e+21
-10.2641  5.28756e+21
-10.1468  5.33849e+21
-10.0295  5.3955e+21
-9.91217  5.45892e+21
-9.79487  5.5286e+21
-9.67756  5.6043e+21
-9.56026  5.68509e+21
-9.44295  5.76991e+21
-9.32565  5.85828e+21
-9.20834  5.9489e+21
-9.09104  6.04091e+21
-8.97373  6.13382e+21
-8.85643  6.22687e+21
-8.73913  6.31988e+21
-8.62182  6.4126e+21
-8.50452  6.50493e+21
-8.38721  6.59711e+21
-8.26991  6.68853e+21
-8.1526  6.77919e+21
-8.03529  6.86837e+21
-7.91799  6.95543e+21
-7.80069  7.03944e+21
-7.68338  7.11895e+21
-7.56608  7.19294e+21
-7.44877  7.26049e+21
-7.33146  7.3204e+21
-7.21416  7.372e+21
-7.09685  7.41508e+21
-6.97955  7.44957e+21
-6.86224  7.47635e+21
-6.74494  7.49656e+21
-6.62763  7.51158e+21
-6.51033  7.5234e+21
-6.39302  7.53457e+21
-6.27572  7.54719e+21
-6.15842  7.56391e+21
-6.04111  7.58678e+21
-5.92381  7.61796e+21
-5.8065  7.65923e+21
-5.68919  7.71142e+21
-5.57189  7.77495e+21
-5.45458  7.84999e+21
-5.33728  7.93541e+21
-5.21997  8.02992e+21
-5.10267  8.1317e+21
-4.98536  8.23862e+21
-4.86806  8.34787e+21
-4.75075  8.45679e+21
-4.63345  8.56307e+21
-4.51614  8.66389e+21
-4.39884  8.75701e+21
-4.28154  8.84066e+21
-4.16423  8.91329e+21
-4.04692  8.97394e+21
-3.92962  9.02249e+21
-3.81231  9.05894e+21
-3.69501  9.08408e+21
-3.5777  9.09885e+21
-3.4604  9.10477e+21
-3.34309  9.10321e+21
-3.22579  9.09605e+21
-3.10849  9.08498e+21
-2.99118  9.07159e+21
-2.87387  9.05752e+21
-2.75657  9.04458e+21
-2.63926  9.03348e+21
-2.52196  9.02561e+21
-2.40465  9.02189e+21
-2.28735  9.02299e+21
-2.17005  9.02962e+21
-2.05274  9.04187e+21
-1.93544  9.06031e+21
-1.81813  9.08496e+21
-1.70083  9.11587e+21
-1.58352  9.15268e+21
-1.46622  9.19515e+21
-1.34891  9.24254e+21
-1.2316  9.29416e+21
-1.1143  9.34875e+21
-0.996995  9.40507e+21
-0.87969  9.46119e+21
-0.762385  9.51584e+21
-0.64508  9.56665e+21
-0.527775  9.6122e+21
-0.41047  9.65079e+21
-0.293165  9.68106e+21
-0.17586  9.70179e+21
-0.058555  9.71221e+21
0.05875  9.71207e+21
0.176055  9.70131e+21
0.29336  9.68055e+21
0.410665  9.65008e+21
0.52797  9.6114e+21
0.645275  9.56594e+21
0.76258  9.51524e+21
0.879885  9.46101e+21
0.99719  9.40527e+21
1.1145  9.34958e+21
1.2318  9.29565e+21
1.3491  9.24471e+21
1.46641  9.19795e+21
1.58371  9.15623e+21
1.70102  9.12028e+21
1.81832  9.09022e+21
1.93563  9.06636e+21
2.05294  9.04856e+21
2.17024  9.03677e+21
2.28754  9.03078e+21
2.40485  9.03022e+21
2.52216  9.03461e+21
2.63946  9.04273e+21
2.75677  9.0543e+21
2.87407  9.06796e+21
2.99137  9.08236e+21
3.10868  9.09616e+21
3.22599  9.10767e+21
3.34329  9.11527e+21
3.4606  9.11735e+21
3.5779  9.1117e+21
3.69521  9.09731e+21
3.81251  9.07248e+21
3.92982  9.03635e+21
4.04712  8.98794e+21
4.16443  8.9274e+21
4.28173  8.85485e+21
4.39903  8.77133e+21
4.51634  8.67825e+21
4.63364  8.57759e+21
4.75095  8.47133e+21
4.86825  8.36238e+21
4.98556  8.25332e+21
5.10286  8.14657e+21
5.22017  8.04498e+21
5.33748  7.95079e+21
5.45478  7.86592e+21
5.57209  7.79159e+21
5.68939  7.72851e+21
5.8067  7.67717e+21
5.924  7.63665e+21
6.0413  7.60619e+21
6.15861  7.58392e+21
6.27591  7.56802e+21
6.39322  7.55625e+21
6.51052  7.54583e+21
6.62783  7.53436e+21
6.74514  7.5197e+21
6.86244  7.49979e+21
6.97975  7.47312e+21
7.09705  7.43867e+21
7.21436  7.39569e+21
7.33166  7.3438e+21
7.44897  7.28382e+21
7.56627  7.21616e+21
7.68358  7.14179e+21
7.80088  7.06203e+21
7.91819  6.97796e+21
8.03549  6.89085e+21
8.1528  6.80177e+21
8.2701  6.711e+21
8.38741  6.61975e+21
8.50471  6.52793e+21
8.62202  6.43571e+21
8.73932  6.34321e+21
8.85662  6.25066e+21
8.97393  6.15781e+21
9.09123  6.06525e+21
9.20854  5.97335e+21
9.32584  5.88311e+21
9.44315  5.79487e+21
9.56045  5.70999e+21
9.67776  5.62928e+21
9.79506  5.55358e+21
9.91237  5.48383e+21
10.0297  5.42025e+21
10.147  5.36317e+21
10.2643  5.31222e+21
10.3816  5.26629e+21
10.4989  5.22482e+21
10.6162  5.18566e+21
10.7335  5.14736e+21
10.8508  5.10761e+21
10.9681  5.06446e+21
11.0854  5.01629e+21
11.2027  4.96117e+21
11.32  4.89785e+21
11.4373  4.82584e+21
11.5546  4.74535e+21
11.6719  4.65687e+21
11.7893  4.5616e+21
11.9066  4.46099e+21
12.0239  4.35724e+21
12.1412  4.25243e+21
12.2585  4.14859e+21
12.3758  4.04758e+21
12.4931  3.951e+21
12.6104  3.85982e+21
12.7277  3.77495e+21
12.845  3.69623e+21
12.9623  3.62313e+21
13.0796  3.55501e+21
13.1969  3.4907e+21
13.3142  3.42874e+21
13.4315  3.36814e+21
13.5488  3.30756e+21
13.6661  3.24622e+21
13.7834  3.18334e+21
13.9007  3.11904e+21
14.018  3.05359e+21
14.1354  2.98724e+21
14.2527  2.92095e+21
14.37  2.85574e+21
14.4873  2.79256e+21
14.6046  2.73238e+21
14.7219  2.67588e+21
14.8392  2.62366e+21
14.9565  2.57592e+21
15.0738  2.53232e+21
15.1911  2.49237e+21
15.3084  2.45511e+21
15.4257  2.41933e+21
15.543  2.38352e+21
15.6603  2.34621e+21
15.7776  2.30611e+21
15.8949  2.262e+21
16.0122  2.21299e+21
16.1295  2.15895e+21
16.2468  2.10021e+21
16.3641  2.0375e+21
16.4815  1.97213e+21
16.5988  1.90559e+21
16.7161  1.84004e+21
16.8334  1.77707e+21
16.9507  1.71854e+21
17.068  1.6658e+21
17.1853  1.61997e+21
17.3026  1.58144e+21
17.4199  1.55036e+21
17.5372  1.52608e+21
17.6545  1.50761e+21
17.7718  1.49335e+21
17.8891  1.48162e+21
18.0064  1.47026e+21
18.1237  1.45746e+21
18.241  1.44126e+21
18.3583  1.42022e+21
18.4756  1.39327e+21
18.5929  1.36019e+21
18.7102  1.32121e+21
18.8275  1.27718e+21
18.9449  1.22958e+21
19.0622  1.18018e+21
19.1795  1.13103e+21
19.2968  1.08408e+21
19.4141  1.04116e+21
19.5314  1.00366e+21
19.6487  9.72647e+20
19.766  9.48537e+20
19.8833  9.31242e+20
20.0006  9.2024e+20
20.1179  9.14439e+20
20.2352  9.12335e+20
20.3525  9.12184e+20
20.4698  9.12116e+20
20.5871  9.10335e+20
20.7044  9.05131e+20
20.8217  8.95453e+20
20.939  8.8043e+20
21.0563  8.59856e+20
21.1736  8.34228e+20
21.291  8.04332e+20
21.4083  7.71626e+20
21.5256  7.37424e+20
21.6429  7.03358e+20
21.7602  6.70767e+20
21.8775  6.40893e+20
21.9948  6.14507e+20
22.1121  5.9215e+20
22.2294  5.73994e+20
22.3467  5.5991e+20
22.464  5.49469e+20
22.5813  5.42168e+20
22.6986  5.37278e+20
22.8159  5.34025e+20
22.9332  5.31567e+20
23.0505  5.29107e+20
23.1678  5.25925e+20
23.2851  5.21492e+20
23.4024  5.15388e+20
23.5198  5.07511e+20
23.6371  4.97962e+20
23.7544  4.87063e+20
23.8717  4.75399e+20
23.989  4.63486e+20
24.1063  4.52083e+20
24.2236  4.41758e+20
24.3409  4.33091e+20
24.4582  4.26511e+20
24.5755  4.22241e+20
24.6928  4.20424e+20
24.8101  4.20971e+20
24.9274  4.2352e+20
25.0447  4.27598e+20
25.162  4.32548e+20
25.2793  4.37716e+20
25.3966  4.42226e+20
25.5139  4.45486e+20
25.6312  4.46812e+20
25.7485  4.45761e+20
25.8658  4.42181e+20
25.9832  4.35998e+20
26.1005  4.27619e+20
26.2178  4.17392e+20
26.3351  4.05936e+20
26.4524  3.9396e+20
26.5697  3.82201e+20
26.687  3.71407e+20
26.8043  3.62321e+20
26.9216  3.55645e+20
27.0389  3.51958e+20
27.1562  3.51682e+20
27.2735  3.55141e+20
27.3908  3.62374e+20
27.5081  3.73243e+20
27.6254  3.87339e+20
27.7427  4.0397e+20
27.86  4.22349e+20
27.9773  4.41511e+20
28.0946  4.6038e+20
28.212  4.77952e+20
28.3293  4.93364e+20
28.4466  5.05838e+20
28.5639  5.14919e+20
28.6812  5.20162e+20
28.7985  5.21658e+20
28.9158  5.19495e+20
29.0331  5.14201e+20
29.1504  5.0634e+20
29.2677  4.96747e+20
29.385  4.86429e+20
29.5023  4.76385e+20
29.6196  4.6756e+20
29.7369  4.60835e+20
29.8542  4.56901e+20
29.9715  4.56393e+20
30.0888  4.59633e+20
30.2061  4.66652e+20
30.3234  4.77205e+20
30.4407  4.90898e+20
30.558  5.07176e+20
30.6754  5.25252e+20
30.7927  5.44307e+20
30.91  5.63295e+20
31.0273  5.81473e+20
31.1446  5.97896e+20
31.2619  6.11822e+20
31.3792  6.22823e+20
31.4965  6.30504e+20
31.6138  6.34706e+20
31.7311  6.35692e+20
31.8484  6.33591e+20
31.9657  6.2901e+20
32.083  6.22285e+20
32.2003  6.14042e+20
32.3176  6.04769e+20
32.4349  5.94824e+20
32.5522  5.84703e+20
32.6695  5.74592e+20
32.7868  5.64669e+20
32.9042  5.55187e+20
33.0215  5.46196e+20
33.1388  5.37953e+20
33.2561  5.30458e+20
33.3734  5.2387e+20
33.4907  5.18342e+20
33.608  5.13979e+20
33.7253  5.11035e+20
33.8426  5.09634e+20
33.9599  5.09815e+20
34.0772  5.11608e+20
34.1945  5.14841e+20
34.3118  5.19215e+20
34.4291  5.24107e+20
34.5464  5.28947e+20
34.6637  5.3282e+20
34.781  5.35034e+20
34.8983  5.348e+20
35.0156  5.31671e+20
35.1329  5.25258e+20
35.2503  5.15606e+20
35.3676  5.03191e+20
35.4849  4.88406e+20
35.6022  4.72084e+20
35.7195  4.55256e+20
35.8368  4.38848e+20
35.9541  4.23891e+20
36.0714  4.11417e+20
36.1887  4.02299e+20
36.306  3.97206e+20
36.4233  3.96694e+20
36.5406  4.00807e+20
36.6579  4.09403e+20
36.7752  4.217e+20
36.8925  4.36518e+20
37.0098  4.52307e+20
37.1271  4.67053e+20
37.2444  4.78921e+20
37.3617  4.85969e+20
37.479  4.86865e+20
37.5964  4.80921e+20
37.7137  4.6778e+20
37.831  4.48198e+20
37.9483  4.23279e+20
38.0656  3.94776e+20
38.1829  3.64495e+20
38.3002  3.34268e+20
38.4175  3.05789e+20
38.5348  2.80444e+20
38.6521  2.59121e+20
38.7694  2.42487e+20
38.8867  2.30739e+20
39.004  2.23903e+20
39.1213  2.21756e+20
39.2386  2.23842e+20
39.3559  2.29571e+20
39.4732  2.38151e+20
39.5905  2.48655e+20
39.7078  2.60087e+20
39.8251  2.71381e+20
39.9425  2.81396e+20
40.0598  2.89322e+20
40.1771  2.94416e+20
40.2944  2.9642e+20
40.4117  2.95226e+20
40.529  2.91102e+20
40.6463  2.84547e+20
40.7636  2.7604e+20
40.8809  2.66271e+20
40.9982  2.55842e+20
41.1155  2.45154e+20
41.2328  2.34564e+20
41.3501  2.24245e+20
41.4674  2.1426e+20
41.5847  2.04505e+20
41.702  1.94816e+20
41.8193  1.85086e+20
41.9366  1.75073e+20
42.0539  1.64731e+20
42.1712  1.54055e+20
42.2885  1.43194e+20
42.4059  1.32433e+20
42.5232  1.2211e+20
42.6405  1.12745e+20
42.7578  1.04674e+20
42.8751  9.82847e+19
42.9924  9.37136e+19
43.1097  9.08659e+19
43.227  8.95334e+19
43.3443  8.93656e+19
43.4616  8.99643e+19
43.5789  9.10211e+19
43.6962  9.23145e+19
43.8135  9.3844e+19
43.9308  9.56844e+19
44.0481  9.80262e+19
44.1654  1.00987e+20
44.2827  1.04521e+20
44.4  1.08443e+20
44.5173  1.12395e+20
44.6347  1.15878e+20
44.752  1.18351e+20
44.8693  1.19498e+20
44.9866  1.19117e+20
45.1039  1.17262e+20
45.2212  1.14256e+20
45.3385  1.10548e+20
45.4558  1.06612e+20
45.5731  1.02864e+20
45.6904  9.9555e+19
45.8077  9.66944e+19
45.925  9.41455e+19
46.0423  9.15882e+19
46.1596  8.87517e+19
46.2769  8.53839e+19
46.3942  8.13941e+19
46.5115  7.68969e+19
46.6288  7.20609e+19
46.7461  6.7242e+19
46.8634  6.27562e+19
46.9808  5.88669e+19
47.0981  5.58759e+19
47.2154  5.38739e+19
47.3327  5.29817e+19
47.45  5.31666e+19
47.5673  5.44498e+19
47.6846  5.68027e+19
47.8019  6.01168e+19
47.9192  6.42928e+19
48.0365  6.9132e+19
48.1538  7.43651e+19
48.2711  7.96582e+19
48.3884  8.46097e+19
48.5057  8.88116e+19
48.623  9.19047e+19
48.7403  9.36018e+19
48.8576  9.37515e+19
48.9749  9.22589e+19
49.0922  8.9224e+19
49.2095  8.48673e+19
49.3269  7.95622e+19
49.4442  7.37295e+19
49.5615  6.79537e+19
49.6788  6.26859e+19
49.7961  5.84574e+19
49.9134  5.56388e+19
50.0307  5.45134e+19
50.148  5.52013e+19
50.2653  5.75612e+19
50.3826  6.13419e+19
50.4999  6.61405e+19
50.6172  7.14572e+19
50.7345  7.67407e+19
50.8518  8.15066e+19
