#S 1 spectral density
#N 2
#UFWHM 16.54
#L  abscissas [um]  spectral density
-58.5938  2.6909e+19
-58.4764  2.76941e+19
-58.3591  2.8395e+19
-58.2418  2.87497e+19
-58.1245  2.85043e+19
-58.0072  2.73728e+19
-57.8899  2.51565e+19
-57.7726  2.18447e+19
-57.6553  1.76502e+19
-57.538  1.30378e+19
-57.4207  8.65147e+18
-57.3034  5.2191e+18
-57.1861  3.40701e+18
-57.0688  3.70043e+18
-56.9515  6.30214e+18
-56.8342  1.11275e+19
-56.7169  1.7761e+19
-56.5996  2.56377e+19
-56.4823  3.40309e+19
-56.365  4.2229e+19
-56.2477  4.96582e+19
-56.1303  5.58367e+19
-56.013  6.04151e+19
-55.8957  6.32312e+19
-55.7784  6.42298e+19
-55.6611  6.34342e+19
-55.5438  6.09425e+19
-55.4265  5.68901e+19
-55.3092  5.15531e+19
-55.1919  4.52445e+19
-55.0746  3.83306e+19
-54.9573  3.12889e+19
-54.84  2.44875e+19
-54.7227  1.83456e+19
-54.6054  1.30991e+19
-54.4881  8.91933e+18
-54.3708  5.81993e+18
-54.2535  3.74074e+18
-54.1362  2.52925e+18
-54.0189  2.00888e+18
-53.9016  2.00306e+18
-53.7842  2.37487e+18
-53.6669  2.99774e+18
-53.5496  3.77992e+18
-53.4323  4.65399e+18
-53.315  5.53705e+18
-53.1977  6.35856e+18
-53.0804  7.06602e+18
-52.9631  7.60215e+18
-52.8458  7.95983e+18
-52.7285  8.18413e+18
-52.6112  8.33676e+18
-52.4939  8.52073e+18
-52.3766  8.84966e+18
-52.2593  9.43506e+18
-52.142  1.03549e+19
-52.0247  1.164e+19
-51.9074  1.32684e+19
-51.7901  1.51676e+19
-51.6728  1.72264e+19
-51.5555  1.92688e+19
-51.4381  2.11072e+19
-51.3208  2.25615e+19
-51.2035  2.34291e+19
-51.0862  2.36028e+19
-50.9689  2.29892e+19
-50.8516  2.16002e+19
-50.7343  1.96082e+19
-50.617  1.72056e+19
-50.4997  1.46881e+19
-50.3824  1.23979e+19
-50.2651  1.06213e+19
-50.1478  9.62842e+18
-50.0305  9.52723e+18
-49.9132  1.03256e+19
-49.7959  1.18761e+19
-49.6786  1.39072e+19
-49.5613  1.61067e+19
-49.444  1.81179e+19
-49.3267  1.96278e+19
-49.2094  2.03625e+19
-49.092  2.0189e+19
-48.9747  1.90534e+19
-48.8574  1.70541e+19
-48.7401  1.43698e+19
-48.6228  1.12847e+19
-48.5055  8.11193e+18
-48.3882  5.17043e+18
-48.2709  2.78007e+18
-48.1536  1.18284e+18
-48.0363  5.37909e+17
-47.919  9.07278e+17
-47.8017  2.25432e+18
-47.6844  4.46741e+18
-47.5671  7.37276e+18
-47.4498  1.07917e+19
-47.3325  1.45349e+19
-47.2152  1.8446e+19
-47.0979  2.2366e+19
-46.9806  2.61457e+19
-46.8633  2.96079e+19
-46.7459  3.26137e+19
-46.6286  3.495e+19
-46.5113  3.64758e+19
-46.394  3.70994e+19
-46.2767  3.68494e+19
-46.1594  3.59081e+19
-46.0421  3.45837e+19
-45.9248  3.33009e+19
-45.8075  3.2482e+19
-45.6902  3.24508e+19
-45.5729  3.34081e+19
-45.4556  3.52519e+19
-45.3383  3.76775e+19
-45.221  4.01391e+19
-45.1037  4.20284e+19
-44.9864  4.27752e+19
-44.8691  4.19677e+19
-44.7518  3.9423e+19
-44.6345  3.53237e+19
-44.5172  3.01233e+19
-44.3998  2.44155e+19
-44.2825  1.89152e+19
-44.1652  1.42135e+19
-44.0479  1.07913e+19
-43.9306  8.88708e+18
-43.8133  8.54899e+18
-43.696  9.62035e+18
-43.5787  1.188e+19
-43.4614  1.50675e+19
-43.3441  1.89299e+19
-43.2268  2.32631e+19
-43.1095  2.78983e+19
-42.9922  3.2697e+19
-42.8749  3.74648e+19
-42.7576  4.20056e+19
-42.6403  4.61366e+19
-42.523  4.95881e+19
-42.4057  5.22362e+19
-42.2884  5.39343e+19
-42.171  5.46748e+19
-42.0537  5.45051e+19
-41.9364  5.3521e+19
-41.8191  5.19009e+19
-41.7018  4.97234e+19
-41.5845  4.71239e+19
-41.4672  4.4135e+19
-41.3499  4.08075e+19
-41.2326  3.71661e+19
-41.1153  3.32775e+19
-40.998  2.92937e+19
-40.8807  2.53961e+19
-40.7634  2.18787e+19
-40.6461  1.90749e+19
-40.5288  1.73864e+19
-40.4115  1.71731e+19
-40.2942  1.8752e+19
-40.1769  2.23788e+19
-40.0596  2.81844e+19
-39.9423  3.6081e+19
-39.825  4.58063e+19
-39.7076  5.68916e+19
-39.5903  6.85779e+19
-39.473  8.00044e+19
-39.3557  9.01678e+19
-39.2384  9.80517e+19
-39.1211  1.02839e+20
-39.0038  1.03933e+20
-38.8865  1.01136e+20
-38.7692  9.46418e+19
-38.6519  8.50533e+19
-38.5346  7.33061e+19
-38.4173  6.05162e+19
-38.3  4.77931e+19
-38.1827  3.61078e+19
-38.0654  2.61823e+19
-37.9481  1.83542e+19
-37.8308  1.26738e+19
-37.7135  8.90183e+18
-37.5962  6.64562e+18
-37.4789  5.45681e+18
-37.3615  4.91956e+18
-37.2442  4.73004e+18
-37.1269  4.68432e+18
-37.0096  4.69976e+18
-36.8923  4.73192e+18
-36.775  4.76402e+18
-36.6577  4.76898e+18
-36.5404  4.72049e+18
-36.4231  4.59601e+18
-36.3058  4.42527e+18
-36.1885  4.31461e+18
-36.0712  4.45589e+18
-35.9539  5.11196e+18
-35.8366  6.56078e+18
-35.7193  9.04243e+18
-35.602  1.27217e+19
-35.4847  1.7573e+19
-35.3674  2.34358e+19
-35.2501  3.00047e+19
-35.1328  3.68855e+19
-35.0154  4.36588e+19
-34.8981  4.9951e+19
-34.7808  5.54915e+19
-34.6635  6.02412e+19
-34.5462  6.42023e+19
-34.4289  6.75193e+19
-34.3116  7.04607e+19
-34.1943  7.33073e+19
-34.077  7.62279e+19
-33.9597  7.9413e+19
-33.8424  8.28778e+19
-33.7251  8.66184e+19
-33.6078  9.04296e+19
-33.4905  9.40855e+19
-33.3732  9.72624e+19
-33.2559  9.9628e+19
-33.1386  1.00845e+20
-33.0213  1.006e+20
-32.904  9.86352e+19
-32.7867  9.48635e+19
-32.6693  8.93248e+19
-32.552  8.22496e+19
-32.4347  7.39437e+19
-32.3174  6.49047e+19
-32.2001  5.57445e+19
-32.0828  4.70576e+19
-31.9655  3.95064e+19
-31.8482  3.35853e+19
-31.7309  2.97704e+19
-31.6136  2.84012e+19
-31.4963  2.96849e+19
-31.379  3.37339e+19
-31.2617  4.0511e+19
-31.1444  4.99376e+19
-31.0271  6.18807e+19
-30.9098  7.60323e+19
-30.7925  9.21486e+19
-30.6752  1.09831e+20
-30.5579  1.28622e+20
-30.4406  1.48087e+20
-30.3232  1.67626e+20
-30.2059  1.86789e+20
-30.0886  2.04959e+20
-29.9713  2.21516e+20
-29.854  2.36005e+20
-29.7367  2.47911e+20
-29.6194  2.5678e+20
-29.5021  2.62304e+20
-29.3848  2.64363e+20
-29.2675  2.62903e+20
-29.1502  2.58113e+20
-29.0329  2.50233e+20
-28.9156  2.398e+20
-28.7983  2.27364e+20
-28.681  2.13561e+20
-28.5637  1.99064e+20
-28.4464  1.84416e+20
-28.3291  1.70203e+20
-28.2118  1.56874e+20
-28.0944  1.44697e+20
-27.9771  1.33927e+20
-27.8598  1.24679e+20
-27.7425  1.16988e+20
-27.6252  1.10935e+20
-27.5079  1.06372e+20
-27.3906  1.03265e+20
-27.2733  1.01456e+20
-27.156  1.00917e+20
-27.0387  1.0155e+20
-26.9214  1.03281e+20
-26.8041  1.06112e+20
-26.6868  1.10011e+20
-26.5695  1.15041e+20
-26.4522  1.21156e+20
-26.3349  1.28226e+20
-26.2176  1.36086e+20
-26.1003  1.4447e+20
-25.983  1.53049e+20
-25.8657  1.61472e+20
-25.7483  1.69323e+20
-25.631  1.7621e+20
-25.5137  1.81786e+20
-25.3964  1.85883e+20
-25.2791  1.88327e+20
-25.1618  1.89058e+20
-25.0445  1.88133e+20
-24.9272  1.85614e+20
-24.8099  1.81705e+20
-24.6926  1.76572e+20
-24.5753  1.70372e+20
-24.458  1.63456e+20
-24.3407  1.56046e+20
-24.2234  1.48414e+20
-24.1061  1.40816e+20
-23.9888  1.33476e+20
-23.8715  1.26595e+20
-23.7542  1.20264e+20
-23.6369  1.14594e+20
-23.5196  1.09665e+20
-23.4023  1.05454e+20
-23.2849  1.02043e+20
-23.1676  9.94489e+19
-23.0503  9.76586e+19
-22.933  9.67449e+19
-22.8157  9.66829e+19
-22.6984  9.75188e+19
-22.5811  9.92999e+19
-22.4638  1.02011e+20
-22.3465  1.0582e+20
-22.2292  1.10805e+20
-22.1119  1.17159e+20
-21.9946  1.2507e+20
-21.8773  1.34693e+20
-21.76  1.46077e+20
-21.6427  1.59132e+20
-21.5254  1.73631e+20
-21.4081  1.89041e+20
-21.2908  2.04785e+20
-21.1735  2.20179e+20
-21.0561  2.34471e+20
-20.9388  2.47093e+20
-20.8215  2.57437e+20
-20.7042  2.65372e+20
-20.5869  2.70785e+20
-20.4696  2.73877e+20
-20.3523  2.74882e+20
-20.235  2.74276e+20
-20.1177  2.72421e+20
-20.0004  2.69795e+20
-19.8831  2.66702e+20
-19.7658  2.63558e+20
-19.6485  2.6047e+20
-19.5312  2.57714e+20
-19.4139  2.55263e+20
-19.2966  2.53163e+20
-19.1793  2.51326e+20
-19.062  2.49629e+20
-18.9447  2.47839e+20
-18.8274  2.45779e+20
-18.71  2.43281e+20
-18.5927  2.40257e+20
-18.4754  2.36747e+20
-18.3581  2.32877e+20
-18.2408  2.28961e+20
-18.1235  2.25398e+20
-18.0062  2.22616e+20
-17.8889  2.21051e+20
-17.7716  2.21115e+20
-17.6543  2.23114e+20
-17.537  2.27234e+20
-17.4197  2.33571e+20
-17.3024  2.42085e+20
-17.1851  2.52646e+20
-17.0678  2.65055e+20
-16.9505  2.79012e+20
-16.8332  2.94226e+20
-16.7159  3.10371e+20
-16.5986  3.27154e+20
-16.4813  3.44339e+20
-16.364  3.61803e+20
-16.2466  3.79553e+20
-16.1293  3.97662e+20
-16.012  4.16655e+20
-15.8947  4.36976e+20
-15.7774  4.59369e+20
-15.6601  4.84654e+20
-15.5428  5.13707e+20
-15.4255  5.47369e+20
-15.3082  5.86499e+20
-15.1909  6.3164e+20
-15.0736  6.83378e+20
-14.9563  7.41916e+20
-14.839  8.0748e+20
-14.7217  8.79839e+20
-14.6044  9.5882e+20
-14.4871  1.04399e+21
-14.3698  1.13479e+21
-14.2525  1.23048e+21
-14.1352  1.33013e+21
-14.0178  1.43279e+21
-13.9005  1.53738e+21
-13.7832  1.64264e+21
-13.6659  1.74716e+21
-13.5486  1.84976e+21
-13.4313  1.94912e+21
-13.314  2.04396e+21
-13.1967  2.13307e+21
-13.0794  2.21567e+21
-12.9621  2.29087e+21
-12.8448  2.35839e+21
-12.7275  2.41815e+21
-12.6102  2.4705e+21
-12.4929  2.51625e+21
-12.3756  2.55646e+21
-12.2583  2.59275e+21
-12.141  2.627e+21
-12.0237  2.6613e+21
-11.9064  2.69773e+21
-11.7891  2.73856e+21
-11.6718  2.78593e+21
-11.5544  2.84147e+21
-11.4371  2.90665e+21
-11.3198  2.98232e+21
-11.2025  3.0686e+21
-11.0852  3.16554e+21
-10.9679  3.27232e+21
-10.8506  3.38766e+21
-10.7333  3.50977e+21
-10.616  3.63695e+21
-10.4987  3.76755e+21
-10.3814  3.8994e+21
-10.2641  4.031e+21
-10.1468  4.16153e+21
-10.0295  4.28994e+21
-9.91217  4.41623e+21
-9.79487  4.54111e+21
-9.67756  4.66545e+21
-9.56026  4.79051e+21
-9.44295  4.91791e+21
-9.32565  5.04976e+21
-9.20834  5.18739e+21
-9.09104  5.33246e+21
-8.97373  5.48619e+21
-8.85643  5.64936e+21
-8.73913  5.82209e+21
-8.62182  6.00409e+21
-8.50452  6.19443e+21
-8.38721  6.3923e+21
-8.26991  6.59541e+21
-8.1526  6.80226e+21
-8.03529  7.01026e+21
-7.91799  7.21745e+21
-7.80069  7.42152e+21
-7.68338  7.62021e+21
-7.56608  7.81207e+21
-7.44877  7.99586e+21
-7.33146  8.17019e+21
-7.21416  8.33476e+21
-7.09685  8.48949e+21
-6.97955  8.63449e+21
-6.86224  8.77053e+21
-6.74494  8.89881e+21
-6.62763  9.02004e+21
-6.51033  9.13602e+21
-6.39302  9.24845e+21
-6.27572  9.35918e+21
-6.15842  9.47044e+21
-6.04111  9.58411e+21
-5.92381  9.70237e+21
-5.8065  9.82767e+21
-5.68919  9.96142e+21
-5.57189  1.01056e+22
-5.45458  1.02612e+22
-5.33728  1.04296e+22
-5.21997  1.061e+22
-5.10267  1.08027e+22
-4.98536  1.10062e+22
-4.86806  1.12179e+22
-4.75075  1.14353e+22
-4.63345  1.1655e+22
-4.51614  1.18727e+22
-4.39884  1.20835e+22
-4.28154  1.22832e+22
-4.16423  1.24671e+22
-4.04692  1.26301e+22
-3.92962  1.27691e+22
-3.81231  1.28808e+22
-3.69501  1.29628e+22
-3.5777  1.30141e+22
-3.4604  1.30348e+22
-3.34309  1.30253e+22
-3.22579  1.2988e+22
-3.10849  1.29256e+22
-2.99118  1.28414e+22
-2.87387  1.274e+22
-2.75657  1.26256e+22
-2.63926  1.25029e+22
-2.52196  1.23763e+22
-2.40465  1.22503e+22
-2.28735  1.21281e+22
-2.17005  1.20133e+22
-2.05274  1.19088e+22
-1.93544  1.18157e+22
-1.81813  1.1736e+22
-1.70083  1.16698e+22
-1.58352  1.16173e+22
-1.46622  1.15778e+22
-1.34891  1.15505e+22
-1.2316  1.1534e+22
-1.1143  1.15267e+22
-0.996995  1.15268e+22
-0.87969  1.15327e+22
-0.762385  1.15419e+22
-0.64508  1.15534e+22
-0.527775  1.15654e+22
-0.41047  1.15765e+22
-0.293165  1.15856e+22
-0.17586  1.15922e+22
-0.058555  1.15956e+22
0.05875  1.15956e+22
0.176055  1.15924e+22
0.29336  1.1586e+22
0.410665  1.15772e+22
0.52797  1.15665e+22
0.645275  1.1555e+22
0.76258  1.15441e+22
0.879885  1.15355e+22
0.99719  1.15306e+22
1.1145  1.15315e+22
1.2318  1.15399e+22
1.3491  1.15576e+22
1.46641  1.15859e+22
1.58371  1.16265e+22
1.70102  1.16803e+22
1.81832  1.17475e+22
1.93563  1.18284e+22
2.05294  1.19223e+22
2.17024  1.20282e+22
2.28754  1.21439e+22
2.40485  1.22668e+22
2.52216  1.23936e+22
2.63946  1.25209e+22
2.75677  1.26441e+22
2.87407  1.27592e+22
2.99137  1.28611e+22
3.10868  1.29455e+22
3.22599  1.30082e+22
3.34329  1.30459e+22
3.4606  1.30555e+22
3.5779  1.30351e+22
3.69521  1.29837e+22
3.81251  1.29017e+22
3.92982  1.27899e+22
4.04712  1.26508e+22
4.16443  1.24878e+22
4.28173  1.2304e+22
4.39903  1.21043e+22
4.51634  1.18936e+22
4.63364  1.16764e+22
4.75095  1.14572e+22
4.86825  1.12402e+22
4.98556  1.10293e+22
5.10286  1.0827e+22
5.22017  1.06352e+22
5.33748  1.0456e+22
5.45478  1.02891e+22
5.57209  1.01347e+22
5.68939  9.99177e+21
5.8067  9.85917e+21
5.924  9.73502e+21
6.0413  9.61779e+21
6.15861  9.50491e+21
6.27591  9.39427e+21
6.39322  9.28404e+21
6.51052  9.17194e+21
6.62783  9.05592e+21
6.74514  8.93453e+21
6.86244  8.80637e+21
6.97975  8.66991e+21
7.09705  8.5247e+21
7.21436  8.36982e+21
7.33166  8.2047e+21
7.44897  8.03015e+21
7.56627  7.84635e+21
7.68358  7.65423e+21
7.80088  7.4552e+21
7.91819  7.25102e+21
8.03549  7.04374e+21
8.1528  6.83575e+21
8.2701  6.62859e+21
8.38741  6.42519e+21
8.50471  6.22713e+21
8.62202  6.0364e+21
8.73932  5.85398e+21
8.85662  5.6809e+21
8.97393  5.51732e+21
9.09123  5.36312e+21
9.20854  5.21755e+21
9.32584  5.07957e+21
9.44315  4.94728e+21
9.56045  4.81929e+21
9.67776  4.69388e+21
9.79506  4.56909e+21
9.91237  4.44384e+21
10.0297  4.31706e+21
10.147  4.18835e+21
10.2643  4.05763e+21
10.3816  3.92561e+21
10.4989  3.79348e+21
10.6162  3.66267e+21
10.7335  3.53504e+21
10.8508  3.41257e+21
10.9681  3.29703e+21
11.0854  3.19016e+21
11.2027  3.09308e+21
11.32  3.00644e+21
11.4373  2.9307e+21
11.5546  2.86535e+21
11.6719  2.80957e+21
11.7893  2.76216e+21
11.9066  2.72119e+21
12.0239  2.68443e+21
12.1412  2.65013e+21
12.2585  2.6156e+21
12.3758  2.57908e+21
12.4931  2.53847e+21
12.6104  2.49234e+21
12.7277  2.43947e+21
12.845  2.37911e+21
12.9623  2.31084e+21
13.0796  2.23499e+21
13.1969  2.15154e+21
13.3142  2.0617e+21
13.4315  1.96597e+21
13.5488  1.86569e+21
13.6661  1.76222e+21
13.7834  1.65678e+21
13.9007  1.55071e+21
14.018  1.44531e+21
14.1354  1.34185e+21
14.2527  1.24149e+21
14.37  1.14516e+21
14.4873  1.05372e+21
14.6046  9.6796e+20
14.7219  8.8844e+20
14.8392  8.15585e+20
14.9565  7.49602e+20
15.0738  6.90684e+20
15.1911  6.38604e+20
15.3084  5.93098e+20
15.4257  5.53677e+20
15.543  5.19731e+20
15.6603  4.90402e+20
15.7776  4.64879e+20
15.8949  4.42224e+20
16.0122  4.21676e+20
16.1295  4.02444e+20
16.2468  3.84024e+20
16.3641  3.66046e+20
16.4815  3.48338e+20
16.5988  3.30896e+20
16.7161  3.13865e+20
16.8334  2.97505e+20
16.9507  2.82089e+20
17.068  2.67972e+20
17.1853  2.55435e+20
17.3026  2.4478e+20
17.4199  2.36184e+20
17.5372  2.29784e+20
17.6545  2.25643e+20
17.7718  2.23656e+20
17.8891  2.23579e+20
18.0064  2.25153e+20
18.1237  2.27929e+20
18.241  2.31455e+20
18.3583  2.35288e+20
18.4756  2.39059e+20
18.5929  2.42452e+20
18.7102  2.45317e+20
18.8275  2.47642e+20
18.9449  2.49525e+20
19.0622  2.51121e+20
19.1795  2.52649e+20
19.2968  2.54283e+20
19.4141  2.56198e+20
19.5314  2.58498e+20
19.6487  2.61132e+20
19.766  2.64064e+20
19.8833  2.67137e+20
20.0006  2.70084e+20
20.1179  2.72602e+20
20.2352  2.74346e+20
20.3525  2.74865e+20
20.4698  2.73742e+20
20.5871  2.70545e+20
20.7044  2.65038e+20
20.8217  2.56991e+20
20.939  2.46481e+20
21.0563  2.33802e+20
21.1736  2.1941e+20
21.291  2.03983e+20
21.4083  1.8818e+20
21.5256  1.72782e+20
21.6429  1.58343e+20
21.7602  1.45331e+20
21.8775  1.34027e+20
21.9948  1.24502e+20
22.1121  1.16666e+20
22.2294  1.10394e+20
22.3467  1.05475e+20
22.464  1.01747e+20
22.5813  9.90618e+19
22.6986  9.73587e+19
22.8159  9.65403e+19
22.9332  9.66206e+19
23.0505  9.75691e+19
23.1678  9.93738e+19
23.2851  1.02003e+20
23.4024  1.05402e+20
23.5198  1.09605e+20
23.6371  1.14552e+20
23.7544  1.20215e+20
23.8717  1.26543e+20
23.989  1.33409e+20
24.1063  1.40751e+20
24.2236  1.48317e+20
24.3409  1.55899e+20
24.4582  1.63291e+20
24.5755  1.70161e+20
24.6928  1.76283e+20
24.8101  1.81391e+20
24.9274  1.85275e+20
25.0447  1.87727e+20
25.162  1.88593e+20
25.2793  1.87775e+20
25.3966  1.85295e+20
25.5139  1.8115e+20
25.6312  1.75513e+20
25.7485  1.68582e+20
25.8658  1.60697e+20
25.9832  1.52297e+20
26.1005  1.43664e+20
26.2178  1.35265e+20
26.3351  1.27446e+20
26.4524  1.20439e+20
26.5697  1.14406e+20
26.687  1.09459e+20
26.8043  1.05604e+20
26.9216  1.02835e+20
27.0389  1.01207e+20
27.1562  1.00663e+20
27.2735  1.01305e+20
27.3908  1.03179e+20
27.5081  1.06373e+20
27.6254  1.11013e+20
27.7427  1.17135e+20
27.86  1.24851e+20
27.9773  1.34138e+20
28.0946  1.4493e+20
28.212  1.57124e+20
28.3293  1.70477e+20
28.4466  1.84663e+20
28.5639  1.9928e+20
28.6812  2.13761e+20
28.7985  2.2752e+20
28.9158  2.399e+20
29.0331  2.50288e+20
29.1504  2.58117e+20
29.2677  2.62837e+20
29.385  2.64217e+20
29.5023  2.62071e+20
29.6196  2.56449e+20
29.7369  2.47479e+20
29.8542  2.35464e+20
29.9715  2.20908e+20
30.0888  2.04208e+20
30.2061  1.8603e+20
30.3234  1.66832e+20
30.4407  1.47229e+20
30.558  1.27805e+20
30.6754  1.08995e+20
30.7927  9.1433e+19
30.91  7.54169e+19
31.0273  6.13339e+19
31.1446  4.95169e+19
31.2619  4.01946e+19
31.3792  3.35235e+19
31.4965  2.95852e+19
31.6138  2.83993e+19
31.7311  2.98558e+19
31.8484  3.37301e+19
31.9657  3.96787e+19
32.083  4.7276e+19
32.2003  5.59564e+19
32.3176  6.50978e+19
32.4349  7.41233e+19
32.5522  8.23859e+19
32.6695  8.94388e+19
32.7868  9.49405e+19
32.9042  9.86687e+19
33.0215  1.00613e+20
33.1388  1.00839e+20
33.2561  9.96093e+19
33.3734  9.72386e+19
33.4907  9.40515e+19
33.608  9.03879e+19
33.7253  8.65565e+19
33.8426  8.28193e+19
33.9599  7.93188e+19
34.0772  7.61335e+19
34.1945  7.31825e+19
34.3118  7.03134e+19
34.4291  6.73337e+19
34.5464  6.39773e+19
34.6637  5.9997e+19
34.781  5.52283e+19
34.8983  4.96387e+19
35.0156  4.33334e+19
35.1329  3.65849e+19
35.2503  2.97277e+19
35.3676  2.31833e+19
35.4849  1.73639e+19
35.6022  1.25642e+19
35.7195  8.94191e+18
35.8368  6.49211e+18
35.9541  5.08044e+18
36.0714  4.44598e+18
36.1887  4.31992e+18
36.306  4.43779e+18
36.4233  4.60821e+18
36.5406  4.73206e+18
36.6579  4.7849e+18
36.7752  4.77857e+18
36.8925  4.75008e+18
37.0098  4.72118e+18
37.1271  4.71732e+18
37.2444  4.76628e+18
37.3617  4.96978e+18
37.479  5.52776e+18
37.5964  6.75251e+18
37.7137  9.04728e+18
37.831  1.28803e+19
37.9483  1.8613e+19
38.0656  2.6523e+19
38.1829  3.6513e+19
38.3002  4.82349e+19
38.4175  6.09842e+19
38.5348  7.37609e+19
38.6521  8.54735e+19
38.7694  9.49784e+19
38.8867  1.01365e+20
39.004  1.04048e+20
39.1213  1.02828e+20
39.2386  9.79337e+19
39.3559  8.99347e+19
39.4732  7.96854e+19
39.5905  6.82082e+19
39.7078  5.64936e+19
39.8251  4.54414e+19
39.9425  3.57457e+19
40.0598  2.79233e+19
40.1771  2.21995e+19
40.2944  1.86424e+19
40.4117  1.71432e+19
40.529  1.74457e+19
40.6463  1.91938e+19
40.7636  2.2049e+19
40.8809  2.561e+19
40.9982  2.95219e+19
41.1155  3.3523e+19
41.2328  3.74005e+19
41.3501  4.10296e+19
41.4674  4.43263e+19
41.5847  4.72894e+19
41.702  4.98638e+19
41.8193  5.20092e+19
41.9366  5.36212e+19
42.0539  5.45829e+19
42.1712  5.47334e+19
42.2885  5.39543e+19
42.4059  5.22333e+19
42.5232  4.95715e+19
42.6405  4.60945e+19
42.7578  4.19523e+19
42.8751  3.73873e+19
42.9924  3.25901e+19
43.1097  2.77984e+19
43.227  2.31451e+19
43.3443  1.88049e+19
43.4616  1.49499e+19
43.5789  1.17782e+19
43.6962  9.53316e+18
43.8135  8.4865e+18
43.9308  8.86401e+18
44.0481  1.08001e+19
44.1654  1.42672e+19
44.2827  1.89948e+19
44.4  2.45232e+19
44.5173  3.02233e+19
44.6347  3.54162e+19
44.752  3.94542e+19
44.8693  4.19431e+19
44.9866  4.27277e+19
45.1039  4.19368e+19
45.2212  4.00238e+19
45.3385  3.75669e+19
45.4558  3.51563e+19
45.5731  3.33373e+19
45.6904  3.24485e+19
45.8077  3.25079e+19
45.925  3.33764e+19
46.0423  3.46843e+19
46.1596  3.60229e+19
46.2769  3.69433e+19
46.3942  3.71721e+19
46.5115  3.65113e+19
46.6288  3.49485e+19
46.7461  3.25689e+19
46.8634  2.95353e+19
46.9808  2.60385e+19
47.0981  2.22456e+19
47.2154  1.83074e+19
47.3327  1.44009e+19
47.45  1.06539e+19
47.5673  7.24657e+18
47.6846  4.37144e+18
47.8019  2.1951e+18
47.9192  8.85865e+17
48.0365  5.58526e+17
48.1538  1.24297e+18
48.2711  2.87352e+18
48.3884  5.28279e+18
48.5057  8.22168e+18
48.623  1.1399e+19
48.7403  1.44618e+19
48.8576  1.71118e+19
48.9749  1.90811e+19
49.0922  2.01772e+19
49.2095  2.03053e+19
49.3269  1.95444e+19
49.4442  1.80312e+19
49.5615  1.60117e+19
49.6788  1.38036e+19
49.7961  1.17854e+19
49.9134  1.02553e+19
50.0307  9.49041e+18
50.148  9.62878e+18
50.2653  1.06663e+19
50.3826  1.24678e+19
50.4999  1.4803e+19
50.6172  1.73437e+19
50.7345  1.97598e+19
50.8518  2.17628e+19
