#S 1 spectral density
#N 2
#UFWHM 11.8478
#L  abscissas [um]  spectral density
-58.5938  2.43648e+19
-58.4764  2.59969e+19
-58.3591  2.72329e+19
-58.2418  2.79412e+19
-58.1245  2.79808e+19
-58.0072  2.7115e+19
-57.8899  2.51729e+19
-57.7726  2.21319e+19
-57.6553  1.8158e+19
-57.538  1.36561e+19
-57.4207  9.21586e+18
-57.3034  5.4869e+18
-57.1861  3.07584e+18
-57.0688  2.38852e+18
-56.9515  3.56278e+18
-56.8342  6.40837e+18
-56.7169  1.04686e+19
-56.5996  1.51188e+19
-56.4823  1.96593e+19
-56.365  2.34596e+19
-56.2477  2.6099e+19
-56.1303  2.73051e+19
-56.013  2.70414e+19
-55.8957  2.54492e+19
-55.7784  2.27863e+19
-55.6611  1.93642e+19
-55.5438  1.55162e+19
-55.4265  1.15793e+19
-55.3092  7.8967e+18
-55.1919  4.79866e+18
-55.0746  2.58056e+18
-54.9573  1.50795e+18
-54.84  1.74461e+18
-54.7227  3.33792e+18
-54.6054  6.19719e+18
-54.4881  1.00848e+19
-54.3708  1.46488e+19
-54.2535  1.94427e+19
-54.1362  2.40219e+19
-54.0189  2.79839e+19
-53.9016  3.10244e+19
-53.7842  3.29312e+19
-53.6669  3.36627e+19
-53.5496  3.31972e+19
-53.4323  3.16802e+19
-53.315  2.92378e+19
-53.1977  2.60775e+19
-53.0804  2.24556e+19
-52.9631  1.85983e+19
-52.8458  1.47768e+19
-52.7285  1.12605e+19
-52.6112  8.2725e+18
-52.4939  5.97844e+18
-52.3766  4.48055e+18
-52.2593  3.77178e+18
-52.142  3.76994e+18
-52.0247  4.30751e+18
-51.9074  5.1916e+18
-51.7901  6.22698e+18
-51.6728  7.24313e+18
-51.5555  8.1476e+18
-51.4381  8.91108e+18
-51.3208  9.56075e+18
-51.2035  1.0204e+19
-51.0862  1.09656e+19
-50.9689  1.20012e+19
-50.8516  1.34556e+19
-50.7343  1.54274e+19
-50.617  1.79843e+19
-50.4997  2.11282e+19
-50.3824  2.47304e+19
-50.2651  2.86205e+19
-50.1478  3.24578e+19
-50.0305  3.59292e+19
-49.9132  3.85642e+19
-49.7959  4.00183e+19
-49.6786  4.00122e+19
-49.5613  3.84201e+19
-49.444  3.52771e+19
-49.3267  3.08442e+19
-49.2094  2.55034e+19
-49.092  1.97771e+19
-48.9747  1.41996e+19
-48.8574  9.31558e+18
-48.7401  5.54708e+18
-48.6228  3.18433e+18
-48.5055  2.35321e+18
-48.3882  3.01032e+18
-48.2709  4.96968e+18
-48.1536  7.92534e+18
-48.0363  1.15047e+19
-47.919  1.53025e+19
-47.8017  1.892e+19
-47.6844  2.20479e+19
-47.5671  2.44667e+19
-47.4498  2.60974e+19
-47.3325  2.69334e+19
-47.2152  2.71382e+19
-47.0979  2.68485e+19
-46.9806  2.62515e+19
-46.8633  2.5439e+19
-46.7459  2.44621e+19
-46.6286  2.3261e+19
-46.5113  2.17329e+19
-46.394  1.98347e+19
-46.2767  1.75558e+19
-46.1594  1.50497e+19
-46.0421  1.26233e+19
-45.9248  1.06556e+19
-45.8075  9.54911e+18
-45.6902  9.62865e+18
-45.5729  1.09984e+19
-45.4556  1.3536e+19
-45.3383  1.68438e+19
-45.221  2.03181e+19
-45.1037  2.33209e+19
-44.9864  2.52836e+19
-44.8691  2.58502e+19
-44.7518  2.49969e+19
-44.6345  2.30081e+19
-44.5172  2.03774e+19
-44.3998  1.7756e+19
-44.2825  1.57362e+19
-44.1652  1.47599e+19
-44.0479  1.49785e+19
-43.9306  1.63035e+19
-43.8133  1.83944e+19
-43.696  2.08508e+19
-43.5787  2.32759e+19
-43.4614  2.53871e+19
-43.3441  2.70786e+19
-43.2268  2.84476e+19
-43.1095  2.96606e+19
-42.9922  3.0939e+19
-42.8749  3.24499e+19
-42.7576  3.42292e+19
-42.6403  3.61205e+19
-42.523  3.79231e+19
-42.4057  3.92863e+19
-42.2884  3.9892e+19
-42.171  3.94779e+19
-42.0537  3.79668e+19
-41.9364  3.53648e+19
-41.8191  3.18578e+19
-41.7018  2.77736e+19
-41.5845  2.3499e+19
-41.4672  1.94731e+19
-41.3499  1.61041e+19
-41.2326  1.37396e+19
-41.1153  1.26053e+19
-40.998  1.27711e+19
-40.8807  1.41459e+19
-40.7634  1.64254e+19
-40.6461  1.92217e+19
-40.5288  2.19971e+19
-40.4115  2.42779e+19
-40.2942  2.56752e+19
-40.1769  2.59444e+19
-40.0596  2.5105e+19
-39.9423  2.34096e+19
-39.825  2.12624e+19
-39.7076  1.91651e+19
-39.5903  1.76212e+19
-39.473  1.6978e+19
-39.3557  1.73744e+19
-39.2384  1.87577e+19
-39.1211  2.08594e+19
-39.0038  2.33082e+19
-38.8865  2.57301e+19
-38.7692  2.78663e+19
-38.6519  2.95328e+19
-38.5346  3.07268e+19
-38.4173  3.15171e+19
-38.3  3.20427e+19
-38.1827  3.23465e+19
-38.0654  3.23899e+19
-37.9481  3.20486e+19
-37.8308  3.10889e+19
-37.7135  2.9343e+19
-37.5962  2.66925e+19
-37.4789  2.32189e+19
-37.3615  1.92302e+19
-37.2442  1.52017e+19
-37.1269  1.17244e+19
-37.0096  9.37011e+18
-36.8923  8.58623e+18
-36.775  9.57596e+18
-36.6577  1.22409e+19
-36.5404  1.62151e+19
-36.4231  2.09099e+19
-36.3058  2.56327e+19
-36.1885  2.9732e+19
-36.0712  3.27003e+19
-35.9539  3.42217e+19
-35.8366  3.42393e+19
-35.7193  3.28755e+19
-35.602  3.04537e+19
-35.4847  2.73846e+19
-35.3674  2.40825e+19
-35.2501  2.09676e+19
-35.1328  1.84074e+19
-35.0154  1.67123e+19
-34.8981  1.61103e+19
-34.7808  1.67795e+19
-34.6635  1.87834e+19
-34.5462  2.20849e+19
-34.4289  2.65475e+19
-34.3116  3.1835e+19
-34.1943  3.74988e+19
-34.077  4.30316e+19
-33.9597  4.78318e+19
-33.8424  5.13795e+19
-33.7251  5.32068e+19
-33.6078  5.31058e+19
-33.4905  5.10223e+19
-33.3732  4.7138e+19
-33.2559  4.18407e+19
-33.1386  3.56554e+19
-33.0213  2.9206e+19
-32.904  2.31442e+19
-32.7867  1.80322e+19
-32.6693  1.43674e+19
-32.552  1.24955e+19
-32.4347  1.26121e+19
-32.3174  1.47566e+19
-32.2001  1.87818e+19
-32.0828  2.44145e+19
-31.9655  3.12424e+19
-31.8482  3.88047e+19
-31.7309  4.65922e+19
-31.6136  5.41151e+19
-31.4963  6.09365e+19
-31.379  6.66935e+19
-31.2617  7.11767e+19
-31.1444  7.42425e+19
-31.0271  7.58311e+19
-30.9098  7.60807e+19
-30.7925  7.50045e+19
-30.6752  7.28313e+19
-30.5579  6.97336e+19
-30.4406  6.59351e+19
-30.3232  6.1722e+19
-30.2059  5.72921e+19
-30.0886  5.29131e+19
-29.9713  4.88268e+19
-29.854  4.51698e+19
-29.7367  4.19985e+19
-29.6194  3.93599e+19
-29.5021  3.71729e+19
-29.3848  3.53291e+19
-29.2675  3.37152e+19
-29.1502  3.22556e+19
-29.0329  3.09486e+19
-28.9156  2.98734e+19
-28.7983  2.91716e+19
-28.681  2.90878e+19
-28.5637  2.98578e+19
-28.4464  3.17391e+19
-28.3291  3.4902e+19
-28.2118  3.9413e+19
-28.0944  4.52527e+19
-27.9771  5.22496e+19
-27.8598  6.00848e+19
-27.7425  6.83818e+19
-27.6252  7.65373e+19
-27.5079  8.40293e+19
-27.3906  9.0226e+19
-27.2733  9.46003e+19
-27.156  9.67559e+19
-27.0387  9.63921e+19
-26.9214  9.35434e+19
-26.8041  8.84291e+19
-26.6868  8.15085e+19
-26.5695  7.33401e+19
-26.4522  6.46235e+19
-26.3349  5.60818e+19
-26.2176  4.82506e+19
-26.1003  4.1583e+19
-25.983  3.62541e+19
-25.8657  3.22529e+19
-25.7483  2.94202e+19
-25.631  2.74683e+19
-25.5137  2.60874e+19
-25.3964  2.49491e+19
-25.2791  2.38358e+19
-25.1618  2.26104e+19
-25.0445  2.12699e+19
-24.9272  1.99349e+19
-24.8099  1.88429e+19
-24.6926  1.83398e+19
-24.5753  1.88735e+19
-24.458  2.09078e+19
-24.3407  2.49643e+19
-24.2234  3.14981e+19
-24.1061  4.09112e+19
-23.9888  5.34361e+19
-23.8715  6.91315e+19
-23.7542  8.78477e+19
-23.6369  1.09249e+20
-23.5196  1.32796e+20
-23.4023  1.57753e+20
-23.2849  1.83305e+20
-23.1676  2.08596e+20
-23.0503  2.32676e+20
-22.933  2.54765e+20
-22.8157  2.74024e+20
-22.6984  2.89793e+20
-22.5811  3.01615e+20
-22.4638  3.09281e+20
-22.3465  3.12786e+20
-22.2292  3.12521e+20
-22.1119  3.09046e+20
-21.9946  3.03127e+20
-21.8773  2.95664e+20
-21.76  2.87576e+20
-21.6427  2.79606e+20
-21.5254  2.72288e+20
-21.4081  2.65959e+20
-21.2908  2.60718e+20
-21.1735  2.56425e+20
-21.0561  2.52895e+20
-20.9388  2.49814e+20
-20.8215  2.46996e+20
-20.7042  2.44395e+20
-20.5869  2.4205e+20
-20.4696  2.40093e+20
-20.3523  2.38713e+20
-20.235  2.38111e+20
-20.1177  2.38508e+20
-20.0004  2.40003e+20
-19.8831  2.4249e+20
-19.7658  2.46118e+20
-19.6485  2.50709e+20
-19.5312  2.56178e+20
-19.4139  2.62345e+20
-19.2966  2.69074e+20
-19.1793  2.76149e+20
-19.062  2.83365e+20
-18.9447  2.90504e+20
-18.8274  2.97427e+20
-18.71  3.03942e+20
-18.5927  3.10096e+20
-18.4754  3.16015e+20
-18.3581  3.2181e+20
-18.2408  3.27952e+20
-18.1235  3.347e+20
-18.0062  3.42493e+20
-17.8889  3.51631e+20
-17.7716  3.6221e+20
-17.6543  3.74556e+20
-17.537  3.88487e+20
-17.4197  4.04067e+20
-17.3024  4.21143e+20
-17.1851  4.39631e+20
-17.0678  4.59398e+20
-16.9505  4.80289e+20
-16.8332  5.0216e+20
-16.7159  5.24843e+20
-16.5986  5.48173e+20
-16.4813  5.72009e+20
-16.364  5.96199e+20
-16.2466  6.20735e+20
-16.1293  6.45427e+20
-16.012  6.70795e+20
-15.8947  6.97001e+20
-15.7774  7.24649e+20
-15.6601  7.543e+20
-15.5428  7.86632e+20
-15.4255  8.22137e+20
-15.3082  8.61445e+20
-15.1909  9.04623e+20
-15.0736  9.51862e+20
-14.9563  1.00283e+21
-14.839  1.05716e+21
-14.7217  1.11385e+21
-14.6044  1.17221e+21
-14.4871  1.23102e+21
-14.3698  1.28921e+21
-14.2525  1.34543e+21
-14.1352  1.39849e+21
-14.0178  1.44727e+21
-13.9005  1.49085e+21
-13.7832  1.52842e+21
-13.6659  1.55933e+21
-13.5486  1.5835e+21
-13.4313  1.60095e+21
-13.314  1.61195e+21
-13.1967  1.61704e+21
-13.0794  1.61723e+21
-12.9621  1.6133e+21
-12.8448  1.60647e+21
-12.7275  1.5978e+21
-12.6102  1.58862e+21
-12.4929  1.58e+21
-12.3756  1.57312e+21
-12.2583  1.56918e+21
-12.141  1.56942e+21
-12.0237  1.57501e+21
-11.9064  1.58723e+21
-11.7891  1.60747e+21
-11.6718  1.63721e+21
-11.5544  1.67787e+21
-11.4371  1.73075e+21
-11.3198  1.79716e+21
-11.2025  1.878e+21
-11.0852  1.97399e+21
-10.9679  2.08531e+21
-10.8506  2.21151e+21
-10.7333  2.35152e+21
-10.616  2.50379e+21
-10.4987  2.66638e+21
-10.3814  2.83641e+21
-10.2641  3.01101e+21
-10.1468  3.1876e+21
-10.0295  3.36326e+21
-9.91217  3.53551e+21
-9.79487  3.70285e+21
-9.67756  3.86416e+21
-9.56026  4.01902e+21
-9.44295  4.16781e+21
-9.32565  4.31203e+21
-9.20834  4.45299e+21
-9.09104  4.59286e+21
-8.97373  4.73357e+21
-8.85643  4.87744e+21
-8.73913  5.02571e+21
-8.62182  5.17974e+21
-8.50452  5.3398e+21
-8.38721  5.50612e+21
-8.26991  5.67719e+21
-8.1526  5.85199e+21
-8.03529  6.02818e+21
-7.91799  6.20384e+21
-7.80069  6.37669e+21
-7.68338  6.54456e+21
-7.56608  6.70625e+21
-7.44877  6.86091e+21
-7.33146  7.00818e+21
-7.21416  7.14855e+21
-7.09685  7.28329e+21
-6.97955  7.41392e+21
-6.86224  7.5425e+21
-6.74494  7.67135e+21
-6.62763  7.80184e+21
-6.51033  7.93619e+21
-6.39302  8.07583e+21
-6.27572  8.2217e+21
-6.15842  8.37449e+21
-6.04111  8.53435e+21
-5.92381  8.70096e+21
-5.8065  8.8743e+21
-5.68919  9.05354e+21
-5.57189  9.23813e+21
-5.45458  9.42758e+21
-5.33728  9.62171e+21
-5.21997  9.81987e+21
-5.10267  1.00224e+22
-4.98536  1.02288e+22
-4.86806  1.0439e+22
-4.75075  1.06527e+22
-4.63345  1.0869e+22
-4.51614  1.10869e+22
-4.39884  1.13043e+22
-4.28154  1.15194e+22
-4.16423  1.17299e+22
-4.04692  1.19322e+22
-3.92962  1.21238e+22
-3.81231  1.23022e+22
-3.69501  1.24648e+22
-3.5777  1.26101e+22
-3.4604  1.2737e+22
-3.34309  1.28457e+22
-3.22579  1.29373e+22
-3.10849  1.30143e+22
-2.99118  1.30796e+22
-2.87387  1.31378e+22
-2.75657  1.31937e+22
-2.63926  1.32523e+22
-2.52196  1.33191e+22
-2.40465  1.33991e+22
-2.28735  1.34963e+22
-2.17005  1.36147e+22
-2.05274  1.37567e+22
-1.93544  1.39229e+22
-1.81813  1.41138e+22
-1.70083  1.43278e+22
-1.58352  1.45622e+22
-1.46622  1.48136e+22
-1.34891  1.50771e+22
-1.2316  1.53476e+22
-1.1143  1.5619e+22
-0.996995  1.58854e+22
-0.87969  1.6141e+22
-0.762385  1.63787e+22
-0.64508  1.65938e+22
-0.527775  1.67812e+22
-0.41047  1.6936e+22
-0.293165  1.70549e+22
-0.17586  1.71354e+22
-0.058555  1.71755e+22
0.05875  1.71741e+22
0.176055  1.71316e+22
0.29336  1.70487e+22
0.410665  1.69275e+22
0.52797  1.67703e+22
0.645275  1.65811e+22
0.76258  1.63641e+22
0.879885  1.61249e+22
0.99719  1.58684e+22
1.1145  1.56011e+22
1.2318  1.53289e+22
1.3491  1.50581e+22
1.46641  1.47941e+22
1.58371  1.45425e+22
1.70102  1.43079e+22
1.81832  1.40937e+22
1.93563  1.39026e+22
2.05294  1.37361e+22
2.17024  1.35943e+22
2.28754  1.34759e+22
2.40485  1.33782e+22
2.52216  1.32981e+22
2.63946  1.32311e+22
2.75677  1.3172e+22
2.87407  1.31157e+22
2.99137  1.3057e+22
3.10868  1.2991e+22
3.22599  1.29133e+22
3.34329  1.28209e+22
3.4606  1.27116e+22
3.5779  1.25838e+22
3.69521  1.24377e+22
3.81251  1.22744e+22
3.92982  1.20949e+22
4.04712  1.19023e+22
4.16443  1.16991e+22
4.28173  1.14879e+22
4.39903  1.12718e+22
4.51634  1.10536e+22
4.63364  1.08353e+22
4.75095  1.06184e+22
4.86825  1.04043e+22
4.98556  1.01938e+22
5.10286  9.98749e+21
5.22017  9.78485e+21
5.33748  9.5869e+21
5.45478  9.39315e+21
5.57209  9.20418e+21
5.68939  9.02e+21
5.8067  8.84125e+21
5.924  8.66836e+21
6.0413  8.5022e+21
6.15861  8.3427e+21
6.27591  8.19002e+21
6.39322  8.04436e+21
6.51052  7.90471e+21
6.62783  7.77002e+21
6.74514  7.6391e+21
6.86244  7.51029e+21
6.97975  7.38122e+21
7.09705  7.25025e+21
7.21436  7.11527e+21
7.33166  6.97446e+21
7.44897  6.8272e+21
7.56627  6.67268e+21
7.68358  6.51106e+21
7.80088  6.34328e+21
7.91819  6.17075e+21
8.03549  5.99554e+21
8.1528  5.8199e+21
8.2701  5.64554e+21
8.38741  5.4748e+21
8.50471  5.30898e+21
8.62202  5.14938e+21
8.73932  4.9956e+21
8.85662  4.84762e+21
8.97393  4.70413e+21
9.09123  4.56359e+21
9.20854  4.42401e+21
9.32584  4.28337e+21
9.44315  4.13953e+21
9.56045  3.99097e+21
9.67776  3.83671e+21
9.79506  3.67602e+21
9.91237  3.50944e+21
10.0297  3.33803e+21
10.147  3.16352e+21
10.2643  2.98814e+21
10.3816  2.81459e+21
10.4989  2.64582e+21
10.6162  2.48457e+21
10.7335  2.33339e+21
10.8508  2.19454e+21
10.9681  2.0694e+21
11.0854  1.95919e+21
11.2027  1.86409e+21
11.32  1.78397e+21
11.4373  1.71826e+21
11.5546  1.6659e+21
11.6719  1.62569e+21
11.7893  1.59641e+21
11.9066  1.5765e+21
12.0239  1.5644e+21
12.1412  1.55918e+21
12.2585  1.5591e+21
12.3758  1.56323e+21
12.4931  1.57025e+21
12.6104  1.579e+21
12.7277  1.58827e+21
12.845  1.59696e+21
12.9623  1.60377e+21
13.0796  1.60778e+21
13.1969  1.60754e+21
13.3142  1.60248e+21
13.4315  1.59147e+21
13.5488  1.57403e+21
13.6661  1.54991e+21
13.7834  1.51901e+21
13.9007  1.4816e+21
14.018  1.4382e+21
14.1354  1.3896e+21
14.2527  1.33683e+21
14.37  1.28095e+21
14.4873  1.22312e+21
14.6046  1.16461e+21
14.7219  1.10659e+21
14.8392  1.05021e+21
14.9565  9.96266e+20
15.0738  9.45633e+20
15.1911  8.98709e+20
15.3084  8.55755e+20
15.4257  8.16682e+20
15.543  7.81366e+20
15.6603  7.4928e+20
15.7776  7.19848e+20
15.8949  6.92389e+20
16.0122  6.66434e+20
16.1295  6.41317e+20
16.2468  6.16743e+20
16.3641  5.92522e+20
16.4815  5.68557e+20
16.5988  5.44953e+20
16.7161  5.21808e+20
16.8334  4.99331e+20
16.9507  4.77619e+20
17.068  4.56914e+20
17.1853  4.37321e+20
17.3026  4.1901e+20
17.4199  4.0202e+20
17.5372  3.86537e+20
17.6545  3.72732e+20
17.7718  3.60599e+20
17.8891  3.50068e+20
18.0064  3.41149e+20
18.1237  3.33572e+20
18.241  3.26951e+20
18.3583  3.20993e+20
18.4756  3.15356e+20
18.5929  3.09657e+20
18.7102  3.03583e+20
18.8275  2.9722e+20
18.9449  2.90454e+20
19.0622  2.8341e+20
19.1795  2.76325e+20
19.2968  2.69296e+20
19.4141  2.62655e+20
19.5314  2.56538e+20
19.6487  2.51092e+20
19.766  2.46571e+20
19.8833  2.42939e+20
20.0006  2.40429e+20
20.1179  2.38974e+20
20.2352  2.38615e+20
20.3525  2.3918e+20
20.4698  2.40503e+20
20.5871  2.42389e+20
20.7044  2.44689e+20
20.8217  2.47231e+20
20.939  2.49959e+20
21.0563  2.52935e+20
21.1736  2.56368e+20
21.291  2.60568e+20
21.4083  2.6576e+20
21.5256  2.71978e+20
21.6429  2.79245e+20
21.7602  2.87203e+20
21.8775  2.95268e+20
21.9948  3.02681e+20
22.1121  3.08559e+20
22.2294  3.11954e+20
22.3467  3.12225e+20
22.464  3.08589e+20
22.5813  3.00848e+20
22.6986  2.88941e+20
22.8159  2.73122e+20
22.9332  2.53828e+20
23.0505  2.31732e+20
23.1678  2.07608e+20
23.2851  1.82345e+20
23.4024  1.56819e+20
23.5198  1.31957e+20
23.6371  1.08495e+20
23.7544  8.71978e+19
23.8717  6.85974e+19
23.989  5.30219e+19
24.1063  4.06103e+19
24.2236  3.12914e+19
24.3409  2.48298e+19
24.4582  2.08363e+19
24.5755  1.88284e+19
24.6928  1.83154e+19
24.8101  1.88126e+19
24.9274  1.98888e+19
25.0447  2.12045e+19
25.162  2.2526e+19
25.2793  2.37385e+19
25.3966  2.48484e+19
25.5139  2.5992e+19
25.6312  2.74052e+19
25.7485  2.94009e+19
25.8658  3.23067e+19
25.9832  3.63681e+19
26.1005  4.18106e+19
26.2178  4.8591e+19
26.3351  5.6484e+19
26.4524  6.50995e+19
26.5697  7.38409e+19
26.687  8.2011e+19
26.8043  8.89401e+19
26.9216  9.39858e+19
27.0389  9.67427e+19
27.1562  9.70024e+19
27.2735  9.47562e+19
27.3908  9.02657e+19
27.5081  8.39959e+19
27.6254  7.64433e+19
27.7427  6.82484e+19
27.86  5.99667e+19
27.9773  5.21445e+19
28.0946  4.52004e+19
28.212  3.94048e+19
28.3293  3.49623e+19
28.4466  3.18587e+19
28.5639  3.00401e+19
28.6812  2.93131e+19
28.7985  2.94298e+19
28.9158  3.01469e+19
29.0331  3.12309e+19
29.1504  3.25357e+19
29.2677  3.39841e+19
29.385  3.55921e+19
29.5023  3.74327e+19
29.6196  3.96129e+19
29.7369  4.22487e+19
29.8542  4.54188e+19
29.9715  4.91028e+19
30.0888  5.32166e+19
30.2061  5.75774e+19
30.3234  6.20067e+19
30.4407  6.62498e+19
30.558  7.00189e+19
30.6754  7.31116e+19
30.7927  7.52318e+19
30.91  7.62332e+19
31.0273  7.59674e+19
31.1446  7.42597e+19
31.2619  7.11236e+19
31.3792  6.65648e+19
31.4965  6.07419e+19
31.6138  5.38951e+19
31.7311  4.63423e+19
31.8484  3.85474e+19
31.9657  3.10148e+19
32.083  2.42201e+19
32.2003  1.86459e+19
32.3176  1.46789e+19
32.4349  1.25911e+19
32.5522  1.25145e+19
32.6695  1.44131e+19
32.7868  1.80921e+19
32.9042  2.31924e+19
33.0215  2.92312e+19
33.1388  3.56241e+19
33.2561  4.17412e+19
33.3734  4.69603e+19
33.4907  5.07639e+19
33.608  5.27886e+19
33.7253  5.28499e+19
33.8426  5.09781e+19
33.9599  4.74381e+19
34.0772  4.26555e+19
34.1945  3.71725e+19
34.3118  3.15664e+19
34.4291  2.636e+19
34.5464  2.19856e+19
34.6637  1.87519e+19
34.781  1.68246e+19
34.8983  1.62283e+19
35.0156  1.68842e+19
35.1329  1.86289e+19
35.2503  2.12135e+19
35.3676  2.43528e+19
35.4849  2.76406e+19
35.6022  3.06924e+19
35.7195  3.30714e+19
35.8368  3.43823e+19
35.9541  3.431e+19
36.0714  3.27094e+19
36.1887  2.96976e+19
36.306  2.55421e+19
36.4233  2.07738e+19
36.5406  1.6062e+19
36.6579  1.20957e+19
36.7752  9.44566e+18
36.8925  8.48645e+18
37.0098  9.30047e+18
37.1271  1.16841e+19
37.2444  1.51892e+19
37.3617  1.9247e+19
37.479  2.32585e+19
37.5964  2.67423e+19
37.7137  2.94208e+19
37.831  3.11728e+19
37.9483  3.21544e+19
38.0656  3.24972e+19
38.1829  3.24636e+19
38.3002  3.21538e+19
38.4175  3.16291e+19
38.5348  3.08133e+19
38.6521  2.95949e+19
38.7694  2.79097e+19
38.8867  2.57589e+19
39.004  2.33126e+19
39.1213  2.08492e+19
39.2386  1.87606e+19
39.3559  1.74102e+19
39.4732  1.70483e+19
39.5905  1.77439e+19
39.7078  1.93292e+19
39.8251  2.14424e+19
39.9425  2.36069e+19
40.0598  2.52992e+19
40.1771  2.61189e+19
40.2944  2.58165e+19
40.4117  2.43935e+19
40.529  2.20703e+19
40.6463  1.92685e+19
40.7636  1.64777e+19
40.8809  1.41822e+19
40.9982  1.28438e+19
41.1155  1.27105e+19
41.2328  1.38895e+19
41.3501  1.62912e+19
41.4674  1.97027e+19
41.5847  2.37554e+19
41.702  2.80367e+19
41.8193  3.21169e+19
41.9366  3.55839e+19
42.0539  3.81389e+19
42.1712  3.96032e+19
42.2885  3.99546e+19
42.4059  3.92899e+19
42.5232  3.78741e+19
42.6405  3.60355e+19
42.7578  3.41111e+19
42.8751  3.23269e+19
42.9924  3.0828e+19
43.1097  2.95451e+19
43.227  2.83593e+19
43.3443  2.70111e+19
43.4616  2.53183e+19
43.5789  2.32039e+19
43.6962  2.07905e+19
43.8135  1.83275e+19
43.9308  1.62405e+19
44.0481  1.49323e+19
44.1654  1.47256e+19
44.2827  1.57133e+19
44.4  1.77289e+19
44.5173  2.03366e+19
44.6347  2.29469e+19
44.752  2.49219e+19
44.8693  2.57427e+19
44.9866  2.51191e+19
45.1039  2.3148e+19
45.2212  2.0125e+19
45.3385  1.66503e+19
45.4558  1.33936e+19
45.5731  1.0913e+19
45.6904  9.5929e+18
45.8077  9.58891e+18
45.925  1.07452e+19
46.0423  1.27589e+19
46.1596  1.5214e+19
46.2769  1.77183e+19
46.3942  2.00103e+19
46.5115  2.18953e+19
46.6288  2.34053e+19
46.7461  2.45806e+19
46.8634  2.55323e+19
46.9808  2.63185e+19
47.0981  2.68818e+19
47.2154  2.71161e+19
47.3327  2.68691e+19
47.45  2.59675e+19
47.5673  2.42973e+19
47.6846  2.18519e+19
47.8019  1.86987e+19
47.9192  1.50824e+19
48.0365  1.13088e+19
48.1538  7.76589e+18
48.2711  4.86029e+18
48.3884  2.9629e+18
48.5057  2.36936e+18
48.623  3.26892e+18
48.7403  5.68959e+18
48.8576  9.51443e+18
48.9749  1.44445e+19
49.0922  2.00489e+19
49.2095  2.57814e+19
49.3269  3.1131e+19
49.4442  3.55494e+19
49.5615  3.86604e+19
49.6788  4.01954e+19
49.7961  4.0157e+19
49.9134  3.86139e+19
50.0307  3.59129e+19
50.148  3.24312e+19
50.2653  2.85438e+19
50.3826  2.46412e+19
50.4999  2.10206e+19
50.6172  1.78856e+19
50.7345  1.53386e+19
50.8518  1.33762e+19
