#S 1 spectral density
#N 2
#UFWHM 14.3112
#L  abscissas [um]  spectral density
-58.5938  1.09014e+19
-58.4764  7.92393e+18
-58.3591  5.39108e+18
-58.2418  3.56408e+18
-58.1245  2.54513e+18
-58.0072  2.30833e+18
-57.8899  2.70828e+18
-57.7726  3.56535e+18
-57.6553  4.70022e+18
-57.538  5.99707e+18
-57.4207  7.40218e+18
-57.3034  8.87418e+18
-57.1861  1.0387e+19
-57.0688  1.18678e+19
-56.9515  1.31994e+19
-56.8342  1.41941e+19
-56.7169  1.47029e+19
-56.5996  1.46358e+19
-56.4823  1.40209e+19
-56.365  1.3012e+19
-56.2477  1.19262e+19
-56.1303  1.10913e+19
-56.013  1.08486e+19
-55.8957  1.13975e+19
-55.7784  1.27859e+19
-55.6611  1.48362e+19
-55.5438  1.72095e+19
-55.4265  1.95134e+19
-55.3092  2.13e+19
-55.1919  2.22297e+19
-55.0746  2.21489e+19
-54.9573  2.10172e+19
-54.84  1.90284e+19
-54.7227  1.64133e+19
-54.6054  1.35299e+19
-54.4881  1.06749e+19
-54.3708  8.11795e+18
-54.2535  6.05236e+18
-54.1362  4.61669e+18
-54.0189  3.9014e+18
-53.9016  3.96439e+18
-53.7842  4.82147e+18
-53.6669  6.47764e+18
-53.5496  8.86995e+18
-53.4323  1.18736e+19
-53.315  1.53038e+19
-53.1977  1.89009e+19
-53.0804  2.23438e+19
-52.9631  2.53189e+19
-52.8458  2.75306e+19
-52.7285  2.87022e+19
-52.6112  2.8707e+19
-52.4939  2.74742e+19
-52.3766  2.51013e+19
-52.2593  2.17619e+19
-52.142  1.77864e+19
-52.0247  1.35725e+19
-51.9074  9.57681e+18
-51.7901  6.26464e+18
-51.6728  4.02436e+18
-51.5555  3.144e+18
-51.4381  3.72056e+18
-51.3208  5.65719e+18
-51.2035  8.64007e+18
-51.0862  1.22257e+19
-50.9689  1.58275e+19
-50.8516  1.88856e+19
-50.7343  2.09502e+19
-50.617  2.17082e+19
-50.4997  2.1072e+19
-50.3824  1.92019e+19
-50.2651  1.63865e+19
-50.1478  1.31102e+19
-50.0305  9.81567e+18
-49.9132  6.94754e+18
-49.7959  4.82265e+18
-49.6786  3.61232e+18
-49.5613  3.35783e+18
-49.444  3.95892e+18
-49.3267  5.23258e+18
-49.2094  6.94086e+18
-49.092  8.84064e+18
-48.9747  1.07264e+19
-48.8574  1.24436e+19
-48.7401  1.39025e+19
-48.6228  1.50526e+19
-48.5055  1.59245e+19
-48.3882  1.65281e+19
-48.2709  1.68852e+19
-48.1536  1.70047e+19
-48.0363  1.68256e+19
-47.919  1.62812e+19
-47.8017  1.52846e+19
-47.6844  1.3785e+19
-47.5671  1.17909e+19
-47.4498  9.42174e+18
-47.3325  6.91409e+18
-47.2152  4.59081e+18
-47.0979  2.81752e+18
-46.9806  1.91006e+18
-46.8633  2.08009e+18
-46.7459  3.3535e+18
-46.6286  5.56404e+18
-46.5113  8.359e+18
-46.394  1.13051e+19
-46.2767  1.39363e+19
-46.1594  1.58971e+19
-46.0421  1.70244e+19
-45.9248  1.73275e+19
-45.8075  1.7019e+19
-45.6902  1.64198e+19
-45.5729  1.58468e+19
-45.4556  1.56148e+19
-45.3383  1.58179e+19
-45.221  1.64985e+19
-45.1037  1.7535e+19
-44.9864  1.87514e+19
-44.8691  2.00232e+19
-44.7518  2.1279e+19
-44.6345  2.24946e+19
-44.5172  2.371e+19
-44.3998  2.49661e+19
-44.2825  2.62095e+19
-44.1652  2.73252e+19
-44.0479  2.80514e+19
-43.9306  2.81299e+19
-43.8133  2.72852e+19
-43.696  2.54029e+19
-43.5787  2.25721e+19
-43.4614  1.90926e+19
-43.3441  1.54539e+19
-43.2268  1.2276e+19
-43.1095  1.01445e+19
-42.9922  9.5278e+18
-42.8749  1.06428e+19
-42.7576  1.34434e+19
-42.6403  1.76105e+19
-42.523  2.26585e+19
-42.4057  2.80035e+19
-42.2884  3.30651e+19
-42.171  3.7372e+19
-42.0537  4.06955e+19
-41.9364  4.28555e+19
-41.8191  4.38887e+19
-41.7018  4.38855e+19
-41.5845  4.3009e+19
-41.4672  4.14236e+19
-41.3499  3.92435e+19
-41.2326  3.65725e+19
-41.1153  3.34995e+19
-40.998  3.01038e+19
-40.8807  2.64644e+19
-40.7634  2.26516e+19
-40.6461  1.88278e+19
-40.5288  1.51092e+19
-40.4115  1.17074e+19
-40.2942  8.86053e+18
-40.1769  6.79872e+18
-40.0596  5.76532e+18
-39.9423  5.95025e+18
-39.825  7.43062e+18
-39.7076  1.01228e+19
-39.5903  1.37288e+19
-39.473  1.77921e+19
-39.3557  2.16731e+19
-39.2384  2.47055e+19
-39.1211  2.63013e+19
-39.0038  2.60563e+19
-38.8865  2.39134e+19
-38.7692  2.01965e+19
-38.6519  1.55034e+19
-38.5346  1.0708e+19
-38.4173  6.72242e+18
-38.3  4.3592e+18
-38.1827  4.11818e+18
-38.0654  6.10376e+18
-37.9481  1.00174e+19
-37.8308  1.52067e+19
-37.7135  2.08301e+19
-37.5962  2.60066e+19
-37.4789  3.00179e+19
-37.3615  3.24639e+19
-37.2442  3.32709e+19
-37.1269  3.26479e+19
-37.0096  3.10433e+19
-36.8923  2.89745e+19
-36.775  2.69242e+19
-36.6577  2.52105e+19
-36.5404  2.39176e+19
-36.4231  2.29994e+19
-36.3058  2.22774e+19
-36.1885  2.15374e+19
-36.0712  2.0627e+19
-35.9539  1.95009e+19
-35.8366  1.82575e+19
-35.7193  1.71157e+19
-35.602  1.62832e+19
-35.4847  1.60294e+19
-35.3674  1.65205e+19
-35.2501  1.78241e+19
-35.1328  1.99042e+19
-35.0154  2.26613e+19
-34.8981  2.5928e+19
-34.7808  2.95459e+19
-34.6635  3.33281e+19
-34.5462  3.71456e+19
-34.4289  4.09194e+19
-34.3116  4.45224e+19
-34.1943  4.78466e+19
-34.077  5.08074e+19
-33.9597  5.32956e+19
-33.8424  5.52035e+19
-33.7251  5.64637e+19
-33.6078  5.70355e+19
-33.4905  5.69258e+19
-33.3732  5.61708e+19
-33.2559  5.48298e+19
-33.1386  5.29643e+19
-33.0213  5.06582e+19
-32.904  4.79985e+19
-32.7867  4.50687e+19
-32.6693  4.19276e+19
-32.552  3.86828e+19
-32.4347  3.54175e+19
-32.3174  3.22763e+19
-32.2001  2.93513e+19
-32.0828  2.67488e+19
-31.9655  2.45516e+19
-31.8482  2.28438e+19
-31.7309  2.168e+19
-31.6136  2.11083e+19
-31.4963  2.11834e+19
-31.379  2.1959e+19
-31.2617  2.34916e+19
-31.1444  2.58032e+19
-31.0271  2.88706e+19
-30.9098  3.26441e+19
-30.7925  3.69117e+19
-30.6752  4.14472e+19
-30.5579  4.58992e+19
-30.4406  4.99042e+19
-30.3232  5.31161e+19
-30.2059  5.51819e+19
-30.0886  5.58678e+19
-29.9713  5.50758e+19
-29.854  5.27939e+19
-29.7367  4.91309e+19
-29.6194  4.43634e+19
-29.5021  3.88358e+19
-29.3848  3.29577e+19
-29.2675  2.71644e+19
-29.1502  2.18917e+19
-29.0329  1.75268e+19
-28.9156  1.43518e+19
-28.7983  1.2523e+19
-28.681  1.20598e+19
-28.5637  1.28247e+19
-28.4464  1.45598e+19
-28.3291  1.69266e+19
-28.2118  1.95657e+19
-28.0944  2.21647e+19
-27.9771  2.44949e+19
-27.8598  2.64539e+19
-27.7425  2.80884e+19
-27.6252  2.95125e+19
-27.5079  3.09603e+19
-27.3906  3.26593e+19
-27.2733  3.48354e+19
-27.156  3.7631e+19
-27.0387  4.11389e+19
-26.9214  4.53893e+19
-26.8041  5.03448e+19
-26.6868  5.59236e+19
-26.5695  6.19676e+19
-26.4522  6.82995e+19
-26.3349  7.47554e+19
-26.2176  8.10342e+19
-26.1003  8.68827e+19
-25.983  9.19418e+19
-25.8657  9.58744e+19
-25.7483  9.84168e+19
-25.631  9.93459e+19
-25.5137  9.86217e+19
-25.3964  9.62472e+19
-25.2791  9.24371e+19
-25.1618  8.75039e+19
-25.0445  8.1895e+19
-24.9272  7.60922e+19
-24.8099  7.06172e+19
-24.6926  6.60004e+19
-24.5753  6.2764e+19
-24.458  6.12313e+19
-24.3407  6.17321e+19
-24.2234  6.43555e+19
-24.1061  6.90693e+19
-23.9888  7.56092e+19
-23.8715  8.35581e+19
-23.7542  9.23727e+19
-23.6369  1.0148e+20
-23.5196  1.10317e+20
-23.4023  1.18359e+20
-23.2849  1.25324e+20
-23.1676  1.31128e+20
-23.0503  1.35825e+20
-22.933  1.39771e+20
-22.8157  1.43317e+20
-22.6984  1.46912e+20
-22.5811  1.5101e+20
-22.4638  1.55984e+20
-22.3465  1.62113e+20
-22.2292  1.69537e+20
-22.1119  1.78259e+20
-21.9946  1.88095e+20
-21.8773  1.98778e+20
-21.76  2.09866e+20
-21.6427  2.20755e+20
-21.5254  2.30761e+20
-21.4081  2.39223e+20
-21.2908  2.45498e+20
-21.1735  2.49073e+20
-21.0561  2.49667e+20
-20.9388  2.4715e+20
-20.8215  2.4179e+20
-20.7042  2.33975e+20
-20.5869  2.24329e+20
-20.4696  2.13445e+20
-20.3523  2.0198e+20
-20.235  1.90403e+20
-20.1177  1.79179e+20
-20.0004  1.68514e+20
-19.8831  1.58481e+20
-19.7658  1.49262e+20
-19.6485  1.40937e+20
-19.5312  1.33706e+20
-19.4139  1.27835e+20
-19.2966  1.23735e+20
-19.1793  1.21867e+20
-19.062  1.22781e+20
-18.9447  1.27055e+20
-18.8274  1.35309e+20
-18.71  1.48072e+20
-18.5927  1.65915e+20
-18.4754  1.89316e+20
-18.3581  2.18501e+20
-18.2408  2.537e+20
-18.1235  2.94656e+20
-18.0062  3.40915e+20
-17.8889  3.91575e+20
-17.7716  4.45194e+20
-17.6543  5.00391e+20
-17.537  5.55076e+20
-17.4197  6.07465e+20
-17.3024  6.55506e+20
-17.1851  6.97656e+20
-17.0678  7.32568e+20
-16.9505  7.59345e+20
-16.8332  7.777e+20
-16.7159  7.87903e+20
-16.5986  7.90792e+20
-16.4813  7.87688e+20
-16.364  7.8033e+20
-16.2466  7.70757e+20
-16.1293  7.60823e+20
-16.012  7.53071e+20
-15.8947  7.49248e+20
-15.7774  7.51064e+20
-15.6601  7.59708e+20
-15.5428  7.75866e+20
-15.4255  7.99493e+20
-15.3082  8.30205e+20
-15.1909  8.66727e+20
-15.0736  9.07789e+20
-14.9563  9.51564e+20
-14.839  9.96417e+20
-14.7217  1.04044e+21
-14.6044  1.08248e+21
-14.4871  1.12139e+21
-14.3698  1.1567e+21
-14.2525  1.18819e+21
-14.1352  1.21615e+21
-14.0178  1.24121e+21
-13.9005  1.26431e+21
-13.7832  1.28639e+21
-13.6659  1.30844e+21
-13.5486  1.33153e+21
-13.4313  1.35647e+21
-13.314  1.3837e+21
-13.1967  1.41348e+21
-13.0794  1.446e+21
-12.9621  1.48084e+21
-12.8448  1.51757e+21
-12.7275  1.55567e+21
-12.6102  1.59459e+21
-12.4929  1.63381e+21
-12.3756  1.67301e+21
-12.2583  1.7122e+21
-12.141  1.75176e+21
-12.0237  1.79235e+21
-11.9064  1.83488e+21
-11.7891  1.88074e+21
-11.6718  1.93139e+21
-11.5544  1.98832e+21
-11.4371  2.05277e+21
-11.3198  2.12597e+21
-11.2025  2.20847e+21
-11.0852  2.30065e+21
-10.9679  2.40227e+21
-10.8506  2.51253e+21
-10.7333  2.63022e+21
-10.616  2.7541e+21
-10.4987  2.88272e+21
-10.3814  3.0144e+21
-10.2641  3.14796e+21
-10.1468  3.28299e+21
-10.0295  3.41906e+21
-9.91217  3.55648e+21
-9.79487  3.69656e+21
-9.67756  3.84064e+21
-9.56026  3.99055e+21
-9.44295  4.14801e+21
-9.32565  4.31523e+21
-9.20834  4.49335e+21
-9.09104  4.68334e+21
-8.97373  4.8851e+21
-8.85643  5.09824e+21
-8.73913  5.32063e+21
-8.62182  5.54987e+21
-8.50452  5.78246e+21
-8.38721  6.01486e+21
-8.26991  6.24212e+21
-8.1526  6.46034e+21
-8.03529  6.6648e+21
-7.91799  6.85188e+21
-7.80069  7.01852e+21
-7.68338  7.16216e+21
-7.56608  7.28198e+21
-7.44877  7.3781e+21
-7.33146  7.4515e+21
-7.21416  7.50442e+21
-7.09685  7.53998e+21
-6.97955  7.56199e+21
-6.86224  7.57473e+21
-6.74494  7.58303e+21
-6.62763  7.59076e+21
-6.51033  7.60284e+21
-6.39302  7.62334e+21
-6.27572  7.65607e+21
-6.15842  7.70453e+21
-6.04111  7.77182e+21
-5.92381  7.86045e+21
-5.8065  7.97278e+21
-5.68919  8.11025e+21
-5.57189  8.27397e+21
-5.45458  8.46463e+21
-5.33728  8.68223e+21
-5.21997  8.92568e+21
-5.10267  9.19389e+21
-4.98536  9.48438e+21
-4.86806  9.79397e+21
-4.75075  1.0119e+22
-4.63345  1.04551e+22
-4.51614  1.07971e+22
-4.39884  1.11399e+22
-4.28154  1.1478e+22
-4.16423  1.18069e+22
-4.04692  1.21212e+22
-3.92962  1.24176e+22
-3.81231  1.26933e+22
-3.69501  1.2946e+22
-3.5777  1.31752e+22
-3.4604  1.33809e+22
-3.34309  1.35639e+22
-3.22579  1.37255e+22
-3.10849  1.38683e+22
-2.99118  1.39942e+22
-2.87387  1.41056e+22
-2.75657  1.42048e+22
-2.63926  1.4294e+22
-2.52196  1.43745e+22
-2.40465  1.44479e+22
-2.28735  1.45146e+22
-2.17005  1.45757e+22
-2.05274  1.46315e+22
-1.93544  1.46818e+22
-1.81813  1.47273e+22
-1.70083  1.47679e+22
-1.58352  1.48038e+22
-1.46622  1.48356e+22
-1.34891  1.48636e+22
-1.2316  1.48883e+22
-1.1143  1.491e+22
-0.996995  1.49294e+22
-0.87969  1.49469e+22
-0.762385  1.49616e+22
-0.64508  1.49747e+22
-0.527775  1.49858e+22
-0.41047  1.49946e+22
-0.293165  1.50011e+22
-0.17586  1.50054e+22
-0.058555  1.50074e+22
0.05875  1.50071e+22
0.176055  1.50042e+22
0.29336  1.49991e+22
0.410665  1.4992e+22
0.52797  1.49822e+22
0.645275  1.49705e+22
0.76258  1.49568e+22
0.879885  1.49413e+22
0.99719  1.49236e+22
1.1145  1.49037e+22
1.2318  1.48813e+22
1.3491  1.48562e+22
1.46641  1.48275e+22
1.58371  1.47949e+22
1.70102  1.47581e+22
1.81832  1.47166e+22
1.93563  1.46701e+22
2.05294  1.46184e+22
2.17024  1.45616e+22
2.28754  1.44993e+22
2.40485  1.44309e+22
2.52216  1.43562e+22
2.63946  1.42742e+22
2.75677  1.41835e+22
2.87407  1.40828e+22
2.99137  1.39697e+22
3.10868  1.38423e+22
3.22599  1.36981e+22
3.34329  1.3535e+22
3.4606  1.33508e+22
3.5779  1.31439e+22
3.69521  1.29136e+22
3.81251  1.26599e+22
3.92982  1.23831e+22
4.04712  1.20858e+22
4.16443  1.17708e+22
4.28173  1.14415e+22
4.39903  1.11027e+22
4.51634  1.07596e+22
4.63364  1.04175e+22
4.75095  1.00815e+22
4.86825  9.75652e+21
4.98556  9.44712e+21
5.10286  9.15729e+21
5.22017  8.88945e+21
5.33748  8.64674e+21
5.45478  8.43e+21
5.57209  8.24036e+21
5.68939  8.07749e+21
5.8067  7.94099e+21
5.924  7.82964e+21
6.0413  7.74198e+21
6.15861  7.67554e+21
6.27591  7.62764e+21
6.39322  7.59552e+21
6.51052  7.57539e+21
6.62783  7.56336e+21
6.74514  7.55535e+21
6.86244  7.54704e+21
6.97975  7.53361e+21
7.09705  7.51098e+21
7.21436  7.47466e+21
7.33166  7.42069e+21
7.44897  7.34655e+21
7.56627  7.24975e+21
7.68358  7.12911e+21
7.80088  6.98483e+21
7.91819  6.81781e+21
8.03549  6.63057e+21
8.1528  6.42624e+21
8.2701  6.20823e+21
8.38741  5.98128e+21
8.50471  5.7495e+21
8.62202  5.51765e+21
8.73932  5.28904e+21
8.85662  5.06748e+21
8.97393  4.85524e+21
9.09123  4.65416e+21
9.20854  4.46497e+21
9.32584  4.28756e+21
9.44315  4.12096e+21
9.56045  3.96384e+21
9.67776  3.81456e+21
9.79506  3.67087e+21
9.91237  3.5313e+21
10.0297  3.39431e+21
10.147  3.25888e+21
10.2643  3.12452e+21
10.3816  2.99151e+21
10.4989  2.86054e+21
10.6162  2.73278e+21
10.7335  2.60961e+21
10.8508  2.4927e+21
10.9681  2.38324e+21
11.0854  2.28252e+21
11.2027  2.19109e+21
11.32  2.10926e+21
11.4373  2.03676e+21
11.5546  1.97279e+21
11.6719  1.91633e+21
11.7893  1.86617e+21
11.9066  1.82068e+21
12.0239  1.77834e+21
12.1412  1.73823e+21
12.2585  1.69898e+21
12.3758  1.66015e+21
12.4931  1.62133e+21
12.6104  1.58253e+21
12.7277  1.54405e+21
12.845  1.50637e+21
12.9623  1.47e+21
13.0796  1.43573e+21
13.1969  1.40362e+21
13.3142  1.3743e+21
13.4315  1.34748e+21
13.5488  1.32294e+21
13.6661  1.30022e+21
13.7834  1.27844e+21
13.9007  1.2567e+21
14.018  1.2339e+21
14.1354  1.20912e+21
14.2527  1.18145e+21
14.37  1.15027e+21
14.4873  1.11526e+21
14.6046  1.07656e+21
14.7219  1.0348e+21
14.8392  9.91012e+20
14.9565  9.46476e+20
15.0738  9.02973e+20
15.1911  8.62181e+20
15.3084  8.25838e+20
15.4257  7.95345e+20
15.543  7.71876e+20
15.6603  7.55896e+20
15.7776  7.47363e+20
15.8949  7.45606e+20
16.0122  7.49516e+20
16.1295  7.57298e+20
16.2468  7.67038e+20
16.3641  7.76625e+20
16.4815  7.83858e+20
16.5988  7.86809e+20
16.7161  7.83754e+20
16.8334  7.73377e+20
16.9507  7.54858e+20
17.068  7.28006e+20
17.1853  6.93068e+20
17.3026  6.50989e+20
17.4199  6.02954e+20
17.5372  5.50681e+20
17.6545  4.96199e+20
17.7718  4.41342e+20
17.8891  3.87927e+20
18.0064  3.37685e+20
18.1237  2.91845e+20
18.241  2.51232e+20
18.3583  2.16417e+20
18.4756  1.87572e+20
18.5929  1.64538e+20
18.7102  1.46947e+20
18.8275  1.34457e+20
18.9449  1.26437e+20
19.0622  1.22321e+20
19.1795  1.21564e+20
19.2968  1.23521e+20
19.4141  1.27703e+20
19.5314  1.336e+20
19.6487  1.40832e+20
19.766  1.49173e+20
19.8833  1.58338e+20
20.0006  1.68334e+20
20.1179  1.78998e+20
20.2352  1.90231e+20
20.3525  2.0176e+20
20.4698  2.13184e+20
20.5871  2.24026e+20
20.7044  2.33673e+20
20.8217  2.4147e+20
20.939  2.46824e+20
21.0563  2.49263e+20
21.1736  2.48642e+20
21.291  2.45027e+20
21.4083  2.38749e+20
21.5256  2.30232e+20
21.6429  2.20247e+20
21.7602  2.09404e+20
21.8775  1.98378e+20
21.9948  1.87748e+20
22.1121  1.77991e+20
22.2294  1.69344e+20
22.3467  1.62056e+20
22.464  1.56007e+20
22.5813  1.51105e+20
22.6986  1.47079e+20
22.8159  1.43539e+20
22.9332  1.40031e+20
23.0505  1.36106e+20
23.1678  1.31361e+20
23.2851  1.25531e+20
23.4024  1.18489e+20
23.5198  1.10403e+20
23.6371  1.01511e+20
23.7544  9.23617e+19
23.8717  8.35058e+19
23.989  7.55492e+19
24.1063  6.90194e+19
24.2236  6.43329e+19
24.3409  6.17375e+19
24.4582  6.12837e+19
24.5755  6.28474e+19
24.6928  6.61384e+19
24.8101  7.07709e+19
24.9274  7.62437e+19
25.0447  8.20476e+19
25.162  8.76382e+19
25.2793  9.25326e+19
25.3966  9.62696e+19
25.5139  9.85717e+19
25.6312  9.92242e+19
25.7485  9.82157e+19
25.8658  9.56425e+19
25.9832  9.16258e+19
26.1005  8.65831e+19
26.2178  8.07616e+19
26.3351  7.4475e+19
26.4524  6.80382e+19
26.5697  6.17198e+19
26.687  5.57012e+19
26.8043  5.01689e+19
26.9216  4.52391e+19
27.0389  4.09778e+19
27.1562  3.74589e+19
27.2735  3.46479e+19
27.3908  3.24534e+19
27.5081  3.07332e+19
27.6254  2.92643e+19
27.7427  2.78178e+19
27.86  2.61824e+19
27.9773  2.42138e+19
28.0946  2.18894e+19
28.212  1.93054e+19
28.3293  1.66937e+19
28.4466  1.4376e+19
28.5639  1.27009e+19
28.6812  1.20162e+19
28.7985  1.25686e+19
28.9158  1.44902e+19
29.0331  1.77597e+19
29.1504  2.22094e+19
29.2677  2.75531e+19
29.385  3.34006e+19
29.5023  3.9317e+19
29.6196  4.48379e+19
29.7369  4.95757e+19
29.8542  5.31997e+19
29.9715  5.54521e+19
30.0888  5.61896e+19
30.2061  5.54274e+19
30.3234  5.33066e+19
30.4407  5.00661e+19
30.558  4.60328e+19
30.6754  4.15606e+19
30.7927  3.70362e+19
30.91  3.27702e+19
31.0273  2.90327e+19
31.1446  2.59528e+19
31.2619  2.36581e+19
31.3792  2.21291e+19
31.4965  2.1356e+19
31.6138  2.12907e+19
31.7311  2.18663e+19
31.8484  2.30332e+19
31.9657  2.47554e+19
32.083  2.69587e+19
32.2003  2.95793e+19
32.3176  3.25306e+19
32.4349  3.56952e+19
32.5522  3.89726e+19
32.6695  4.22261e+19
32.7868  4.53727e+19
32.9042  4.83122e+19
33.0215  5.09443e+19
33.1388  5.32403e+19
33.2561  5.50664e+19
33.3734  5.63869e+19
33.4907  5.70939e+19
33.608  5.71587e+19
33.7253  5.65621e+19
33.8426  5.52487e+19
33.9599  5.3325e+19
34.0772  5.08071e+19
34.1945  4.78252e+19
34.3118  4.44847e+19
34.4291  4.08866e+19
34.5464  3.71175e+19
34.6637  3.32771e+19
34.781  2.9497e+19
34.8983  2.58996e+19
35.0156  2.26464e+19
35.1329  1.99122e+19
35.2503  1.78525e+19
35.3676  1.65838e+19
35.4849  1.61216e+19
35.6022  1.63948e+19
35.7195  1.72235e+19
35.8368  1.83811e+19
35.9541  1.95966e+19
36.0714  2.07017e+19
36.1887  2.15722e+19
36.306  2.22763e+19
36.4233  2.29708e+19
36.5406  2.38573e+19
36.6579  2.51052e+19
36.7752  2.68074e+19
36.8925  2.88269e+19
37.0098  3.08483e+19
37.1271  3.24191e+19
37.2444  3.29977e+19
37.3617  3.21638e+19
37.479  2.96951e+19
37.5964  2.56717e+19
37.7137  2.05155e+19
37.831  1.49315e+19
37.9483  9.81635e+18
38.0656  5.97557e+18
38.1829  4.08079e+18
38.3002  4.41109e+18
38.4175  6.85409e+18
38.5348  1.08833e+19
38.6521  1.56992e+19
38.7694  2.03819e+19
38.8867  2.40665e+19
39.004  2.61358e+19
39.1213  2.62929e+19
39.2386  2.46332e+19
39.3559  2.15428e+19
39.4732  1.76283e+19
39.5905  1.35582e+19
39.7078  9.95909e+18
39.8251  7.3103e+18
39.9425  5.88923e+18
40.0598  5.77417e+18
40.1771  6.88003e+18
40.2944  9.01342e+18
40.4117  1.19263e+19
40.529  1.5366e+19
40.6463  1.91141e+19
40.7636  2.29672e+19
40.8809  2.67525e+19
40.9982  3.03852e+19
41.1155  3.37519e+19
41.2328  3.67916e+19
41.3501  3.94062e+19
41.4674  4.1547e+19
41.5847  4.31017e+19
41.702  4.39247e+19
41.8193  4.38921e+19
41.9366  4.28257e+19
42.0539  4.06423e+19
42.1712  3.73202e+19
42.2885  3.29756e+19
42.4059  2.79167e+19
42.5232  2.25777e+19
42.6405  1.75556e+19
42.7578  1.34035e+19
42.8751  1.06329e+19
42.9924  9.55491e+18
43.1097  1.02081e+19
43.227  1.23699e+19
43.3443  1.55709e+19
43.4616  1.92176e+19
43.5789  2.26928e+19
43.6962  2.5515e+19
43.8135  2.7362e+19
43.9308  2.81979e+19
44.0481  2.8117e+19
44.1654  2.73612e+19
44.2827  2.62397e+19
44.4  2.4977e+19
44.5173  2.37082e+19
44.6347  2.24672e+19
44.752  2.12398e+19
44.8693  1.99679e+19
44.9866  1.86806e+19
45.1039  1.74411e+19
45.2212  1.64147e+19
45.3385  1.5755e+19
45.4558  1.55651e+19
45.5731  1.58429e+19
45.6904  1.64196e+19
45.8077  1.70491e+19
45.925  1.73595e+19
46.0423  1.705e+19
46.1596  1.59007e+19
46.2769  1.39127e+19
46.3942  1.12626e+19
46.5115  8.31174e+18
46.6288  5.51329e+18
46.7461  3.31364e+18
46.8634  2.05793e+18
46.9808  1.907e+18
47.0981  2.8323e+18
47.2154  4.61668e+18
47.3327  6.94506e+18
47.45  9.43401e+18
47.5673  1.17741e+19
47.6846  1.37512e+19
47.8019  1.52363e+19
47.9192  1.62045e+19
48.0365  1.67299e+19
48.1538  1.68941e+19
48.2711  1.67836e+19
48.3884  1.64085e+19
48.5057  1.58113e+19
48.623  1.49331e+19
48.7403  1.37609e+19
48.8576  1.23129e+19
48.9749  1.0602e+19
49.0922  8.72591e+18
49.2095  6.83848e+18
49.3269  5.15958e+18
49.4442  3.91313e+18
49.5615  3.34156e+18
49.6788  3.61956e+18
49.7961  4.84878e+18
49.9134  6.98503e+18
50.0307  9.85623e+18
50.148  1.31483e+19
50.2653  1.6415e+19
50.3826  1.91862e+19
50.4999  2.1039e+19
50.6172  2.16321e+19
50.7345  2.08393e+19
50.8518  1.87426e+19
