#S 1 spectral density
#N 2
#UFWHM 9.50171
#L  abscissas [um]  spectral density
-58.5938  5.92108e+18
-58.4764  6.36444e+18
-58.3591  6.91366e+18
-58.2418  7.52082e+18
-58.1245  8.08827e+18
-58.0072  8.44055e+18
-57.8899  8.4376e+18
-57.7726  8.03019e+18
-57.6553  7.27539e+18
-57.538  6.38891e+18
-57.4207  5.66502e+18
-57.3034  5.395e+18
-57.1861  5.78866e+18
-57.0688  6.89049e+18
-56.9515  8.54883e+18
-56.8342  1.04233e+19
-56.7169  1.20788e+19
-56.5996  1.31014e+19
-56.4823  1.31788e+19
-56.365  1.22086e+19
-56.2477  1.0347e+19
-56.1303  7.89718e+18
-56.013  5.31833e+18
-55.8957  3.0646e+18
-55.7784  1.51001e+18
-55.6611  8.66194e+17
-55.5438  1.16713e+18
-55.4265  2.28723e+18
-55.3092  4.0158e+18
-55.1919  6.10456e+18
-55.0746  8.3481e+18
-54.9573  1.0595e+19
-54.84  1.27758e+19
-54.7227  1.48297e+19
-54.6054  1.67633e+19
-54.4881  1.85255e+19
-54.3708  2.00494e+19
-54.2535  2.12132e+19
-54.1362  2.18989e+19
-54.0189  2.1995e+19
-53.9016  2.14591e+19
-53.7842  2.02945e+19
-53.6669  1.85963e+19
-53.5496  1.64672e+19
-53.4323  1.41103e+19
-53.315  1.17033e+19
-53.1977  9.44588e+18
-53.0804  7.52424e+18
-52.9631  6.07858e+18
-52.8458  5.21376e+18
-52.7285  4.97877e+18
-52.6112  5.35872e+18
-52.4939  6.26223e+18
-52.3766  7.5445e+18
-52.2593  8.97748e+18
-52.142  1.03451e+19
-52.0247  1.14276e+19
-51.9074  1.2068e+19
-51.7901  1.21938e+19
-51.6728  1.18251e+19
-51.5555  1.10908e+19
-51.4381  1.01802e+19
-51.3208  9.28689e+18
-51.2035  8.62283e+18
-51.0862  8.32045e+18
-50.9689  8.46559e+18
-50.8516  9.05159e+18
-50.7343  9.99559e+18
-50.617  1.11921e+19
-50.4997  1.25087e+19
-50.3824  1.37959e+19
-50.2651  1.49489e+19
-50.1478  1.58325e+19
-50.0305  1.64104e+19
-49.9132  1.65913e+19
-49.7959  1.63753e+19
-49.6786  1.57873e+19
-49.5613  1.48736e+19
-49.444  1.37014e+19
-49.3267  1.23826e+19
-49.2094  1.10126e+19
-49.092  9.66938e+18
-48.9747  8.41382e+18
-48.8574  7.29368e+18
-48.7401  6.31128e+18
-48.6228  5.47404e+18
-48.5055  4.77816e+18
-48.3882  4.22878e+18
-48.2709  3.85109e+18
-48.1536  3.66663e+18
-48.0363  3.69152e+18
-47.919  3.92554e+18
-47.8017  4.34546e+18
-47.6844  4.91763e+18
-47.5671  5.6141e+18
-47.4498  6.43481e+18
-47.3325  7.39016e+18
-47.2152  8.55017e+18
-47.0979  9.96659e+18
-46.9806  1.16936e+19
-46.8633  1.37098e+19
-46.7459  1.58935e+19
-46.6286  1.80748e+19
-46.5113  1.99677e+19
-46.394  2.13443e+19
-46.2767  2.19663e+19
-46.1594  2.17354e+19
-46.0421  2.07275e+19
-45.9248  1.9113e+19
-45.8075  1.71616e+19
-45.6902  1.5176e+19
-45.5729  1.3352e+19
-45.4556  1.18201e+19
-45.3383  1.05281e+19
-45.221  9.33147e+18
-45.1037  8.05842e+18
-44.9864  6.59759e+18
-44.8691  4.97161e+18
-44.7518  3.38322e+18
-44.6345  2.18532e+18
-44.5172  1.79704e+18
-44.3998  2.60517e+18
-44.2825  4.82849e+18
-44.1652  8.44245e+18
-44.0479  1.31328e+19
-43.9306  1.83707e+19
-43.8133  2.34754e+19
-43.696  2.78157e+19
-43.5787  3.0892e+19
-43.4614  3.24436e+19
-43.3441  3.25113e+19
-43.2268  3.14118e+19
-43.1095  2.95884e+19
-42.9922  2.75309e+19
-42.8749  2.56753e+19
-42.7576  2.42833e+19
-42.6403  2.33797e+19
-42.523  2.28766e+19
-42.4057  2.25302e+19
-42.2884  2.20782e+19
-42.171  2.131e+19
-42.0537  2.01634e+19
-41.9364  1.86595e+19
-41.8191  1.69839e+19
-41.7018  1.53833e+19
-41.5845  1.41788e+19
-41.4672  1.36548e+19
-41.3499  1.40306e+19
-41.2326  1.54219e+19
-41.1153  1.78205e+19
-40.998  2.10723e+19
-40.8807  2.4897e+19
-40.7634  2.88564e+19
-40.6461  3.25223e+19
-40.5288  3.537e+19
-40.4115  3.70269e+19
-40.2942  3.72273e+19
-40.1769  3.58699e+19
-40.0596  3.30945e+19
-39.9423  2.92465e+19
-39.825  2.47891e+19
-39.7076  2.02289e+19
-39.5903  1.6044e+19
-39.473  1.25574e+19
-39.3557  9.92352e+18
-39.2384  8.12446e+18
-39.1211  7.00335e+18
-39.0038  6.36884e+18
-38.8865  6.06398e+18
-38.7692  6.04922e+18
-38.6519  6.38179e+18
-38.5346  7.22525e+18
-38.4173  8.74125e+18
-38.3  1.10326e+19
-38.1827  1.40245e+19
-38.0654  1.74414e+19
-37.9481  2.08534e+19
-37.8308  2.3701e+19
-37.7135  2.54887e+19
-37.5962  2.58225e+19
-37.4789  2.46073e+19
-37.3615  2.20908e+19
-37.2442  1.87668e+19
-37.1269  1.53628e+19
-37.0096  1.26336e+19
-36.8923  1.12536e+19
-36.775  1.16355e+19
-36.6577  1.38607e+19
-36.5404  1.76969e+19
-36.4231  2.26176e+19
-36.3058  2.79499e+19
-36.1885  3.30027e+19
-36.0712  3.72109e+19
-35.9539  4.01914e+19
-35.8366  4.18362e+19
-35.7193  4.22069e+19
-35.602  4.15415e+19
-35.4847  4.02053e+19
-35.3674  3.85407e+19
-35.2501  3.6827e+19
-35.1328  3.52672e+19
-35.0154  3.39802e+19
-34.8981  3.29987e+19
-34.7808  3.23023e+19
-34.6635  3.17957e+19
-34.5462  3.1382e+19
-34.4289  3.09761e+19
-34.3116  3.04217e+19
-34.1943  2.96091e+19
-34.077  2.84595e+19
-33.9597  2.69051e+19
-33.8424  2.49801e+19
-33.7251  2.27663e+19
-33.6078  2.04618e+19
-33.4905  1.82972e+19
-33.3732  1.65444e+19
-33.2559  1.54642e+19
-33.1386  1.52503e+19
-33.0213  1.60183e+19
-32.904  1.77871e+19
-32.7867  2.04761e+19
-32.6693  2.38939e+19
-32.552  2.78401e+19
-32.4347  3.201e+19
-32.3174  3.61844e+19
-32.2001  4.009e+19
-32.0828  4.35136e+19
-31.9655  4.62711e+19
-31.8482  4.82262e+19
-31.7309  4.93042e+19
-31.6136  4.94945e+19
-31.4963  4.88688e+19
-31.379  4.75726e+19
-31.2617  4.5854e+19
-31.1444  4.3981e+19
-31.0271  4.22481e+19
-30.9098  4.10099e+19
-30.7925  4.04367e+19
-30.6752  4.07362e+19
-30.5579  4.19449e+19
-30.4406  4.40295e+19
-30.3232  4.68729e+19
-30.2059  5.02195e+19
-30.0886  5.38057e+19
-29.9713  5.73731e+19
-29.854  6.06428e+19
-29.7367  6.33071e+19
-29.6194  6.5244e+19
-29.5021  6.63402e+19
-29.3848  6.65975e+19
-29.2675  6.61654e+19
-29.1502  6.52326e+19
-29.0329  6.41195e+19
-28.9156  6.31643e+19
-28.7983  6.26663e+19
-28.681  6.29244e+19
-28.5637  6.40637e+19
-28.4464  6.61644e+19
-28.3291  6.91176e+19
-28.2118  7.27023e+19
-28.0944  7.66793e+19
-27.9771  8.07295e+19
-27.8598  8.45574e+19
-27.7425  8.79528e+19
-27.6252  9.06235e+19
-27.5079  9.25401e+19
-27.3906  9.35928e+19
-27.2733  9.38199e+19
-27.156  9.33202e+19
-27.0387  9.21725e+19
-26.9214  9.06348e+19
-26.8041  8.89439e+19
-26.6868  8.73854e+19
-26.5695  8.61889e+19
-26.4522  8.56086e+19
-26.3349  8.58505e+19
-26.2176  8.69072e+19
-26.1003  8.88411e+19
-25.983  9.14688e+19
-25.8657  9.45651e+19
-25.7483  9.79647e+19
-25.631  1.01395e+20
-25.5137  1.04789e+20
-25.3964  1.0802e+20
-25.2791  1.11092e+20
-25.1618  1.14088e+20
-25.0445  1.17214e+20
-24.9272  1.20556e+20
-24.8099  1.24391e+20
-24.6926  1.28899e+20
-24.5753  1.34267e+20
-24.458  1.4064e+20
-24.3407  1.48164e+20
-24.2234  1.56812e+20
-24.1061  1.666e+20
-23.9888  1.77273e+20
-23.8715  1.88547e+20
-23.7542  1.99879e+20
-23.6369  2.10833e+20
-23.5196  2.20841e+20
-23.4023  2.29304e+20
-23.2849  2.35829e+20
-23.1676  2.4017e+20
-23.0503  2.42206e+20
-22.933  2.42208e+20
-22.8157  2.40393e+20
-22.6984  2.37323e+20
-22.5811  2.33684e+20
-22.4638  2.30191e+20
-22.3465  2.2775e+20
-22.2292  2.27111e+20
-22.1119  2.29076e+20
-21.9946  2.34192e+20
-21.8773  2.42907e+20
-21.76  2.55327e+20
-21.6427  2.71139e+20
-21.5254  2.89775e+20
-21.4081  3.10289e+20
-21.2908  3.31604e+20
-21.1735  3.52536e+20
-21.0561  3.71941e+20
-20.9388  3.88814e+20
-20.8215  4.02344e+20
-20.7042  4.12371e+20
-20.5869  4.18767e+20
-20.4696  4.21798e+20
-20.3523  4.21883e+20
-20.235  4.19615e+20
-20.1177  4.15616e+20
-20.0004  4.10506e+20
-19.8831  4.04578e+20
-19.7658  3.98572e+20
-19.6485  3.92745e+20
-19.5312  3.87569e+20
-19.4139  3.83327e+20
-19.2966  3.80466e+20
-19.1793  3.79339e+20
-19.062  3.80341e+20
-18.9447  3.83875e+20
-18.8274  3.90395e+20
-18.71  4.00281e+20
-18.5927  4.14117e+20
-18.4754  4.32298e+20
-18.3581  4.55112e+20
-18.2408  4.82907e+20
-18.1235  5.15587e+20
-18.0062  5.52891e+20
-17.8889  5.94077e+20
-17.7716  6.38024e+20
-17.6543  6.83478e+20
-17.537  7.2864e+20
-17.4197  7.71852e+20
-17.3024  8.11476e+20
-17.1851  8.46057e+20
-17.0678  8.74475e+20
-16.9505  8.96048e+20
-16.8332  9.1066e+20
-16.7159  9.18567e+20
-16.5986  9.20487e+20
-16.4813  9.17581e+20
-16.364  9.11205e+20
-16.2466  9.0294e+20
-16.1293  8.94089e+20
-16.012  8.86364e+20
-15.8947  8.80764e+20
-15.7774  8.78384e+20
-15.6601  8.79737e+20
-15.5428  8.85043e+20
-15.4255  8.93955e+20
-15.3082  9.06074e+20
-15.1909  9.20608e+20
-15.0736  9.36546e+20
-14.9563  9.52822e+20
-14.839  9.68765e+20
-14.7217  9.83403e+20
-14.6044  9.96448e+20
-14.4871  1.0078e+21
-14.3698  1.01769e+21
-14.2525  1.02644e+21
-14.1352  1.03474e+21
-14.0178  1.04354e+21
-13.9005  1.05355e+21
-13.7832  1.06567e+21
-13.6659  1.08056e+21
-13.5486  1.09894e+21
-13.4313  1.12118e+21
-13.314  1.14748e+21
-13.1967  1.17771e+21
-13.0794  1.21191e+21
-12.9621  1.24932e+21
-12.8448  1.28956e+21
-12.7275  1.33162e+21
-12.6102  1.37496e+21
-12.4929  1.41869e+21
-12.3756  1.46207e+21
-12.2583  1.50479e+21
-12.141  1.54667e+21
-12.0237  1.58772e+21
-11.9064  1.6283e+21
-11.7891  1.66916e+21
-11.6718  1.71122e+21
-11.5544  1.75556e+21
-11.4371  1.80331e+21
-11.3198  1.85529e+21
-11.2025  1.91228e+21
-11.0852  1.97481e+21
-10.9679  2.04287e+21
-10.8506  2.11607e+21
-10.7333  2.19341e+21
-10.616  2.27375e+21
-10.4987  2.35581e+21
-10.3814  2.43772e+21
-10.2641  2.51796e+21
-10.1468  2.59544e+21
-10.0295  2.66929e+21
-9.91217  2.73889e+21
-9.79487  2.80494e+21
-9.67756  2.86826e+21
-9.56026  2.93031e+21
-9.44295  2.99313e+21
-9.32565  3.05948e+21
-9.20834  3.13167e+21
-9.09104  3.21236e+21
-8.97373  3.3039e+21
-8.85643  3.40846e+21
-8.73913  3.52706e+21
-8.62182  3.66052e+21
-8.50452  3.8087e+21
-8.38721  3.97078e+21
-8.26991  4.1447e+21
-8.1526  4.32853e+21
-8.03529  4.51887e+21
-7.91799  4.71279e+21
-7.80069  4.90705e+21
-7.68338  5.09843e+21
-7.56608  5.28457e+21
-7.44877  5.46368e+21
-7.33146  5.63457e+21
-7.21416  5.797e+21
-7.09685  5.95176e+21
-6.97955  6.10013e+21
-6.86224  6.24416e+21
-6.74494  6.38662e+21
-6.62763  6.52943e+21
-6.51033  6.67553e+21
-6.39302  6.82738e+21
-6.27572  6.98688e+21
-6.15842  7.15585e+21
-6.04111  7.33541e+21
-5.92381  7.52637e+21
-5.8065  7.72955e+21
-5.68919  7.9448e+21
-5.57189  8.17242e+21
-5.45458  8.41244e+21
-5.33728  8.66503e+21
-5.21997  8.93005e+21
-5.10267  9.20794e+21
-4.98536  9.49838e+21
-4.86806  9.80119e+21
-4.75075  1.01158e+22
-4.63345  1.04413e+22
-4.51614  1.0776e+22
-4.39884  1.11173e+22
-4.28154  1.14629e+22
-4.16423  1.18093e+22
-4.04692  1.21524e+22
-3.92962  1.24886e+22
-3.81231  1.28147e+22
-3.69501  1.31268e+22
-3.5777  1.34226e+22
-3.4604  1.37003e+22
-3.34309  1.39591e+22
-3.22579  1.41991e+22
-3.10849  1.44222e+22
-2.99118  1.46303e+22
-2.87387  1.48271e+22
-2.75657  1.5017e+22
-2.63926  1.52036e+22
-2.52196  1.53919e+22
-2.40465  1.55862e+22
-2.28735  1.57898e+22
-2.17005  1.60058e+22
-2.05274  1.62363e+22
-1.93544  1.64815e+22
-1.81813  1.67418e+22
-1.70083  1.70153e+22
-1.58352  1.72997e+22
-1.46622  1.75916e+22
-1.34891  1.78868e+22
-1.2316  1.81807e+22
-1.1143  1.84684e+22
-0.996995  1.87445e+22
-0.87969  1.90043e+22
-0.762385  1.92423e+22
-0.64508  1.94547e+22
-0.527775  1.96376e+22
-0.41047  1.97873e+22
-0.293165  1.99014e+22
-0.17586  1.99781e+22
-0.058555  2.00161e+22
0.05875  2.00149e+22
0.176055  1.99742e+22
0.29336  1.9895e+22
0.410665  1.97785e+22
0.52797  1.96264e+22
0.645275  1.94415e+22
0.76258  1.92272e+22
0.879885  1.89875e+22
0.99719  1.87264e+22
1.1145  1.84489e+22
1.2318  1.81601e+22
1.3491  1.78653e+22
1.46641  1.75692e+22
1.58371  1.72764e+22
1.70102  1.69913e+22
1.81832  1.6717e+22
1.93563  1.6456e+22
2.05294  1.62097e+22
2.17024  1.59787e+22
2.28754  1.57619e+22
2.40485  1.55573e+22
2.52216  1.53623e+22
2.63946  1.5173e+22
2.75677  1.49853e+22
2.87407  1.47948e+22
2.99137  1.45968e+22
3.10868  1.43877e+22
3.22599  1.41637e+22
3.34329  1.39228e+22
3.4606  1.36634e+22
3.5779  1.33849e+22
3.69521  1.30884e+22
3.81251  1.27757e+22
3.92982  1.24492e+22
4.04712  1.21123e+22
4.16443  1.17688e+22
4.28173  1.14222e+22
4.39903  1.10764e+22
4.51634  1.07349e+22
4.63364  1.04004e+22
4.75095  1.0075e+22
4.86825  9.76069e+21
4.98556  9.45819e+21
5.10286  9.16847e+21
5.22017  8.8912e+21
5.33748  8.62692e+21
5.45478  8.37525e+21
5.57209  8.1362e+21
5.68939  7.9096e+21
5.8067  7.69535e+21
5.924  7.49313e+21
6.0413  7.30315e+21
6.15861  7.12439e+21
6.27591  6.95608e+21
6.39322  6.79731e+21
6.51052  6.64598e+21
6.62783  6.50002e+21
6.74514  6.35731e+21
6.86244  6.21535e+21
6.97975  6.07116e+21
7.09705  5.92287e+21
7.21436  5.76823e+21
7.33166  5.60571e+21
7.44897  5.43516e+21
7.56627  5.25653e+21
7.68358  5.07077e+21
7.80088  4.87995e+21
7.91819  4.68636e+21
8.03549  4.49335e+21
8.1528  4.30402e+21
8.2701  4.12124e+21
8.38741  3.94822e+21
8.50471  3.78718e+21
8.62202  3.64007e+21
8.73932  3.50735e+21
8.85662  3.38958e+21
8.97393  3.28583e+21
9.09123  3.19483e+21
9.20854  3.11469e+21
9.32584  3.04304e+21
9.44315  2.97714e+21
9.56045  2.91451e+21
9.67776  2.85288e+21
9.79506  2.78992e+21
9.91237  2.72422e+21
10.0297  2.65499e+21
10.147  2.58177e+21
10.2643  2.50485e+21
10.3816  2.42509e+21
10.4989  2.34384e+21
10.6162  2.26245e+21
10.7335  2.18271e+21
10.8508  2.10597e+21
10.9681  2.0334e+21
11.0854  1.96597e+21
11.2027  1.90397e+21
11.32  1.8473e+21
11.4373  1.79566e+21
11.5546  1.74823e+21
11.6719  1.70403e+21
11.7893  1.66217e+21
11.9066  1.62145e+21
12.0239  1.58081e+21
12.1412  1.53996e+21
12.2585  1.49825e+21
12.3758  1.45561e+21
12.4931  1.41236e+21
12.6104  1.36878e+21
12.7277  1.32569e+21
12.845  1.28386e+21
12.9623  1.24385e+21
13.0796  1.20674e+21
13.1969  1.17285e+21
13.3142  1.14292e+21
13.4315  1.11692e+21
13.5488  1.09502e+21
13.6661  1.07696e+21
13.7834  1.06234e+21
13.9007  1.05055e+21
14.018  1.0409e+21
14.1354  1.03242e+21
14.2527  1.02434e+21
14.37  1.01592e+21
14.4873  1.00626e+21
14.6046  9.95143e+20
14.7219  9.82269e+20
14.8392  9.6785e+20
14.9565  9.52172e+20
15.0738  9.35976e+20
15.1911  9.20262e+20
15.3084  9.05841e+20
15.4257  8.93732e+20
15.543  8.84816e+20
15.6603  8.79572e+20
15.7776  8.78326e+20
15.8949  8.80705e+20
16.0122  8.86283e+20
16.1295  8.93989e+20
16.2468  9.0263e+20
16.3641  9.10813e+20
16.4815  9.17012e+20
16.5988  9.19727e+20
16.7161  9.17462e+20
16.8334  9.09397e+20
16.9507  8.94509e+20
17.068  8.72714e+20
17.1853  8.44105e+20
17.3026  8.09393e+20
17.4199  7.69621e+20
17.5372  7.26312e+20
17.6545  6.81122e+20
17.7718  6.35858e+20
17.8891  5.91976e+20
18.0064  5.51064e+20
18.1237  5.14009e+20
18.241  4.81556e+20
18.3583  4.54047e+20
18.4756  4.31496e+20
18.5929  4.1365e+20
18.7102  4.00043e+20
18.8275  3.90379e+20
18.9449  3.84126e+20
19.0622  3.80768e+20
19.1795  3.79956e+20
19.2968  3.81169e+20
19.4141  3.84146e+20
19.5314  3.88429e+20
19.6487  3.93619e+20
19.766  3.99482e+20
19.8833  4.05456e+20
20.0006  4.11255e+20
20.1179  4.16351e+20
20.2352  4.20285e+20
20.3525  4.22416e+20
20.4698  4.22161e+20
20.5871  4.1894e+20
20.7044  4.12405e+20
20.8217  4.02229e+20
20.939  3.88465e+20
21.0563  3.71448e+20
21.1736  3.51877e+20
21.291  3.30841e+20
21.4083  3.09436e+20
21.5256  2.88844e+20
21.6429  2.70238e+20
21.7602  2.5449e+20
21.8775  2.42197e+20
21.9948  2.33607e+20
22.1121  2.28586e+20
22.2294  2.26744e+20
22.3467  2.27563e+20
22.464  2.30112e+20
22.5813  2.33678e+20
22.6986  2.374e+20
22.8159  2.40515e+20
22.9332  2.42342e+20
23.0505  2.42381e+20
23.1678  2.40278e+20
23.2851  2.35927e+20
23.4024  2.29315e+20
23.5198  2.20844e+20
23.6371  2.10806e+20
23.7544  1.99824e+20
23.8717  1.88468e+20
23.989  1.77227e+20
24.1063  1.66583e+20
24.2236  1.56825e+20
24.3409  1.4818e+20
24.4582  1.40741e+20
24.5755  1.34365e+20
24.6928  1.29035e+20
24.8101  1.24551e+20
24.9274  1.20737e+20
25.0447  1.17348e+20
25.162  1.14197e+20
25.2793  1.11134e+20
25.3966  1.07976e+20
25.5139  1.04695e+20
25.6312  1.01248e+20
25.7485  9.7718e+19
25.8658  9.42975e+19
25.9832  9.11207e+19
26.1005  8.85315e+19
26.2178  8.66292e+19
26.3351  8.5556e+19
26.4524  8.53728e+19
26.5697  8.59785e+19
26.687  8.71936e+19
26.8043  8.87949e+19
26.9216  9.04789e+19
27.0389  9.19902e+19
27.1562  9.30897e+19
27.2735  9.35524e+19
27.3908  9.32467e+19
27.5081  9.21371e+19
27.6254  9.01763e+19
27.7427  8.74575e+19
27.86  8.40705e+19
27.9773  8.02386e+19
28.0946  7.6241e+19
28.212  7.23114e+19
28.3293  6.88034e+19
28.4466  6.59363e+19
28.5639  6.39352e+19
28.6812  6.28877e+19
28.7985  6.27155e+19
28.9158  6.32732e+19
29.0331  6.42762e+19
29.1504  6.54083e+19
29.2677  6.63339e+19
29.385  6.67593e+19
29.5023  6.64601e+19
29.6196  6.53119e+19
29.7369  6.33274e+19
29.8542  6.06163e+19
29.9715  5.73617e+19
30.0888  5.37824e+19
30.2061  5.01849e+19
30.3234  4.68618e+19
30.4407  4.40903e+19
30.558  4.2054e+19
30.6754  4.08945e+19
30.7927  4.06461e+19
30.91  4.12484e+19
31.0273  4.25449e+19
31.1446  4.42493e+19
31.2619  4.61156e+19
31.3792  4.78021e+19
31.4965  4.90545e+19
31.6138  4.96488e+19
31.7311  4.94055e+19
31.8484  4.82761e+19
31.9657  4.62875e+19
32.083  4.35057e+19
32.2003  4.00581e+19
32.3176  3.6139e+19
32.4349  3.19654e+19
32.5522  2.77822e+19
32.6695  2.38388e+19
32.7868  2.0419e+19
32.9042  1.77411e+19
33.0215  1.59664e+19
33.1388  1.52061e+19
33.2561  1.54156e+19
33.3734  1.65022e+19
33.4907  1.82465e+19
33.608  2.04034e+19
33.7253  2.27211e+19
33.8426  2.49211e+19
33.9599  2.68676e+19
34.0772  2.84311e+19
34.1945  2.96022e+19
34.3118  3.04382e+19
34.4291  3.10204e+19
34.5464  3.14639e+19
34.6637  3.18837e+19
34.781  3.24209e+19
34.8983  3.31504e+19
35.0156  3.41513e+19
35.1329  3.54529e+19
35.2503  3.70159e+19
35.3676  3.87558e+19
35.4849  4.04142e+19
35.6022  4.17286e+19
35.7195  4.23502e+19
35.8368  4.19591e+19
35.9541  4.02667e+19
36.0714  3.72297e+19
36.1887  3.29924e+19
36.306  2.78986e+19
36.4233  2.25392e+19
36.5406  1.76153e+19
36.6579  1.37941e+19
36.7752  1.15746e+19
36.8925  1.12027e+19
37.0098  1.25834e+19
37.1271  1.52988e+19
37.2444  1.86807e+19
37.3617  2.19758e+19
37.479  2.4458e+19
37.5964  2.56231e+19
37.7137  2.52709e+19
37.831  2.34691e+19
37.9483  2.06367e+19
38.0656  1.72388e+19
38.1829  1.38585e+19
38.3002  1.09122e+19
38.4175  8.6737e+18
38.5348  7.20092e+18
38.6521  6.39576e+18
38.7694  6.0936e+18
38.8867  6.13178e+18
39.004  6.44761e+18
39.1213  7.09213e+18
39.2386  8.22978e+18
39.3559  1.00588e+19
39.4732  1.27206e+19
39.5905  1.62432e+19
39.7078  2.04629e+19
39.8251  2.50399e+19
39.9425  2.95142e+19
40.0598  3.33468e+19
40.1771  3.6102e+19
40.2944  3.74301e+19
40.4117  3.71965e+19
40.529  3.54798e+19
40.6463  3.25829e+19
40.7636  2.88969e+19
40.8809  2.48825e+19
40.9982  2.10631e+19
41.1155  1.78122e+19
41.2328  1.54307e+19
41.3501  1.4058e+19
41.4674  1.37172e+19
41.5847  1.42781e+19
41.702  1.55079e+19
41.8193  1.71325e+19
41.9366  1.88233e+19
42.0539  2.0334e+19
42.1712  2.14866e+19
42.2885  2.22389e+19
42.4059  2.26783e+19
42.5232  2.30123e+19
42.6405  2.35034e+19
42.7578  2.4392e+19
42.8751  2.57789e+19
42.9924  2.76261e+19
43.1097  2.96511e+19
43.227  3.14569e+19
43.3443  3.25289e+19
43.4616  3.24055e+19
43.5789  3.07993e+19
43.6962  2.76961e+19
43.8135  2.3318e+19
43.9308  1.81971e+19
44.0481  1.29738e+19
44.1654  8.29878e+18
44.2827  4.72733e+18
44.4  2.55491e+18
44.5173  1.79765e+18
44.6347  2.22795e+18
44.752  3.46033e+18
44.8693  5.06795e+18
44.9866  6.69607e+18
45.1039  8.16277e+18
45.2212  9.42712e+18
45.3385  1.06198e+19
45.4558  1.19217e+19
45.5731  1.34657e+19
45.6904  1.52765e+19
45.8077  1.72776e+19
45.925  1.92168e+19
46.0423  2.08168e+19
46.1596  2.17992e+19
46.2769  2.19891e+19
46.3942  2.13557e+19
46.5115  1.99613e+19
46.6288  1.8054e+19
46.7461  1.58735e+19
46.8634  1.36891e+19
46.9808  1.16977e+19
47.0981  9.98342e+18
47.2154  8.57257e+18
47.3327  7.41473e+18
47.45  6.46187e+18
47.5673  5.64517e+18
47.6846  4.94889e+18
47.8019  4.37022e+18
47.9192  3.95097e+18
48.0365  3.71361e+18
48.1538  3.68356e+18
48.2711  3.85976e+18
48.3884  4.22695e+18
48.5057  4.76341e+18
48.623  5.45171e+18
48.7403  6.282e+18
48.8576  7.26841e+18
48.9749  8.40635e+18
49.0922  9.67968e+18
49.2095  1.10449e+19
49.3269  1.24564e+19
49.4442  1.37987e+19
49.5615  1.49948e+19
49.6788  1.59208e+19
49.7961  1.65153e+19
49.9134  1.67012e+19
50.0307  1.64943e+19
50.148  1.59052e+19
50.2653  1.49846e+19
50.3826  1.38206e+19
50.4999  1.25109e+19
50.6172  1.11924e+19
50.7345  1.00004e+19
