#S 1 spectral density
#N 2
#UFWHM 18.4169
#L  abscissas [um]  spectral density
-58.5938  1.34491e+19
-58.4764  1.56212e+19
-58.3591  1.76988e+19
-58.2418  1.95547e+19
-58.1245  2.09618e+19
-58.0072  2.17182e+19
-57.8899  2.16455e+19
-57.7726  2.0678e+19
-57.6553  1.89369e+19
-57.538  1.6643e+19
-57.4207  1.41341e+19
-57.3034  1.1801e+19
-57.1861  9.96023e+18
-57.0688  8.80918e+18
-56.9515  8.34467e+18
-56.8342  8.43346e+18
-56.7169  8.80664e+18
-56.5996  9.15718e+18
-56.4823  9.23798e+18
-56.365  8.93037e+18
-56.2477  8.21458e+18
-56.1303  7.24711e+18
-56.013  6.24434e+18
-55.8957  5.43468e+18
-55.7784  4.97503e+18
-55.6611  4.94036e+18
-55.5438  5.28113e+18
-55.4265  5.88052e+18
-55.3092  6.55586e+18
-55.1919  7.14804e+18
-55.0746  7.54771e+18
-54.9573  7.71867e+18
-54.84  7.69917e+18
-54.7227  7.57568e+18
-54.6054  7.44923e+18
-54.4881  7.3977e+18
-54.3708  7.45669e+18
-54.2535  7.6611e+18
-54.1362  7.99293e+18
-54.0189  8.42923e+18
-53.9016  8.94716e+18
-53.7842  9.55197e+18
-53.6669  1.02193e+19
-53.5496  1.09697e+19
-53.4323  1.17793e+19
-53.315  1.26215e+19
-53.1977  1.34408e+19
-53.0804  1.4159e+19
-52.9631  1.47297e+19
-52.8458  1.50757e+19
-52.7285  1.51707e+19
-52.6112  1.49912e+19
-52.4939  1.45581e+19
-52.3766  1.38879e+19
-52.2593  1.30228e+19
-52.142  1.19919e+19
-52.0247  1.08373e+19
-51.9074  9.61383e+18
-51.7901  8.38388e+18
-51.6728  7.23542e+18
-51.5555  6.26011e+18
-51.4381  5.55431e+18
-51.3208  5.21218e+18
-51.2035  5.30897e+18
-51.0862  5.90652e+18
-50.9689  7.04274e+18
-50.8516  8.75272e+18
-50.7343  1.10638e+19
-50.617  1.40046e+19
-50.4997  1.75934e+19
-50.3824  2.18279e+19
-50.2651  2.66702e+19
-50.1478  3.20358e+19
-50.0305  3.77182e+19
-49.9132  4.35278e+19
-49.7959  4.91495e+19
-49.6786  5.42539e+19
-49.5613  5.85028e+19
-49.444  6.15682e+19
-49.3267  6.3185e+19
-49.2094  6.3234e+19
-49.092  6.16309e+19
-48.9747  5.84536e+19
-48.8574  5.38162e+19
-48.7401  4.80037e+19
-48.6228  4.1329e+19
-48.5055  3.41818e+19
-48.3882  2.70392e+19
-48.2709  2.02862e+19
-48.1536  1.43338e+19
-48.0363  9.51497e+18
-47.919  6.07269e+18
-47.8017  4.13866e+18
-47.6844  3.76089e+18
-47.5671  4.89339e+18
-47.4498  7.42337e+18
-47.3325  1.12037e+19
-47.2152  1.6023e+19
-47.0979  2.1658e+19
-46.9806  2.78144e+19
-46.8633  3.41638e+19
-46.7459  4.03297e+19
-46.6286  4.58675e+19
-46.5113  5.04155e+19
-46.394  5.35859e+19
-46.2767  5.52495e+19
-46.1594  5.53457e+19
-46.0421  5.40258e+19
-45.9248  5.16213e+19
-45.8075  4.85807e+19
-45.6902  4.53258e+19
-45.5729  4.22295e+19
-45.4556  3.9463e+19
-45.3383  3.71194e+19
-45.221  3.50206e+19
-45.1037  3.29968e+19
-44.9864  3.08199e+19
-44.8691  2.83539e+19
-44.7518  2.56282e+19
-44.6345  2.27891e+19
-44.5172  2.00769e+19
-44.3998  1.77757e+19
-44.2825  1.60926e+19
-44.1652  1.51002e+19
-44.0479  1.46846e+19
-43.9306  1.45689e+19
-43.8133  1.44015e+19
-43.696  1.38243e+19
-43.5787  1.26071e+19
-43.4614  1.07151e+19
-43.3441  8.32151e+18
-43.2268  5.80095e+18
-43.1095  3.64712e+18
-42.9922  2.36657e+18
-42.8749  2.37385e+18
-42.7576  3.91415e+18
-42.6403  7.01098e+18
-42.523  1.14871e+19
-42.4057  1.6981e+19
-42.2884  2.30693e+19
-42.171  2.9307e+19
-42.0537  3.52586e+19
-41.9364  4.06623e+19
-41.8191  4.53329e+19
-41.7018  4.92414e+19
-41.5845  5.2442e+19
-41.4672  5.50686e+19
-41.3499  5.72959e+19
-41.2326  5.93025e+19
-41.1153  6.1169e+19
-40.998  6.29372e+19
-40.8807  6.45049e+19
-40.7634  6.57195e+19
-40.6461  6.62565e+19
-40.5288  6.58391e+19
-40.4115  6.4107e+19
-40.2942  6.08388e+19
-40.1769  5.59995e+19
-40.0596  4.97405e+19
-39.9423  4.24041e+19
-39.825  3.45068e+19
-39.7076  2.67316e+19
-39.5903  1.9713e+19
-39.473  1.40563e+19
-39.3557  1.01515e+19
-39.2384  8.20455e+18
-39.1211  8.20484e+18
-39.0038  9.95006e+18
-38.8865  1.31166e+19
-38.7692  1.73052e+19
-38.6519  2.2146e+19
-38.5346  2.72813e+19
-38.4173  3.24595e+19
-38.3  3.74241e+19
-38.1827  4.2013e+19
-38.0654  4.61238e+19
-37.9481  4.9665e+19
-37.8308  5.26903e+19
-37.7135  5.53203e+19
-37.5962  5.7844e+19
-37.4789  6.06748e+19
-37.3615  6.42764e+19
-37.2442  6.91647e+19
-37.1269  7.56426e+19
-37.0096  8.39375e+19
-36.8923  9.38771e+19
-36.775  1.05004e+20
-36.6577  1.16599e+20
-36.5404  1.27712e+20
-36.4231  1.37353e+20
-36.3058  1.44625e+20
-36.1885  1.48935e+20
-36.0712  1.49939e+20
-35.9539  1.47774e+20
-35.8366  1.42842e+20
-35.7193  1.35871e+20
-35.602  1.27773e+20
-35.4847  1.19315e+20
-35.3674  1.11258e+20
-35.2501  1.04145e+20
-35.1328  9.83383e+19
-35.0154  9.393e+19
-34.8981  9.0891e+19
-34.7808  8.90463e+19
-34.6635  8.82375e+19
-34.5462  8.82829e+19
-34.4289  8.89699e+19
-34.3116  9.02721e+19
-34.1943  9.21544e+19
-34.077  9.46571e+19
-33.9597  9.78738e+19
-33.8424  1.01941e+20
-33.7251  1.06951e+20
-33.6078  1.13038e+20
-33.4905  1.20225e+20
-33.3732  1.28455e+20
-33.2559  1.37602e+20
-33.1386  1.47338e+20
-33.0213  1.57312e+20
-32.904  1.66984e+20
-32.7867  1.75788e+20
-32.6693  1.83222e+20
-32.552  1.88716e+20
-32.4347  1.9197e+20
-32.3174  1.92646e+20
-32.2001  1.90694e+20
-32.0828  1.86173e+20
-31.9655  1.79304e+20
-31.8482  1.70395e+20
-31.7309  1.59884e+20
-31.6136  1.48319e+20
-31.4963  1.36235e+20
-31.379  1.24229e+20
-31.2617  1.12818e+20
-31.1444  1.02537e+20
-31.0271  9.38417e+19
-30.9098  8.69346e+19
-30.7925  8.21163e+19
-30.6752  7.93724e+19
-30.5579  7.86275e+19
-30.4406  7.97282e+19
-30.3232  8.23521e+19
-30.2059  8.62757e+19
-30.0886  9.11941e+19
-29.9713  9.67802e+19
-29.854  1.0283e+20
-29.7367  1.09211e+20
-29.6194  1.15747e+20
-29.5021  1.22402e+20
-29.3848  1.29174e+20
-29.2675  1.3608e+20
-29.1502  1.43219e+20
-29.0329  1.50648e+20
-28.9156  1.58481e+20
-28.7983  1.66776e+20
-28.681  1.75555e+20
-28.5637  1.84843e+20
-28.4464  1.94481e+20
-28.3291  2.04385e+20
-28.2118  2.1442e+20
-28.0944  2.24282e+20
-27.9771  2.33774e+20
-27.8598  2.42651e+20
-27.7425  2.50578e+20
-27.6252  2.57432e+20
-27.5079  2.62805e+20
-27.3906  2.66484e+20
-27.2733  2.68113e+20
-27.156  2.67538e+20
-27.0387  2.64579e+20
-26.9214  2.59115e+20
-26.8041  2.51249e+20
-26.6868  2.41176e+20
-26.5695  2.29341e+20
-26.4522  2.16247e+20
-26.3349  2.0242e+20
-26.2176  1.88532e+20
-26.1003  1.75185e+20
-25.983  1.63003e+20
-25.8657  1.52519e+20
-25.7483  1.44117e+20
-25.631  1.38092e+20
-25.5137  1.34564e+20
-25.3964  1.33659e+20
-25.2791  1.35296e+20
-25.1618  1.39308e+20
-25.0445  1.45476e+20
-24.9272  1.53528e+20
-24.8099  1.63199e+20
-24.6926  1.74184e+20
-24.5753  1.86196e+20
-24.458  1.99158e+20
-24.3407  2.12886e+20
-24.2234  2.27307e+20
-24.1061  2.42318e+20
-23.9888  2.57808e+20
-23.8715  2.73608e+20
-23.7542  2.89434e+20
-23.6369  3.04927e+20
-23.5196  3.19618e+20
-23.4023  3.33036e+20
-23.2849  3.44708e+20
-23.1676  3.54142e+20
-23.0503  3.60876e+20
-22.933  3.64563e+20
-22.8157  3.64922e+20
-22.6984  3.61881e+20
-22.5811  3.55471e+20
-22.4638  3.45766e+20
-22.3465  3.33214e+20
-22.2292  3.18224e+20
-22.1119  3.01458e+20
-21.9946  2.8366e+20
-21.8773  2.65591e+20
-21.76  2.47977e+20
-21.6427  2.31469e+20
-21.5254  2.16609e+20
-21.4081  2.03604e+20
-21.2908  1.92603e+20
-21.1735  1.83584e+20
-21.0561  1.76361e+20
-20.9388  1.70799e+20
-20.8215  1.66648e+20
-20.7042  1.63754e+20
-20.5869  1.61929e+20
-20.4696  1.61078e+20
-20.3523  1.60993e+20
-20.235  1.61558e+20
-20.1177  1.62505e+20
-20.0004  1.6369e+20
-19.8831  1.64971e+20
-19.7658  1.66237e+20
-19.6485  1.67536e+20
-19.5312  1.69053e+20
-19.4139  1.71059e+20
-19.2966  1.73951e+20
-19.1793  1.78138e+20
-19.062  1.84017e+20
-18.9447  1.91869e+20
-18.8274  2.01867e+20
-18.71  2.14002e+20
-18.5927  2.28119e+20
-18.4754  2.43921e+20
-18.3581  2.60975e+20
-18.2408  2.78838e+20
-18.1235  2.97e+20
-18.0062  3.14996e+20
-17.8889  3.32408e+20
-17.7716  3.48952e+20
-17.6543  3.64524e+20
-17.537  3.791e+20
-17.4197  3.92962e+20
-17.3024  4.06505e+20
-17.1851  4.2032e+20
-17.0678  4.35058e+20
-16.9505  4.51369e+20
-16.8332  4.6987e+20
-16.7159  4.90998e+20
-16.5986  5.15009e+20
-16.4813  5.41899e+20
-16.364  5.71459e+20
-16.2466  6.03303e+20
-16.1293  6.3664e+20
-16.012  6.71069e+20
-15.8947  7.05773e+20
-15.7774  7.40242e+20
-15.6601  7.73929e+20
-15.5428  8.06596e+20
-15.4255  8.37967e+20
-15.3082  8.68225e+20
-15.1909  8.97365e+20
-15.0736  9.25849e+20
-14.9563  9.54032e+20
-14.839  9.82577e+20
-14.7217  1.01192e+21
-14.6044  1.04285e+21
-14.4871  1.07594e+21
-14.3698  1.11181e+21
-14.2525  1.15099e+21
-14.1352  1.19384e+21
-14.0178  1.24079e+21
-13.9005  1.29212e+21
-13.7832  1.34799e+21
-13.6659  1.4086e+21
-13.5486  1.47423e+21
-13.4313  1.54526e+21
-13.314  1.62205e+21
-13.1967  1.70501e+21
-13.0794  1.79489e+21
-12.9621  1.89203e+21
-12.8448  1.99713e+21
-12.7275  2.11035e+21
-12.6102  2.23206e+21
-12.4929  2.36202e+21
-12.3756  2.49961e+21
-12.2583  2.6441e+21
-12.141  2.79417e+21
-12.0237  2.94827e+21
-11.9064  3.1045e+21
-11.7891  3.2609e+21
-11.6718  3.41566e+21
-11.5544  3.56702e+21
-11.4371  3.71362e+21
-11.3198  3.85457e+21
-11.2025  3.9893e+21
-11.0852  4.11826e+21
-10.9679  4.24214e+21
-10.8506  4.36226e+21
-10.7333  4.48e+21
-10.616  4.59721e+21
-10.4987  4.71598e+21
-10.3814  4.8374e+21
-10.2641  4.96266e+21
-10.1468  5.0928e+21
-10.0295  5.22752e+21
-9.91217  5.36626e+21
-9.79487  5.50825e+21
-9.67756  5.65182e+21
-9.56026  5.79488e+21
-9.44295  5.93517e+21
-9.32565  6.07118e+21
-9.20834  6.20054e+21
-9.09104  6.32177e+21
-8.97373  6.43392e+21
-8.85643  6.5368e+21
-8.73913  6.63042e+21
-8.62182  6.71568e+21
-8.50452  6.79402e+21
-8.38721  6.86795e+21
-8.26991  6.93932e+21
-8.1526  7.01115e+21
-8.03529  7.08573e+21
-7.91799  7.16588e+21
-7.80069  7.254e+21
-7.68338  7.3517e+21
-7.56608  7.46112e+21
-7.44877  7.58344e+21
-7.33146  7.7192e+21
-7.21416  7.86859e+21
-7.09685  8.03135e+21
-6.97955  8.20632e+21
-6.86224  8.39217e+21
-6.74494  8.58703e+21
-6.62763  8.78791e+21
-6.51033  8.99224e+21
-6.39302  9.1966e+21
-6.27572  9.39787e+21
-6.15842  9.59269e+21
-6.04111  9.77753e+21
-5.92381  9.94936e+21
-5.8065  1.0106e+22
-5.68919  1.02447e+22
-5.57189  1.03645e+22
-5.45458  1.0464e+22
-5.33728  1.05439e+22
-5.21997  1.06041e+22
-5.10267  1.06465e+22
-4.98536  1.06729e+22
-4.86806  1.06858e+22
-4.75075  1.06883e+22
-4.63345  1.0684e+22
-4.51614  1.0676e+22
-4.39884  1.06679e+22
-4.28154  1.06632e+22
-4.16423  1.06653e+22
-4.04692  1.06763e+22
-3.92962  1.06988e+22
-3.81231  1.07348e+22
-3.69501  1.0785e+22
-3.5777  1.08498e+22
-3.4604  1.09292e+22
-3.34309  1.10218e+22
-3.22579  1.1126e+22
-3.10849  1.12396e+22
-2.99118  1.136e+22
-2.87387  1.1484e+22
-2.75657  1.16087e+22
-2.63926  1.1731e+22
-2.52196  1.18476e+22
-2.40465  1.1956e+22
-2.28735  1.20533e+22
-2.17005  1.21379e+22
-2.05274  1.22085e+22
-1.93544  1.22636e+22
-1.81813  1.23034e+22
-1.70083  1.2328e+22
-1.58352  1.23381e+22
-1.46622  1.2335e+22
-1.34891  1.23205e+22
-1.2316  1.22962e+22
-1.1143  1.22644e+22
-0.996995  1.22273e+22
-0.87969  1.21874e+22
-0.762385  1.21462e+22
-0.64508  1.21065e+22
-0.527775  1.20702e+22
-0.41047  1.20389e+22
-0.293165  1.2014e+22
-0.17586  1.1997e+22
-0.058555  1.19888e+22
0.05875  1.19894e+22
0.176055  1.19993e+22
0.29336  1.20175e+22
0.410665  1.20438e+22
0.52797  1.20763e+22
0.645275  1.21138e+22
0.76258  1.21542e+22
0.879885  1.21961e+22
0.99719  1.22367e+22
1.1145  1.22743e+22
1.2318  1.23065e+22
1.3491  1.23311e+22
1.46641  1.23458e+22
1.58371  1.2349e+22
1.70102  1.23389e+22
1.81832  1.23144e+22
1.93563  1.22748e+22
2.05294  1.22196e+22
2.17024  1.21494e+22
2.28754  1.20651e+22
2.40485  1.19679e+22
2.52216  1.18598e+22
2.63946  1.17435e+22
2.75677  1.16216e+22
2.87407  1.14973e+22
2.99137  1.13737e+22
3.10868  1.12538e+22
3.22599  1.11406e+22
3.34329  1.1037e+22
3.4606  1.09451e+22
3.5779  1.08666e+22
3.69521  1.08023e+22
3.81251  1.07531e+22
3.92982  1.0718e+22
4.04712  1.06963e+22
4.16443  1.06863e+22
4.28173  1.06854e+22
4.39903  1.0691e+22
4.51634  1.07e+22
4.63364  1.07089e+22
4.75095  1.07142e+22
4.86825  1.07121e+22
4.98556  1.06998e+22
5.10286  1.06739e+22
5.22017  1.06317e+22
5.33748  1.05716e+22
5.45478  1.0492e+22
5.57209  1.03923e+22
5.68939  1.02723e+22
5.8067  1.01334e+22
5.924  9.97665e+21
6.0413  9.80472e+21
6.15861  9.61995e+21
6.27591  9.42529e+21
6.39322  9.22436e+21
6.51052  9.02036e+21
6.62783  8.81651e+21
6.74514  8.6162e+21
6.86244  8.42233e+21
6.97975  8.23724e+21
7.09705  8.06314e+21
7.21436  7.90142e+21
7.33166  7.75259e+21
7.44897  7.61764e+21
7.56627  7.4961e+21
7.68358  7.38716e+21
7.80088  7.28969e+21
7.91819  7.20187e+21
8.03549  7.12196e+21
8.1528  7.04752e+21
8.2701  6.97557e+21
8.38741  6.90401e+21
8.50471  6.82999e+21
8.62202  6.7512e+21
8.73932  6.66565e+21
8.85662  6.57184e+21
8.97393  6.46877e+21
9.09123  6.35618e+21
9.20854  6.23454e+21
9.32584  6.10492e+21
9.44315  5.96856e+21
9.56045  5.82761e+21
9.67776  5.68424e+21
9.79506  5.54008e+21
9.91237  5.3976e+21
10.0297  5.25811e+21
10.147  5.12294e+21
10.2643  4.99236e+21
10.3816  4.86634e+21
10.4989  4.74436e+21
10.6162  4.62503e+21
10.7335  4.50705e+21
10.8508  4.38862e+21
10.9681  4.26788e+21
11.0854  4.14355e+21
11.2027  4.01408e+21
11.32  3.87862e+21
11.4373  3.73714e+21
11.5546  3.58994e+21
11.6719  3.43786e+21
11.7893  3.28257e+21
11.9066  3.12558e+21
12.0239  2.9686e+21
12.1412  2.81409e+21
12.2585  2.66344e+21
12.3758  2.51846e+21
12.4931  2.3803e+21
12.6104  2.24991e+21
12.7277  2.12783e+21
12.845  2.0142e+21
12.9623  1.9087e+21
13.0796  1.81128e+21
13.1969  1.72109e+21
13.3142  1.63795e+21
13.4315  1.56089e+21
13.5488  1.48963e+21
13.6661  1.42374e+21
13.7834  1.36288e+21
13.9007  1.3068e+21
14.018  1.25523e+21
14.1354  1.208e+21
14.2527  1.16487e+21
14.37  1.12544e+21
14.4873  1.08927e+21
14.6046  1.05585e+21
14.7219  1.02461e+21
14.8392  9.94897e+20
14.9565  9.66006e+20
15.0738  9.37452e+20
15.1911  9.0859e+20
15.3084  8.79006e+20
15.4257  8.4835e+20
15.543  8.16497e+20
15.6603  7.83405e+20
15.7776  7.49269e+20
15.8949  7.14391e+20
16.0122  6.79278e+20
16.1295  6.44474e+20
16.2468  6.1065e+20
16.3641  5.78518e+20
16.4815  5.48624e+20
16.5988  5.21425e+20
16.7161  4.97098e+20
16.8334  4.75729e+20
16.9507  4.56958e+20
17.068  4.40393e+20
17.1853  4.25397e+20
17.3026  4.11324e+20
17.4199  3.97466e+20
17.5372  3.83274e+20
17.6545  3.68371e+20
17.7718  3.52515e+20
17.8891  3.35633e+20
18.0064  3.17926e+20
18.1237  2.99653e+20
18.241  2.81217e+20
18.3583  2.63115e+20
18.4756  2.45854e+20
18.5929  2.29887e+20
18.7102  2.15626e+20
18.8275  2.0338e+20
18.9449  1.9329e+20
19.0622  1.85348e+20
19.1795  1.79385e+20
19.2968  1.75099e+20
19.4141  1.72093e+20
19.5314  1.69952e+20
19.6487  1.68298e+20
19.766  1.66828e+20
19.8833  1.65396e+20
20.0006  1.63951e+20
20.1179  1.62588e+20
20.2352  1.61461e+20
20.3525  1.60784e+20
20.4698  1.60757e+20
20.5871  1.61544e+20
20.7044  1.6329e+20
20.8217  1.66149e+20
20.939  1.70265e+20
21.0563  1.75857e+20
21.1736  1.8309e+20
21.291  1.92167e+20
21.4083  2.03192e+20
21.5256  2.16275e+20
21.6429  2.31201e+20
21.7602  2.4771e+20
21.8775  2.6532e+20
21.9948  2.83392e+20
22.1121  3.0111e+20
22.2294  3.17802e+20
22.3467  3.32628e+20
22.464  3.45073e+20
22.5813  3.54575e+20
22.6986  3.60855e+20
22.8159  3.63692e+20
22.9332  3.63128e+20
23.0505  3.59309e+20
23.1678  3.52449e+20
23.2851  3.42935e+20
23.4024  3.3119e+20
23.5198  3.1771e+20
23.6371  3.03034e+20
23.7544  2.87604e+20
23.8717  2.71865e+20
23.989  2.56149e+20
24.1063  2.40786e+20
24.2236  2.25897e+20
24.3409  2.11598e+20
24.4582  1.97987e+20
24.5755  1.85163e+20
24.6928  1.73214e+20
24.8101  1.6235e+20
24.9274  1.52796e+20
25.0447  1.44823e+20
25.162  1.38747e+20
25.2793  1.34802e+20
25.3966  1.33287e+20
25.5139  1.34282e+20
25.6312  1.37876e+20
25.7485  1.43996e+20
25.8658  1.52463e+20
25.9832  1.6306e+20
26.1005  1.75248e+20
26.2178  1.88583e+20
26.3351  2.02484e+20
26.4524  2.16321e+20
26.5697  2.29385e+20
26.687  2.41152e+20
26.8043  2.51067e+20
26.9216  2.58755e+20
27.0389  2.64083e+20
27.1562  2.66897e+20
27.2735  2.67336e+20
27.3908  2.65558e+20
27.5081  2.61776e+20
27.6254  2.5634e+20
27.7427  2.49437e+20
27.86  2.41467e+20
27.9773  2.32614e+20
28.0946  2.23146e+20
28.212  2.13342e+20
28.3293  2.03388e+20
28.4466  1.93554e+20
28.5639  1.83988e+20
28.6812  1.74787e+20
28.7985  1.66067e+20
28.9158  1.57842e+20
29.0331  1.50081e+20
29.1504  1.42721e+20
29.2677  1.35623e+20
29.385  1.28738e+20
29.5023  1.21993e+20
29.6196  1.15385e+20
29.7369  1.08875e+20
29.8542  1.02536e+20
29.9715  9.65007e+19
30.0888  9.09563e+19
30.2061  8.61398e+19
30.3234  8.23116e+19
30.4407  7.97558e+19
30.558  7.87693e+19
30.6754  7.95945e+19
30.7927  8.24595e+19
30.91  8.738e+19
31.0273  9.42976e+19
31.1446  1.03079e+20
31.2619  1.13372e+20
31.3792  1.24791e+20
31.4965  1.36774e+20
31.6138  1.4879e+20
31.7311  1.60327e+20
31.8484  1.70778e+20
31.9657  1.79607e+20
32.083  1.86425e+20
32.2003  1.90869e+20
32.3176  1.9274e+20
32.4349  1.91988e+20
32.5522  1.88716e+20
32.6695  1.83194e+20
32.7868  1.75761e+20
32.9042  1.66928e+20
33.0215  1.57306e+20
33.1388  1.47325e+20
33.2561  1.37612e+20
33.3734  1.28477e+20
33.4907  1.20271e+20
33.608  1.13093e+20
33.7253  1.07018e+20
33.8426  1.0204e+20
33.9599  9.79806e+19
34.0772  9.48062e+19
34.1945  9.2341e+19
34.3118  9.04975e+19
34.4291  8.92363e+19
34.5464  8.85793e+19
34.6637  8.86391e+19
34.781  8.94956e+19
34.8983  9.14083e+19
35.0156  9.45197e+19
35.1329  9.90062e+19
35.2503  1.04893e+20
35.3676  1.12021e+20
35.4849  1.2012e+20
35.6022  1.28591e+20
35.7195  1.36695e+20
35.8368  1.43555e+20
35.9541  1.48411e+20
36.0714  1.50457e+20
36.1887  1.49311e+20
36.306  1.44905e+20
36.4233  1.37506e+20
36.5406  1.27769e+20
36.6579  1.16585e+20
36.7752  1.04963e+20
36.8925  9.38187e+19
37.0098  8.3879e+19
37.1271  7.56358e+19
37.2444  6.9147e+19
37.3617  6.42804e+19
37.479  6.06856e+19
37.5964  5.78646e+19
37.7137  5.53093e+19
37.831  5.26652e+19
37.9483  4.96021e+19
38.0656  4.6042e+19
38.1829  4.19078e+19
38.3002  3.72916e+19
38.4175  3.23015e+19
38.5348  2.71209e+19
38.6521  2.19881e+19
38.7694  1.71642e+19
38.8867  1.30059e+19
39.004  9.89307e+18
39.1213  8.21352e+18
39.2386  8.28826e+18
39.3559  1.03043e+19
39.4732  1.42852e+19
39.5905  2.00154e+19
39.7078  2.70764e+19
39.8251  3.48847e+19
39.9425  4.27775e+19
40.0598  5.01391e+19
40.1771  5.63782e+19
40.2944  6.11659e+19
40.4117  6.43815e+19
40.529  6.60766e+19
40.6463  6.64536e+19
40.7636  6.58538e+19
40.8809  6.46268e+19
40.9982  6.3013e+19
41.1155  6.12038e+19
41.2328  5.92957e+19
41.3501  5.72785e+19
41.4674  5.50028e+19
41.5847  5.23309e+19
41.702  4.91226e+19
41.8193  4.51758e+19
41.9366  4.04966e+19
42.0539  3.50778e+19
42.1712  2.91156e+19
42.2885  2.29037e+19
42.4059  1.68309e+19
42.5232  1.13625e+19
42.6405  6.91664e+18
42.7578  3.86266e+18
42.8751  2.35824e+18
42.9924  2.38128e+18
43.1097  3.68476e+18
43.227  5.84328e+18
43.3443  8.36191e+18
43.4616  1.07441e+19
43.5789  1.26315e+19
43.6962  1.3837e+19
43.8135  1.44159e+19
43.9308  1.45894e+19
44.0481  1.47199e+19
44.1654  1.51793e+19
44.2827  1.62122e+19
44.4  1.79269e+19
44.5173  2.02431e+19
44.6347  2.29687e+19
44.752  2.58189e+19
44.8693  2.85404e+19
44.9866  3.09669e+19
45.1039  3.31393e+19
45.2212  3.51427e+19
45.3385  3.72268e+19
45.4558  3.96127e+19
45.5731  4.23924e+19
45.6904  4.55294e+19
45.8077  4.88164e+19
45.925  5.18871e+19
46.0423  5.42849e+19
46.1596  5.55856e+19
46.2769  5.54719e+19
46.3942  5.37574e+19
46.5115  5.05185e+19
46.6288  4.592e+19
46.7461  4.03289e+19
46.8634  3.41356e+19
46.9808  2.7731e+19
47.0981  2.15542e+19
47.2154  1.59158e+19
47.3327  1.11133e+19
47.45  7.3592e+18
47.5673  4.86888e+18
47.6846  3.79824e+18
47.8019  4.25039e+18
47.9192  6.25449e+18
48.0365  9.77099e+18
48.1538  1.4649e+19
48.2711  2.06486e+19
48.3884  2.74223e+19
48.5057  3.4588e+19
48.623  4.16834e+19
48.7403  4.83282e+19
48.8576  5.40961e+19
48.9749  5.86593e+19
49.0922  6.17949e+19
49.2095  6.33593e+19
49.3269  6.32655e+19
49.4442  6.15851e+19
49.5615  5.84938e+19
49.6788  5.42516e+19
49.7961  4.91131e+19
49.9134  4.34976e+19
50.0307  3.76894e+19
50.148  3.19643e+19
50.2653  2.65982e+19
50.3826  2.17574e+19
50.4999  1.75157e+19
50.6172  1.39265e+19
50.7345  1.09887e+19
50.8518  8.68924e+18
50.9691  6.98607e+18
