#S 1 spectral density
#N 2
#UFWHM 13.9593
#L  abscissas [um]  spectral density
-58.5938  1.60551e+19
-58.4764  1.29368e+19
-58.3591  1.05982e+19
-58.2418  9.49712e+18
-58.1245  9.77539e+18
-58.0072  1.12511e+19
-57.8899  1.35074e+19
-57.7726  1.59735e+19
-57.6553  1.8058e+19
-57.538  1.93049e+19
-57.4207  1.94696e+19
-57.3034  1.85023e+19
-57.1861  1.65867e+19
-57.0688  1.40227e+19
-56.9515  1.11947e+19
-56.8342  8.43803e+18
-56.7169  6.09895e+18
-56.5996  4.3868e+18
-56.4823  3.47692e+18
-56.365  3.45121e+18
-56.2477  4.30555e+18
-56.1303  5.98062e+18
-56.013  8.30591e+18
-55.8957  1.10302e+19
-55.7784  1.38135e+19
-55.6611  1.629e+19
-55.5438  1.81296e+19
-55.4265  1.90604e+19
-55.3092  1.89762e+19
-55.1919  1.79251e+19
-55.0746  1.61481e+19
-54.9573  1.39736e+19
-54.84  1.17995e+19
-54.7227  9.97112e+18
-54.6054  8.75321e+18
-54.4881  8.2467e+18
-54.3708  8.39912e+18
-54.2535  9.0407e+18
-54.1362  9.93893e+18
-54.0189  1.08436e+19
-53.9016  1.15643e+19
-53.7842  1.1997e+19
-53.6669  1.20829e+19
-53.5496  1.18764e+19
-53.4323  1.14399e+19
-53.315  1.08681e+19
-53.1977  1.02413e+19
-53.0804  9.58678e+18
-52.9631  8.94208e+18
-52.8458  8.29864e+18
-52.7285  7.63621e+18
-52.6112  6.94114e+18
-52.4939  6.20047e+18
-52.3766  5.40794e+18
-52.2593  4.56983e+18
-52.142  3.72188e+18
-52.0247  2.93053e+18
-51.9074  2.28778e+18
-51.7901  1.9037e+18
-51.6728  1.8954e+18
-51.5555  2.34154e+18
-51.4381  3.2781e+18
-51.3208  4.6618e+18
-51.2035  6.37663e+18
-51.0862  8.24343e+18
-50.9689  1.00529e+19
-50.8516  1.16138e+19
-50.7343  1.28113e+19
-50.617  1.36118e+19
-50.4997  1.4061e+19
-50.3824  1.4318e+19
-50.2651  1.45595e+19
-50.1478  1.49612e+19
-50.0305  1.56417e+19
-49.9132  1.6652e+19
-49.7959  1.79328e+19
-49.6786  1.93741e+19
-49.5613  2.0803e+19
-49.444  2.20378e+19
-49.3267  2.29462e+19
-49.2094  2.34419e+19
-49.092  2.34902e+19
-48.9747  2.30987e+19
-48.8574  2.23275e+19
-48.7401  2.12303e+19
-48.6228  1.98729e+19
-48.5055  1.83244e+19
-48.3882  1.66066e+19
-48.2709  1.47847e+19
-48.1536  1.29075e+19
-48.0363  1.10376e+19
-47.919  9.25838e+18
-47.8017  7.70187e+18
-47.6844  6.49229e+18
-47.5671  5.79105e+18
-47.4498  5.74891e+18
-47.3325  6.50794e+18
-47.2152  8.11776e+18
-47.0979  1.05473e+19
-46.9806  1.3631e+19
-46.8633  1.70713e+19
-46.7459  2.04084e+19
-46.6286  2.31918e+19
-46.5113  2.49489e+19
-46.394  2.53905e+19
-46.2767  2.43928e+19
-46.1594  2.21386e+19
-46.0421  1.90885e+19
-45.9248  1.58511e+19
-45.8075  1.31159e+19
-45.6902  1.147e+19
-45.5729  1.12447e+19
-45.4556  1.24684e+19
-45.3383  1.4766e+19
-45.221  1.7549e+19
-45.1037  2.0053e+19
-44.9864  2.15731e+19
-44.8691  2.1648e+19
-44.7518  2.01143e+19
-44.6345  1.72084e+19
-44.5172  1.35014e+19
-44.3998  9.71722e+18
-44.2825  6.60005e+18
-44.1652  4.72656e+18
-44.0479  4.39977e+18
-43.9306  5.60323e+18
-43.8133  8.00721e+18
-43.696  1.10963e+19
-43.5787  1.42768e+19
-43.4614  1.70156e+19
-43.3441  1.89114e+19
-43.2268  1.97791e+19
-43.1095  1.96266e+19
-42.9922  1.86306e+19
-42.8749  1.70372e+19
-42.7576  1.51477e+19
-42.6403  1.32352e+19
-42.523  1.15193e+19
-42.4057  1.01626e+19
-42.2884  9.24937e+18
-42.171  8.78961e+18
-42.0537  8.73419e+18
-41.9364  8.95294e+18
-41.8191  9.29378e+18
-41.7018  9.55386e+18
-41.5845  9.57792e+18
-41.4672  9.25308e+18
-41.3499  8.56325e+18
-41.2326  7.60563e+18
-41.1153  6.58191e+18
-40.998  5.75648e+18
-40.8807  5.38736e+18
-40.7634  5.65221e+18
-40.6461  6.6321e+18
-40.5288  8.21901e+18
-40.4115  1.0181e+19
-40.2942  1.22038e+19
-40.1769  1.39246e+19
-40.0596  1.50351e+19
-39.9423  1.53683e+19
-39.825  1.4907e+19
-39.7076  1.37609e+19
-39.5903  1.21433e+19
-39.473  1.03235e+19
-39.3557  8.58334e+18
-39.2384  7.13628e+18
-39.1211  6.15723e+18
-39.0038  5.76809e+18
-38.8865  6.06097e+18
-38.7692  7.10382e+18
-38.6519  8.95545e+18
-38.5346  1.16211e+19
-38.4173  1.50308e+19
-38.3  1.89857e+19
-38.1827  2.31623e+19
-38.0654  2.70954e+19
-37.9481  3.02955e+19
-37.8308  3.22766e+19
-37.7135  3.27336e+19
-37.5962  3.15681e+19
-37.4789  2.8995e+19
-37.3615  2.55394e+19
-37.2442  2.1916e+19
-37.1269  1.89272e+19
-37.0096  1.72569e+19
-36.8923  1.74018e+19
-36.775  1.94882e+19
-36.6577  2.32769e+19
-36.5404  2.81899e+19
-36.4231  3.34639e+19
-36.3058  3.82806e+19
-36.1885  4.19428e+19
-36.0712  4.39921e+19
-35.9539  4.42707e+19
-35.8366  4.2943e+19
-35.7193  4.04095e+19
-35.602  3.71258e+19
-35.4847  3.36601e+19
-35.3674  3.04042e+19
-35.2501  2.76064e+19
-35.1328  2.53517e+19
-35.0154  2.35886e+19
-34.8981  2.21605e+19
-34.7808  2.09121e+19
-34.6635  1.97082e+19
-34.5462  1.84821e+19
-34.4289  1.72688e+19
-34.3116  1.61151e+19
-34.1943  1.51093e+19
-34.077  1.4315e+19
-33.9597  1.37851e+19
-33.8424  1.34906e+19
-33.7251  1.34063e+19
-33.6078  1.34326e+19
-33.4905  1.34931e+19
-33.3732  1.35157e+19
-33.2559  1.34492e+19
-33.1386  1.32789e+19
-33.0213  1.30437e+19
-32.904  1.28136e+19
-32.7867  1.2697e+19
-32.6693  1.27982e+19
-32.552  1.32364e+19
-32.4347  1.40697e+19
-32.3174  1.53282e+19
-32.2001  1.69433e+19
-32.0828  1.87761e+19
-31.9655  2.06038e+19
-31.8482  2.21915e+19
-31.7309  2.3271e+19
-31.6136  2.3626e+19
-31.4963  2.31328e+19
-31.379  2.17727e+19
-31.2617  1.96583e+19
-31.1444  1.69943e+19
-31.0271  1.40419e+19
-30.9098  1.10897e+19
-30.7925  8.40901e+18
-30.6752  6.2045e+18
-30.5579  4.60167e+18
-30.4406  3.64065e+18
-30.3232  3.29321e+18
-30.2059  3.48243e+18
-30.0886  4.10093e+18
-29.9713  5.04354e+18
-29.854  6.20675e+18
-29.7367  7.49465e+18
-29.6194  8.86706e+18
-29.5021  1.03031e+19
-29.3848  1.18265e+19
-29.2675  1.34967e+19
-29.1502  1.54249e+19
-29.0329  1.77639e+19
-28.9156  2.06509e+19
-28.7983  2.42272e+19
-28.681  2.85781e+19
-28.5637  3.37244e+19
-28.4464  3.96073e+19
-28.3291  4.60783e+19
-28.2118  5.29109e+19
-28.0944  5.98734e+19
-27.9771  6.66887e+19
-27.8598  7.30828e+19
-27.7425  7.88313e+19
-27.6252  8.36334e+19
-27.5079  8.73474e+19
-27.3906  8.97732e+19
-27.2733  9.08148e+19
-27.156  9.03805e+19
-27.0387  8.85199e+19
-26.9214  8.53896e+19
-26.8041  8.12595e+19
-26.6868  7.65286e+19
-26.5695  7.16236e+19
-26.4522  6.7e+19
-26.3349  6.31189e+19
-26.2176  6.02342e+19
-26.1003  5.85001e+19
-25.983  5.78201e+19
-25.8657  5.79492e+19
-25.7483  5.85631e+19
-25.631  5.92401e+19
-25.5137  5.96561e+19
-25.3964  5.9514e+19
-25.2791  5.86999e+19
-25.1618  5.72539e+19
-25.0445  5.53721e+19
-24.9272  5.33142e+19
-24.8099  5.14462e+19
-24.6926  5.01093e+19
-24.5753  4.9642e+19
-24.458  5.01925e+19
-24.3407  5.18797e+19
-24.2234  5.46116e+19
-24.1061  5.81932e+19
-23.9888  6.22793e+19
-23.8715  6.64392e+19
-23.7542  7.02461e+19
-23.6369  7.33004e+19
-23.5196  7.53034e+19
-23.4023  7.61065e+19
-23.2849  7.5718e+19
-23.1676  7.43189e+19
-23.0503  7.22175e+19
-22.933  6.97679e+19
-22.8157  6.73824e+19
-22.6984  6.53886e+19
-22.5811  6.41005e+19
-22.4638  6.3801e+19
-22.3465  6.46729e+19
-22.2292  6.69848e+19
-22.1119  7.09427e+19
-21.9946  7.67733e+19
-21.8773  8.46659e+19
-21.76  9.47472e+19
-21.6427  1.06995e+20
-21.5254  1.21163e+20
-21.4081  1.36873e+20
-21.2908  1.53516e+20
-21.1735  1.70359e+20
-21.0561  1.86649e+20
-20.9388  2.01565e+20
-20.8215  2.14567e+20
-20.7042  2.25136e+20
-20.5869  2.33102e+20
-20.4696  2.38369e+20
-20.3523  2.41136e+20
-20.235  2.41603e+20
-20.1177  2.4027e+20
-20.0004  2.37483e+20
-19.8831  2.33637e+20
-19.7658  2.29201e+20
-19.6485  2.24556e+20
-19.5312  2.20012e+20
-19.4139  2.15825e+20
-19.2966  2.12143e+20
-19.1793  2.09086e+20
-19.062  2.06708e+20
-18.9447  2.05147e+20
-18.8274  2.04663e+20
-18.71  2.0555e+20
-18.5927  2.08438e+20
-18.4754  2.14106e+20
-18.3581  2.23357e+20
-18.2408  2.3719e+20
-18.1235  2.56285e+20
-18.0062  2.81198e+20
-17.8889  3.12018e+20
-17.7716  3.48203e+20
-17.6543  3.89131e+20
-17.537  4.33292e+20
-17.4197  4.79253e+20
-17.3024  5.25171e+20
-17.1851  5.695e+20
-17.0678  6.1075e+20
-16.9505  6.47739e+20
-16.8332  6.79727e+20
-16.7159  7.06428e+20
-16.5986  7.28e+20
-16.4813  7.44897e+20
-16.364  7.57922e+20
-16.2466  7.68049e+20
-16.1293  7.7603e+20
-16.012  7.8331e+20
-15.8947  7.90611e+20
-15.7774  7.98835e+20
-15.6601  8.08586e+20
-15.5428  8.20299e+20
-15.4255  8.34074e+20
-15.3082  8.50035e+20
-15.1909  8.67718e+20
-15.0736  8.86977e+20
-14.9563  9.07315e+20
-14.839  9.28388e+20
-14.7217  9.4963e+20
-14.6044  9.7101e+20
-14.4871  9.92179e+20
-14.3698  1.01331e+21
-14.2525  1.03443e+21
-14.1352  1.05591e+21
-14.0178  1.07817e+21
-13.9005  1.10184e+21
-13.7832  1.12761e+21
-13.6659  1.15618e+21
-13.5486  1.18846e+21
-13.4313  1.22529e+21
-13.314  1.26729e+21
-13.1967  1.31491e+21
-13.0794  1.36859e+21
-12.9621  1.42825e+21
-12.8448  1.4937e+21
-12.7275  1.56446e+21
-12.6102  1.63983e+21
-12.4929  1.719e+21
-12.3756  1.80114e+21
-12.2583  1.88555e+21
-12.141  1.97166e+21
-12.0237  2.05924e+21
-11.9064  2.14818e+21
-11.7891  2.23882e+21
-11.6718  2.33162e+21
-11.5544  2.42709e+21
-11.4371  2.52551e+21
-11.3198  2.62731e+21
-11.2025  2.73228e+21
-11.0852  2.84007e+21
-10.9679  2.94977e+21
-10.8506  3.06002e+21
-10.7333  3.16911e+21
-10.616  3.27536e+21
-10.4987  3.37714e+21
-10.3814  3.4726e+21
-10.2641  3.56065e+21
-10.1468  3.64117e+21
-10.0295  3.7142e+21
-9.91217  3.78079e+21
-9.79487  3.84324e+21
-9.67756  3.90417e+21
-9.56026  3.96682e+21
-9.44295  4.03478e+21
-9.32565  4.11216e+21
-9.20834  4.20225e+21
-9.09104  4.30825e+21
-8.97373  4.43237e+21
-8.85643  4.5765e+21
-8.73913  4.7407e+21
-8.62182  4.92444e+21
-8.50452  5.12585e+21
-8.38721  5.34249e+21
-8.26991  5.57037e+21
-8.1526  5.80559e+21
-8.03529  6.04325e+21
-7.91799  6.27886e+21
-7.80069  6.50826e+21
-7.68338  6.7272e+21
-7.56608  6.933e+21
-7.44877  7.12352e+21
-7.33146  7.29758e+21
-7.21416  7.45514e+21
-7.09685  7.59706e+21
-6.97955  7.72493e+21
-6.86224  7.84101e+21
-6.74494  7.94807e+21
-6.62763  8.04819e+21
-6.51033  8.1446e+21
-6.39302  8.23995e+21
-6.27572  8.33664e+21
-6.15842  8.43717e+21
-6.04111  8.54359e+21
-5.92381  8.65786e+21
-5.8065  8.782e+21
-5.68919  8.91727e+21
-5.57189  9.06511e+21
-5.45458  9.22678e+21
-5.33728  9.40312e+21
-5.21997  9.59391e+21
-5.10267  9.7994e+21
-4.98536  1.00184e+22
-4.86806  1.02492e+22
-4.75075  1.04897e+22
-4.63345  1.07368e+22
-4.51614  1.09869e+22
-4.39884  1.12358e+22
-4.28154  1.14798e+22
-4.16423  1.17151e+22
-4.04692  1.19375e+22
-3.92962  1.21449e+22
-3.81231  1.23352e+22
-3.69501  1.25071e+22
-3.5777  1.26609e+22
-3.4604  1.27976e+22
-3.34309  1.29186e+22
-3.22579  1.30261e+22
-3.10849  1.31232e+22
-2.99118  1.32124e+22
-2.87387  1.32967e+22
-2.75657  1.33788e+22
-2.63926  1.34608e+22
-2.52196  1.35447e+22
-2.40465  1.36318e+22
-2.28735  1.37227e+22
-2.17005  1.38179e+22
-2.05274  1.39175e+22
-1.93544  1.40206e+22
-1.81813  1.41268e+22
-1.70083  1.4235e+22
-1.58352  1.43441e+22
-1.46622  1.44531e+22
-1.34891  1.45605e+22
-1.2316  1.46653e+22
-1.1143  1.47661e+22
-0.996995  1.48616e+22
-0.87969  1.49505e+22
-0.762385  1.50309e+22
-0.64508  1.51024e+22
-0.527775  1.51637e+22
-0.41047  1.52133e+22
-0.293165  1.5251e+22
-0.17586  1.5276e+22
-0.058555  1.52882e+22
0.05875  1.52872e+22
0.176055  1.5273e+22
0.29336  1.5246e+22
0.410665  1.52065e+22
0.52797  1.5155e+22
0.645275  1.50922e+22
0.76258  1.50192e+22
0.879885  1.49374e+22
0.99719  1.48476e+22
1.1145  1.47511e+22
1.2318  1.46496e+22
1.3491  1.45442e+22
1.46641  1.44361e+22
1.58371  1.43266e+22
1.70102  1.4217e+22
1.81832  1.41084e+22
1.93563  1.40019e+22
2.05294  1.38982e+22
2.17024  1.37985e+22
2.28754  1.3703e+22
2.40485  1.36116e+22
2.52216  1.35242e+22
2.63946  1.344e+22
2.75677  1.33576e+22
2.87407  1.32753e+22
2.99137  1.31906e+22
3.10868  1.31011e+22
3.22599  1.30035e+22
3.34329  1.28956e+22
3.4606  1.27742e+22
3.5779  1.26371e+22
3.69521  1.24828e+22
3.81251  1.23103e+22
3.92982  1.21193e+22
4.04712  1.19111e+22
4.16443  1.16878e+22
4.28173  1.14517e+22
4.39903  1.12067e+22
4.51634  1.09569e+22
4.63364  1.07061e+22
4.75095  1.04583e+22
4.86825  1.0217e+22
4.98556  9.98554e+21
5.10286  9.76622e+21
5.22017  9.56021e+21
5.33748  9.36916e+21
5.45478  9.19282e+21
5.57209  9.03117e+21
5.68939  8.88318e+21
5.8067  8.7479e+21
5.924  8.62387e+21
6.0413  8.50973e+21
6.15861  8.4034e+21
6.27591  8.30276e+21
6.39322  8.20601e+21
6.51052  8.11046e+21
6.62783  8.01362e+21
6.74514  7.91291e+21
6.86244  7.80568e+21
6.97975  7.68897e+21
7.09705  7.56063e+21
7.21436  7.41828e+21
7.33166  7.26015e+21
7.44897  7.08596e+21
7.56627  6.89557e+21
7.68358  6.68986e+21
7.80088  6.47125e+21
7.91819  6.24252e+21
8.03549  6.00773e+21
8.1528  5.77123e+21
8.2701  5.53717e+21
8.38741  5.31059e+21
8.50471  5.09531e+21
8.62202  4.89531e+21
8.73932  4.71277e+21
8.85662  4.54981e+21
8.97393  4.40688e+21
9.09123  4.2836e+21
9.20854  4.17844e+21
9.32584  4.08898e+21
9.44315  4.0121e+21
9.56045  3.94427e+21
9.67776  3.88192e+21
9.79506  3.82106e+21
9.91237  3.75873e+21
10.0297  3.69216e+21
10.147  3.61937e+21
10.2643  3.53908e+21
10.3816  3.45112e+21
10.4989  3.3559e+21
10.6162  3.25455e+21
10.7335  3.14855e+21
10.8508  3.03983e+21
10.9681  2.93e+21
11.0854  2.82086e+21
11.2027  2.71352e+21
11.32  2.6089e+21
11.4373  2.50756e+21
11.5546  2.40943e+21
11.6719  2.3143e+21
11.7893  2.22197e+21
11.9066  2.13171e+21
12.0239  2.04301e+21
12.1412  1.95599e+21
12.2585  1.8703e+21
12.3758  1.78645e+21
12.4931  1.70486e+21
12.6104  1.62629e+21
12.7277  1.55151e+21
12.845  1.4813e+21
12.9623  1.41636e+21
13.0796  1.35734e+21
13.1969  1.30411e+21
13.3142  1.25703e+21
13.4315  1.21553e+21
13.5488  1.17909e+21
13.6661  1.14715e+21
13.7834  1.11891e+21
13.9007  1.09348e+21
14.018  1.07011e+21
14.1354  1.04821e+21
14.2527  1.02709e+21
14.37  1.00629e+21
14.4873  9.85499e+20
14.6046  9.64576e+20
14.7219  9.43501e+20
14.8392  9.22471e+20
14.9565  9.01639e+20
15.0738  8.81537e+20
15.1911  8.62431e+20
15.3084  8.44856e+20
15.4257  8.29061e+20
15.543  8.15383e+20
15.6603  8.03809e+20
15.7776  7.94189e+20
15.8949  7.86077e+20
16.0122  7.78966e+20
16.1295  7.71871e+20
16.2468  7.639e+20
16.3641  7.54011e+20
16.4815  7.41108e+20
16.5988  7.24302e+20
16.7161  7.02816e+20
16.8334  6.76171e+20
16.9507  6.44228e+20
17.068  6.07342e+20
17.1853  5.66212e+20
17.3026  5.2204e+20
17.4199  4.76197e+20
17.5372  4.30368e+20
17.6545  3.86403e+20
17.7718  3.45765e+20
17.8891  3.09708e+20
18.0064  2.79187e+20
18.1237  2.54546e+20
18.241  2.35615e+20
18.3583  2.21982e+20
18.4756  2.1287e+20
18.5929  2.07349e+20
18.7102  2.04487e+20
18.8275  2.03669e+20
18.9449  2.04207e+20
19.0622  2.0577e+20
19.1795  2.08163e+20
19.2968  2.11227e+20
19.4141  2.14921e+20
19.5314  2.19089e+20
19.6487  2.2359e+20
19.766  2.28247e+20
19.8833  2.32587e+20
20.0006  2.36398e+20
20.1179  2.39171e+20
20.2352  2.40511e+20
20.3525  2.3996e+20
20.4698  2.37139e+20
20.5871  2.31812e+20
20.7044  2.23833e+20
20.8217  2.13251e+20
20.939  2.00288e+20
21.0563  1.85354e+20
21.1736  1.69111e+20
21.291  1.52307e+20
21.4083  1.35762e+20
21.5256  1.20112e+20
21.6429  1.06044e+20
21.7602  9.39142e+19
21.8775  8.39346e+19
21.9948  7.61256e+19
22.1121  7.04027e+19
22.2294  6.65281e+19
22.3467  6.43091e+19
22.464  6.3485e+19
22.5813  6.38596e+19
22.6986  6.51944e+19
22.8159  6.7243e+19
22.9332  6.968e+19
23.0505  7.21532e+19
23.1678  7.42679e+19
23.2851  7.56563e+19
23.4024  7.60307e+19
23.5198  7.52201e+19
23.6371  7.31926e+19
23.7544  7.01207e+19
23.8717  6.63051e+19
23.989  6.21615e+19
24.1063  5.81077e+19
24.2236  5.45726e+19
24.3409  5.18926e+19
24.4582  5.02798e+19
24.5755  4.97865e+19
24.6928  5.03364e+19
24.8101  5.17212e+19
24.9274  5.36314e+19
25.0447  5.571e+19
25.162  5.76078e+19
25.2793  5.90444e+19
25.3966  5.98258e+19
25.5139  5.99482e+19
25.6312  5.95236e+19
25.7485  5.88286e+19
25.8658  5.82474e+19
25.9832  5.81081e+19
26.1005  5.88593e+19
26.2178  6.06719e+19
26.3351  6.35833e+19
26.4524  6.74989e+19
26.5697  7.21188e+19
26.687  7.70049e+19
26.8043  8.17029e+19
26.9216  8.5757e+19
27.0389  8.87508e+19
27.1562  9.04644e+19
27.2735  9.07465e+19
27.3908  8.95696e+19
27.5081  8.70104e+19
27.6254  8.31928e+19
27.7427  7.83158e+19
27.86  7.2554e+19
27.9773  6.61516e+19
28.0946  5.93644e+19
28.212  5.2436e+19
28.3293  4.56615e+19
28.4466  3.92702e+19
28.5639  3.34575e+19
28.6812  2.8383e+19
28.7985  2.40885e+19
28.9158  2.05567e+19
29.0331  1.77033e+19
29.1504  1.5385e+19
29.2677  1.34674e+19
29.385  1.18048e+19
29.5023  1.02876e+19
29.6196  8.84713e+18
29.7369  7.47014e+18
29.8542  6.17922e+18
29.9715  5.02412e+18
30.0888  4.08546e+18
30.2061  3.46838e+18
30.3234  3.28691e+18
30.4407  3.63981e+18
30.558  4.60622e+18
30.6754  6.21012e+18
30.7927  8.40745e+18
30.91  1.10734e+19
31.0273  1.39973e+19
31.1446  1.69277e+19
31.2619  1.9564e+19
31.3792  2.16517e+19
31.4965  2.29767e+19
31.6138  2.34505e+19
31.7311  2.30878e+19
31.8484  2.20205e+19
31.9657  2.04631e+19
32.083  1.86588e+19
32.2003  1.68659e+19
32.3176  1.53005e+19
32.4349  1.40834e+19
32.5522  1.32856e+19
32.6695  1.28787e+19
32.7868  1.27978e+19
32.9042  1.29365e+19
33.0215  1.31667e+19
33.1388  1.34099e+19
33.2561  1.35731e+19
33.3734  1.36444e+19
33.4907  1.36173e+19
33.608  1.35527e+19
33.7253  1.35286e+19
33.8426  1.36175e+19
33.9599  1.39175e+19
34.0772  1.44555e+19
34.1945  1.52524e+19
34.3118  1.62676e+19
34.4291  1.74338e+19
34.5464  1.86595e+19
34.6637  1.98787e+19
34.781  2.10979e+19
34.8983  2.23656e+19
35.0156  2.38214e+19
35.1329  2.5621e+19
35.2503  2.79114e+19
35.3676  3.07487e+19
35.4849  3.40286e+19
35.6022  3.75101e+19
35.7195  4.07569e+19
35.8368  4.3287e+19
35.9541  4.4537e+19
36.0714  4.41914e+19
36.1887  4.2065e+19
36.306  3.8327e+19
36.4233  3.34498e+19
36.5406  2.81449e+19
36.6579  2.32209e+19
36.7752  1.94582e+19
36.8925  1.74056e+19
37.0098  1.7307e+19
37.1271  1.90172e+19
37.2444  2.20565e+19
37.3617  2.57088e+19
37.479  2.91713e+19
37.5964  3.17299e+19
37.7137  3.28771e+19
37.831  3.23809e+19
37.9483  3.0368e+19
38.0656  2.71151e+19
38.1829  2.31498e+19
38.3002  1.89549e+19
38.4175  1.49817e+19
38.5348  1.15751e+19
38.6521  8.91133e+18
38.7694  7.07211e+18
38.8867  6.03912e+18
39.004  5.7573e+18
39.1213  6.15415e+18
39.2386  7.14132e+18
39.3559  8.58873e+18
39.4732  1.03222e+19
39.5905  1.21249e+19
39.7078  1.37304e+19
39.8251  1.48732e+19
39.9425  1.53265e+19
40.0598  1.49678e+19
40.1771  1.38465e+19
40.2944  1.21397e+19
40.4117  1.01264e+19
40.529  8.17252e+18
40.6463  6.60987e+18
40.7636  5.65512e+18
40.8809  5.39639e+18
40.9982  5.77995e+18
41.1155  6.60419e+18
41.2328  7.61914e+18
41.3501  8.55265e+18
41.4674  9.22216e+18
41.5847  9.53326e+18
41.702  9.49511e+18
41.8193  9.23052e+18
41.9366  8.90299e+18
42.0539  8.70251e+18
42.1712  8.78255e+18
42.2885  9.25718e+18
42.4059  1.01871e+19
42.5232  1.15499e+19
42.6405  1.32527e+19
42.7578  1.51505e+19
42.8751  1.70096e+19
42.9924  1.8558e+19
43.1097  1.9514e+19
43.227  1.96262e+19
43.3443  1.87259e+19
43.4616  1.68168e+19
43.5789  1.40794e+19
43.6962  1.09232e+19
43.8135  7.87154e+18
43.9308  5.53392e+18
44.0481  4.40563e+18
44.1654  4.79119e+18
44.2827  6.71773e+18
44.4  9.86566e+18
44.5173  1.36526e+19
44.6347  1.73289e+19
44.752  2.01579e+19
44.8693  2.16113e+19
44.9866  2.14882e+19
45.1039  1.98957e+19
45.2212  1.73756e+19
45.3385  1.4611e+19
45.4558  1.23434e+19
45.5731  1.12028e+19
45.6904  1.15153e+19
45.8077  1.32547e+19
45.925  1.60643e+19
46.0423  1.93508e+19
46.1596  2.24181e+19
46.2769  2.46461e+19
46.3942  2.56077e+19
46.5115  2.51207e+19
46.6288  2.33063e+19
46.7461  2.04698e+19
46.8634  1.70854e+19
46.9808  1.36381e+19
47.0981  1.05441e+19
47.2154  8.12234e+18
47.3327  6.52085e+18
47.45  5.7921e+18
47.5673  5.8556e+18
47.6846  6.56956e+18
47.8019  7.79724e+18
47.9192  9.3637e+18
48.0365  1.11431e+19
48.1538  1.30141e+19
48.2711  1.48916e+19
48.3884  1.67038e+19
48.5057  1.84148e+19
48.623  1.99706e+19
48.7403  2.13094e+19
48.8576  2.24142e+19
48.9749  2.32007e+19
49.0922  2.35975e+19
49.2095  2.35555e+19
49.3269  2.30773e+19
49.4442  2.21589e+19
49.5615  2.0912e+19
49.6788  1.94669e+19
49.7961  1.79995e+19
49.9134  1.66839e+19
50.0307  1.56404e+19
50.148  1.49151e+19
50.2653  1.44832e+19
50.3826  1.42261e+19
50.4999  1.39543e+19
50.6172  1.34972e+19
50.7345  1.27008e+19
50.8518  1.15161e+19
50.9691  9.96108e+18
