#S 1 spectral density
#N 2
#UFWHM 12.9036
#L  abscissas [um]  spectral density
-58.5938  2.52978e+19
-58.4764  2.27216e+19
-58.3591  1.96403e+19
-58.2418  1.64916e+19
-58.1245  1.35959e+19
-58.0072  1.10881e+19
-57.8899  8.90973e+18
-57.7726  6.94841e+18
-57.6553  5.10384e+18
-57.538  3.34791e+18
-57.4207  1.77506e+18
-57.3034  6.01966e+17
-57.1861  8.15963e+16
-57.0688  4.542e+17
-56.9515  1.87401e+18
-56.8342  4.35489e+18
-56.7169  7.78663e+18
-56.5996  1.19244e+19
-56.4823  1.64631e+19
-56.365  2.10477e+19
-56.2477  2.53544e+19
-56.1303  2.90503e+19
-56.013  3.1864e+19
-55.8957  3.35321e+19
-55.7784  3.3872e+19
-55.6611  3.27372e+19
-55.5438  3.00783e+19
-55.4265  2.60812e+19
-55.3092  2.10299e+19
-55.1919  1.54388e+19
-55.0746  9.94247e+18
-54.9573  5.2464e+18
-54.84  2.01192e+18
-54.7227  7.39458e+17
-54.6054  1.67612e+18
-54.4881  4.77938e+18
-54.3708  9.72843e+18
-54.2535  1.59406e+19
-54.1362  2.26967e+19
-54.0189  2.92682e+19
-53.9016  3.49677e+19
-53.7842  3.92411e+19
-53.6669  4.18187e+19
-53.5496  4.25247e+19
-53.4323  4.14671e+19
-53.315  3.88391e+19
-53.1977  3.49751e+19
-53.0804  3.0281e+19
-52.9631  2.51524e+19
-52.8458  1.99913e+19
-52.7285  1.51398e+19
-52.6112  1.08723e+19
-52.4939  7.35455e+18
-52.3766  4.68224e+18
-52.2593  2.8624e+18
-52.142  1.84992e+18
-52.0247  1.55982e+18
-51.9074  1.91261e+18
-51.7901  2.84938e+18
-51.6728  4.33127e+18
-51.5555  6.35496e+18
-51.4381  8.90821e+18
-51.3208  1.19485e+19
-51.2035  1.54075e+19
-51.0862  1.91364e+19
-50.9689  2.29568e+19
-50.8516  2.66492e+19
-50.7343  2.99644e+19
-50.617  3.26966e+19
-50.4997  3.46995e+19
-50.3824  3.58291e+19
-50.2651  3.60627e+19
-50.1478  3.5357e+19
-50.0305  3.37975e+19
-49.9132  3.14015e+19
-49.7959  2.82996e+19
-49.6786  2.46396e+19
-49.5613  2.06212e+19
-49.444  1.64799e+19
-49.3267  1.2476e+19
-49.2094  8.85524e+18
-49.092  5.85612e+18
-48.9747  3.62962e+18
-48.8574  2.27189e+18
-48.7401  1.77793e+18
-48.6228  2.06312e+18
-48.5055  2.97676e+18
-48.3882  4.35061e+18
-48.2709  5.98824e+18
-48.1536  7.7236e+18
-48.0363  9.41318e+18
-47.919  1.09529e+19
-47.8017  1.22594e+19
-47.6844  1.33042e+19
-47.5671  1.40722e+19
-47.4498  1.45805e+19
-47.3325  1.48519e+19
-47.2152  1.49226e+19
-47.0979  1.47964e+19
-46.9806  1.44429e+19
-46.8633  1.37929e+19
-46.7459  1.28101e+19
-46.6286  1.141e+19
-46.5113  9.62986e+18
-46.394  7.62295e+18
-46.2767  5.71505e+18
-46.1594  4.39138e+18
-46.0421  4.25421e+18
-45.9248  5.90809e+18
-45.8075  9.81009e+18
-45.6902  1.61554e+19
-45.5729  2.47003e+19
-45.4556  3.48285e+19
-45.3383  4.54582e+19
-45.221  5.53232e+19
-45.1037  6.31019e+19
-44.9864  6.76763e+19
-44.8691  6.83865e+19
-44.7518  6.5185e+19
-44.6345  5.85587e+19
-44.5172  4.9479e+19
-44.3998  3.9296e+19
-44.2825  2.93755e+19
-44.1652  2.09521e+19
-44.0479  1.48375e+19
-43.9306  1.14121e+19
-43.8133  1.05506e+19
-43.696  1.17856e+19
-43.5787  1.43961e+19
-43.4614  1.75947e+19
-43.3441  2.06933e+19
-43.2268  2.32057e+19
-43.1095  2.48446e+19
-42.9922  2.5558e+19
-42.8749  2.54849e+19
-42.7576  2.48524e+19
-42.6403  2.39165e+19
-42.523  2.29582e+19
-42.4057  2.21576e+19
-42.2884  2.16124e+19
-42.171  2.13226e+19
-42.0537  2.12328e+19
-41.9364  2.1157e+19
-41.8191  2.08756e+19
-41.7018  2.01753e+19
-41.5845  1.88707e+19
-41.4672  1.68975e+19
-41.3499  1.43172e+19
-41.2326  1.13559e+19
-41.1153  8.36647e+18
-40.998  5.77052e+18
-40.8807  3.99791e+18
-40.7634  3.36248e+18
-40.6461  4.01861e+18
-40.5288  5.88932e+18
-40.4115  8.71098e+18
-40.2942  1.20543e+19
-40.1769  1.54043e+19
-40.0596  1.82988e+19
-39.9423  2.03695e+19
-39.825  2.13873e+19
-39.7076  2.13124e+19
-39.5903  2.02765e+19
-39.473  1.84909e+19
-39.3557  1.62241e+19
-39.2384  1.37648e+19
-39.1211  1.13666e+19
-39.0038  9.26532e+18
-38.8865  7.67319e+18
-38.7692  6.77764e+18
-38.6519  6.72508e+18
-38.5346  7.58685e+18
-38.4173  9.32005e+18
-38.3  1.17603e+19
-38.1827  1.45709e+19
-38.0654  1.72981e+19
-37.9481  1.94336e+19
-37.8308  2.04894e+19
-37.7135  2.01627e+19
-37.5962  1.83695e+19
-37.4789  1.53297e+19
-37.3615  1.15362e+19
-37.2442  7.66406e+18
-37.1269  4.48021e+18
-37.0096  2.60241e+18
-36.8923  2.43272e+18
-36.775  4.01673e+18
-36.6577  7.04244e+18
-36.5404  1.08902e+19
-36.4231  1.47857e+19
-36.3058  1.79405e+19
-36.1885  1.97393e+19
-36.0712  1.98476e+19
-35.9539  1.82774e+19
-35.8366  1.53531e+19
-35.7193  1.16453e+19
-35.602  7.87932e+18
-35.4847  4.71743e+18
-35.3674  2.72216e+18
-35.2501  2.26532e+18
-35.1328  3.50087e+18
-35.0154  6.38252e+18
-34.8981  1.07364e+19
-34.7808  1.6302e+19
-34.6635  2.27672e+19
-34.5462  2.9851e+19
-34.4289  3.73001e+19
-34.3116  4.48e+19
-34.1943  5.20624e+19
-34.077  5.88116e+19
-33.9597  6.46869e+19
-33.8424  6.93697e+19
-33.7251  7.25173e+19
-33.6078  7.39079e+19
-33.4905  7.33695e+19
-33.3732  7.08409e+19
-33.2559  6.64229e+19
-33.1386  6.03468e+19
-33.0213  5.29826e+19
-32.904  4.48534e+19
-32.7867  3.65092e+19
-32.6693  2.85827e+19
-32.552  2.1675e+19
-32.4347  1.63565e+19
-32.3174  1.30699e+19
-32.2001  1.20728e+19
-32.0828  1.34196e+19
-31.9655  1.69554e+19
-31.8482  2.23251e+19
-31.7309  2.90142e+19
-31.6136  3.64197e+19
-31.4963  4.39055e+19
-31.379  5.08728e+19
-31.2617  5.68481e+19
-31.1444  6.14716e+19
-31.0271  6.4526e+19
-30.9098  6.60305e+19
-30.7925  6.59599e+19
-30.6752  6.45269e+19
-30.5579  6.19563e+19
-30.4406  5.8509e+19
-30.3232  5.4531e+19
-30.2059  5.02727e+19
-30.0886  4.60501e+19
-29.9713  4.21438e+19
-29.854  3.87282e+19
-29.7367  3.59234e+19
-29.6194  3.38184e+19
-29.5021  3.23926e+19
-29.3848  3.15771e+19
-29.2675  3.12813e+19
-29.1502  3.13935e+19
-29.0329  3.18399e+19
-28.9156  3.25312e+19
-28.7983  3.34025e+19
-28.681  3.4426e+19
-28.5637  3.55502e+19
-28.4464  3.67501e+19
-28.3291  3.79669e+19
-28.2118  3.91368e+19
-28.0944  4.02251e+19
-27.9771  4.12024e+19
-27.8598  4.20308e+19
-27.7425  4.27316e+19
-27.6252  4.32369e+19
-27.5079  4.35677e+19
-27.3906  4.36655e+19
-27.2733  4.34886e+19
-27.156  4.30193e+19
-27.0387  4.22072e+19
-26.9214  4.11221e+19
-26.8041  3.98638e+19
-26.6868  3.86015e+19
-26.5695  3.75085e+19
-26.4522  3.67889e+19
-26.3349  3.6629e+19
-26.2176  3.71093e+19
-26.1003  3.82556e+19
-25.983  3.99523e+19
-25.8657  4.2031e+19
-25.7483  4.4284e+19
-25.631  4.65307e+19
-25.5137  4.86179e+19
-25.3964  5.04405e+19
-25.2791  5.19906e+19
-25.1618  5.33076e+19
-25.0445  5.44569e+19
-24.9272  5.55553e+19
-24.8099  5.6666e+19
-24.6926  5.79207e+19
-24.5753  5.94825e+19
-24.458  6.14647e+19
-24.3407  6.41434e+19
-24.2234  6.78289e+19
-24.1061  7.28975e+19
-23.9888  7.97871e+19
-23.8715  8.89352e+19
-23.7542  1.00773e+20
-23.6369  1.15645e+20
-23.5196  1.33749e+20
-23.4023  1.55061e+20
-23.2849  1.79324e+20
-23.1676  2.05991e+20
-23.0503  2.34145e+20
-22.933  2.62746e+20
-22.8157  2.90294e+20
-22.6984  3.15263e+20
-22.5811  3.36151e+20
-22.4638  3.51591e+20
-22.3465  3.6055e+20
-22.2292  3.62533e+20
-22.1119  3.57538e+20
-21.9946  3.46098e+20
-21.8773  3.29316e+20
-21.76  3.0863e+20
-21.6427  2.85591e+20
-21.5254  2.61732e+20
-21.4081  2.38474e+20
-21.2908  2.16916e+20
-21.1735  1.97768e+20
-21.0561  1.8147e+20
-20.9388  1.68069e+20
-20.8215  1.57496e+20
-20.7042  1.49594e+20
-20.5869  1.44178e+20
-20.4696  1.41092e+20
-20.3523  1.40317e+20
-20.235  1.41904e+20
-20.1177  1.46061e+20
-20.0004  1.52979e+20
-19.8831  1.62792e+20
-19.7658  1.75807e+20
-19.6485  1.92015e+20
-19.5312  2.11317e+20
-19.4139  2.33338e+20
-19.2966  2.57481e+20
-19.1793  2.82861e+20
-19.062  3.08379e+20
-18.9447  3.32817e+20
-18.8274  3.54999e+20
-18.71  3.73764e+20
-18.5927  3.88369e+20
-18.4754  3.98402e+20
-18.3581  4.03731e+20
-18.2408  4.04917e+20
-18.1235  4.02588e+20
-18.0062  3.97847e+20
-17.8889  3.91855e+20
-17.7716  3.85683e+20
-17.6543  3.80718e+20
-17.537  3.77806e+20
-17.4197  3.78037e+20
-17.3024  3.82114e+20
-17.1851  3.90724e+20
-17.0678  4.04341e+20
-16.9505  4.23211e+20
-16.8332  4.47389e+20
-16.7159  4.76704e+20
-16.5986  5.10675e+20
-16.4813  5.48582e+20
-16.364  5.8944e+20
-16.2466  6.32143e+20
-16.1293  6.75207e+20
-16.012  7.17714e+20
-15.8947  7.58396e+20
-15.7774  7.96529e+20
-15.6601  8.31596e+20
-15.5428  8.63543e+20
-15.4255  8.92576e+20
-15.3082  9.19629e+20
-15.1909  9.45436e+20
-15.0736  9.71491e+20
-14.9563  9.99022e+20
-14.839  1.02945e+21
-14.7217  1.06368e+21
-14.6044  1.10269e+21
-14.4871  1.1467e+21
-14.3698  1.19566e+21
-14.2525  1.24873e+21
-14.1352  1.30465e+21
-14.0178  1.36177e+21
-13.9005  1.41823e+21
-13.7832  1.47191e+21
-13.6659  1.52081e+21
-13.5486  1.56342e+21
-13.4313  1.5985e+21
-13.314  1.62529e+21
-13.1967  1.64366e+21
-13.0794  1.65428e+21
-12.9621  1.65797e+21
-12.8448  1.65621e+21
-12.7275  1.65058e+21
-12.6102  1.64299e+21
-12.4929  1.63515e+21
-12.3756  1.62862e+21
-12.2583  1.62493e+21
-12.141  1.62522e+21
-12.0237  1.6304e+21
-11.9064  1.64112e+21
-11.7891  1.6579e+21
-11.6718  1.6813e+21
-11.5544  1.71175e+21
-11.4371  1.74972e+21
-11.3198  1.79604e+21
-11.2025  1.85156e+21
-11.0852  1.91752e+21
-10.9679  1.99528e+21
-10.8506  2.08634e+21
-10.7333  2.19215e+21
-10.616  2.31415e+21
-10.4987  2.45363e+21
-10.3814  2.61103e+21
-10.2641  2.78641e+21
-10.1468  2.97953e+21
-10.0295  3.18869e+21
-9.91217  3.41161e+21
-9.79487  3.64559e+21
-9.67756  3.88689e+21
-9.56026  4.13126e+21
-9.44295  4.37412e+21
-9.32565  4.61146e+21
-9.20834  4.83875e+21
-9.09104  5.05248e+21
-8.97373  5.24974e+21
-8.85643  5.42908e+21
-8.73913  5.58946e+21
-8.62182  5.73144e+21
-8.50452  5.8564e+21
-8.38721  5.96717e+21
-8.26991  6.06622e+21
-8.1526  6.15747e+21
-8.03529  6.24406e+21
-7.91799  6.32976e+21
-7.80069  6.4176e+21
-7.68338  6.50994e+21
-7.56608  6.60922e+21
-7.44877  6.71695e+21
-7.33146  6.83399e+21
-7.21416  6.9607e+21
-7.09685  7.09718e+21
-6.97955  7.24302e+21
-6.86224  7.39771e+21
-6.74494  7.56041e+21
-6.62763  7.7296e+21
-6.51033  7.90434e+21
-6.39302  8.08318e+21
-6.27572  8.26468e+21
-6.15842  8.44747e+21
-6.04111  8.62993e+21
-5.92381  8.81047e+21
-5.8065  8.98809e+21
-5.68919  9.1614e+21
-5.57189  9.32958e+21
-5.45458  9.49199e+21
-5.33728  9.64906e+21
-5.21997  9.80068e+21
-5.10267  9.94845e+21
-4.98536  1.00935e+22
-4.86806  1.02379e+22
-4.75075  1.03837e+22
-4.63345  1.05335e+22
-4.51614  1.06892e+22
-4.39884  1.08529e+22
-4.28154  1.10262e+22
-4.16423  1.12105e+22
-4.04692  1.14055e+22
-3.92962  1.16112e+22
-3.81231  1.1827e+22
-3.69501  1.20509e+22
-3.5777  1.2281e+22
-3.4604  1.25144e+22
-3.34309  1.27482e+22
-3.22579  1.29792e+22
-3.10849  1.32049e+22
-2.99118  1.3422e+22
-2.87387  1.36285e+22
-2.75657  1.38228e+22
-2.63926  1.40038e+22
-2.52196  1.4171e+22
-2.40465  1.43247e+22
-2.28735  1.44651e+22
-2.17005  1.45937e+22
-2.05274  1.4712e+22
-1.93544  1.48206e+22
-1.81813  1.49216e+22
-1.70083  1.50161e+22
-1.58352  1.5105e+22
-1.46622  1.51893e+22
-1.34891  1.52691e+22
-1.2316  1.53447e+22
-1.1143  1.54159e+22
-0.996995  1.54823e+22
-0.87969  1.55437e+22
-0.762385  1.55983e+22
-0.64508  1.56466e+22
-0.527775  1.56875e+22
-0.41047  1.57207e+22
-0.293165  1.57454e+22
-0.17586  1.57622e+22
-0.058555  1.57704e+22
0.05875  1.577e+22
0.176055  1.57612e+22
0.29336  1.57437e+22
0.410665  1.57182e+22
0.52797  1.56842e+22
0.645275  1.56425e+22
0.76258  1.55933e+22
0.879885  1.55377e+22
0.99719  1.54756e+22
1.1145  1.54082e+22
1.2318  1.53359e+22
1.3491  1.52592e+22
1.46641  1.51782e+22
1.58371  1.50928e+22
1.70102  1.50027e+22
1.81832  1.4907e+22
1.93563  1.48047e+22
2.05294  1.46947e+22
2.17024  1.45756e+22
2.28754  1.4446e+22
2.40485  1.43042e+22
2.52216  1.41495e+22
2.63946  1.39814e+22
2.75677  1.37993e+22
2.87407  1.3604e+22
2.99137  1.33965e+22
3.10868  1.31784e+22
3.22599  1.2952e+22
3.34329  1.27201e+22
3.4606  1.24856e+22
3.5779  1.22515e+22
3.69521  1.20208e+22
3.81251  1.17965e+22
3.92982  1.15802e+22
4.04712  1.13739e+22
4.16443  1.11787e+22
4.28173  1.09944e+22
4.39903  1.08207e+22
4.51634  1.0657e+22
4.63364  1.05013e+22
4.75095  1.03516e+22
4.86825  1.02057e+22
4.98556  1.00613e+22
5.10286  9.9164e+21
5.22017  9.76841e+21
5.33748  9.61664e+21
5.45478  9.45953e+21
5.57209  9.29694e+21
5.68939  9.12845e+21
5.8067  8.95481e+21
5.924  8.77683e+21
6.0413  8.59598e+21
6.15861  8.41327e+21
6.27591  8.23006e+21
6.39322  8.04846e+21
6.51052  7.86948e+21
6.62783  7.69463e+21
6.74514  7.52542e+21
6.86244  7.36313e+21
6.97975  7.20872e+21
7.09705  7.06328e+21
7.21436  6.92731e+21
7.33166  6.80095e+21
7.44897  6.68454e+21
7.56627  6.57737e+21
7.68358  6.47848e+21
7.80088  6.38628e+21
7.91819  6.29861e+21
8.03549  6.21301e+21
8.1528  6.12634e+21
8.2701  6.03486e+21
8.38741  5.93538e+21
8.50471  5.8243e+21
8.62202  5.69907e+21
8.73932  5.55667e+21
8.85662  5.39616e+21
8.97393  5.21697e+21
9.09123  5.01977e+21
9.20854  4.80645e+21
9.32584  4.57986e+21
9.44315  4.34341e+21
9.56045  4.10135e+21
9.67776  3.85824e+21
9.79506  3.61822e+21
9.91237  3.3856e+21
10.0297  3.16401e+21
10.147  2.95634e+21
10.2643  2.7647e+21
10.3816  2.59048e+21
10.4989  2.43431e+21
10.6162  2.296e+21
10.7335  2.17488e+21
10.8508  2.06994e+21
10.9681  1.97963e+21
11.0854  1.90265e+21
11.2027  1.83734e+21
11.32  1.78238e+21
11.4373  1.73663e+21
11.5546  1.69912e+21
11.6719  1.66912e+21
11.7893  1.64623e+21
11.9066  1.62985e+21
12.0239  1.61939e+21
12.1412  1.61468e+21
12.2585  1.61462e+21
12.3758  1.6186e+21
12.4931  1.62528e+21
12.6104  1.63332e+21
12.7277  1.64099e+21
12.845  1.64663e+21
12.9623  1.64835e+21
13.0796  1.64474e+21
13.1969  1.63407e+21
13.3142  1.61576e+21
13.4315  1.589e+21
13.5488  1.554e+21
13.6661  1.51152e+21
13.7834  1.46271e+21
13.9007  1.40928e+21
14.018  1.35308e+21
14.1354  1.29618e+21
14.2527  1.24058e+21
14.37  1.18787e+21
14.4873  1.13925e+21
14.6046  1.09545e+21
14.7219  1.05667e+21
14.8392  1.02264e+21
14.9565  9.92427e+20
15.0738  9.65104e+20
15.1911  9.39206e+20
15.3084  9.13484e+20
15.4257  8.86581e+20
15.543  8.57657e+20
15.6603  8.25908e+20
15.7776  7.91033e+20
15.8949  7.53103e+20
16.0122  7.12702e+20
16.1295  6.70487e+20
16.2468  6.27605e+20
16.3641  5.85283e+20
16.4815  5.44711e+20
16.5988  5.07102e+20
16.7161  4.73414e+20
16.8334  4.4439e+20
16.9507  4.20444e+20
17.068  4.01863e+20
17.1853  3.88511e+20
17.3026  3.8019e+20
17.4199  3.76306e+20
17.5372  3.7626e+20
17.6545  3.79361e+20
17.7718  3.84562e+20
17.8891  3.90782e+20
18.0064  3.96954e+20
18.1237  4.01813e+20
18.241  4.04133e+20
18.3583  4.02963e+20
18.4756  3.97603e+20
18.5929  3.8757e+20
18.7102  3.72844e+20
18.8275  3.54061e+20
18.9449  3.31894e+20
19.0622  3.07448e+20
19.1795  2.82013e+20
19.2968  2.56676e+20
19.4141  2.32651e+20
19.5314  2.10744e+20
19.6487  1.91559e+20
19.766  1.75507e+20
19.8833  1.62596e+20
20.0006  1.52863e+20
20.1179  1.46064e+20
20.2352  1.42021e+20
20.3525  1.40472e+20
20.4698  1.41275e+20
20.5871  1.44382e+20
20.7044  1.49857e+20
20.8217  1.5781e+20
20.939  1.68427e+20
21.0563  1.81876e+20
21.1736  1.98235e+20
21.291  2.1744e+20
21.4083  2.39087e+20
21.5256  2.62345e+20
21.6429  2.8622e+20
21.7602  3.09285e+20
21.8775  3.29938e+20
21.9948  3.46613e+20
22.1121  3.57906e+20
22.2294  3.627e+20
22.3467  3.60605e+20
22.464  3.51398e+20
22.5813  3.3576e+20
22.6986  3.14745e+20
22.8159  2.89664e+20
22.9332  2.62065e+20
23.0505  2.33485e+20
23.1678  2.05313e+20
23.2851  1.78708e+20
23.4024  1.5452e+20
23.5198  1.33328e+20
23.6371  1.15318e+20
23.7544  1.00532e+20
23.8717  8.87654e+19
23.989  7.96679e+19
24.1063  7.27957e+19
24.2236  6.7718e+19
24.3409  6.40074e+19
24.4582  6.12807e+19
24.5755  5.92353e+19
24.6928  5.7634e+19
24.8101  5.63148e+19
24.9274  5.51415e+19
25.0447  5.40166e+19
25.162  5.28377e+19
25.2793  5.152e+19
25.3966  4.99546e+19
25.5139  4.81292e+19
25.6312  4.60602e+19
25.7485  4.38475e+19
25.8658  4.16405e+19
25.9832  3.96097e+19
26.1005  3.79982e+19
26.2178  3.69471e+19
26.3351  3.65416e+19
26.4524  3.67782e+19
26.5697  3.7562e+19
26.687  3.87115e+19
26.8043  4.00391e+19
26.9216  4.131e+19
27.0389  4.2399e+19
27.1562  4.32084e+19
27.2735  4.36803e+19
27.3908  4.38403e+19
27.5081  4.37487e+19
27.6254  4.34205e+19
27.7427  4.29202e+19
27.86  4.22454e+19
27.9773  4.14342e+19
28.0946  4.04809e+19
28.212  3.93881e+19
28.3293  3.8229e+19
28.4466  3.69992e+19
28.5639  3.5786e+19
28.6812  3.46348e+19
28.7985  3.35842e+19
28.9158  3.26766e+19
29.0331  3.19616e+19
29.1504  3.1494e+19
29.2677  3.13744e+19
29.385  3.16827e+19
29.5023  3.253e+19
29.6196  3.39828e+19
29.7369  3.61325e+19
29.8542  3.89821e+19
29.9715  4.2451e+19
30.0888  4.64107e+19
30.2061  5.06309e+19
30.3234  5.48819e+19
30.4407  5.88696e+19
30.558  6.22668e+19
30.6754  6.4806e+19
30.7927  6.61593e+19
30.91  6.61356e+19
31.0273  6.46003e+19
31.1446  6.14246e+19
31.2619  5.67402e+19
31.3792  5.0709e+19
31.4965  4.37192e+19
31.6138  3.62507e+19
31.7311  2.88616e+19
31.8484  2.22031e+19
31.9657  1.6886e+19
32.083  1.34039e+19
32.2003  1.21116e+19
32.3176  1.31587e+19
32.4349  1.64741e+19
32.5522  2.18057e+19
32.6695  2.87021e+19
32.7868  3.66169e+19
32.9042  4.49245e+19
33.0215  5.30095e+19
33.1388  6.03164e+19
33.2561  6.63291e+19
33.3734  7.06943e+19
33.4907  7.31533e+19
33.608  7.36591e+19
33.7253  7.22541e+19
33.8426  6.9056e+19
33.9599  6.43696e+19
34.0772  5.84796e+19
34.1945  5.17372e+19
34.3118  4.44759e+19
34.4291  3.69961e+19
34.5464  2.9584e+19
34.6637  2.25174e+19
34.781  1.60874e+19
34.8983  1.05826e+19
35.0156  6.28577e+18
35.1329  3.46198e+18
35.2503  2.28624e+18
35.3676  2.79494e+18
35.4849  4.82046e+18
35.6022  7.99807e+18
35.7195  1.17597e+19
35.8368  1.54129e+19
35.9541  1.82914e+19
36.0714  1.97902e+19
36.1887  1.96154e+19
36.306  1.77636e+19
36.4233  1.45763e+19
36.5406  1.06778e+19
36.6579  6.85325e+18
36.7752  3.88405e+18
36.8925  2.37113e+18
37.0098  2.61547e+18
37.1271  4.55715e+18
37.2444  7.80482e+18
37.3617  1.17127e+19
37.479  1.55206e+19
37.5964  1.85447e+19
37.7137  2.03187e+19
37.831  2.06015e+19
37.9483  1.95021e+19
38.0656  1.73297e+19
38.1829  1.45791e+19
38.3002  1.17504e+19
38.4175  9.31516e+18
38.5348  7.59172e+18
38.6521  6.74682e+18
38.7694  6.83031e+18
38.8867  7.75057e+18
39.004  9.3626e+18
39.1213  1.14746e+19
39.2386  1.38796e+19
39.3559  1.63458e+19
39.4732  1.86028e+19
39.5905  2.03812e+19
39.7078  2.1396e+19
39.8251  2.14284e+19
39.9425  2.03796e+19
40.0598  1.82861e+19
40.1771  1.53743e+19
40.2944  1.20053e+19
40.4117  8.66868e+18
40.529  5.86078e+18
40.6463  4.01326e+18
40.7636  3.39466e+18
40.8809  4.05452e+18
40.9982  5.85976e+18
41.1155  8.47474e+18
41.2328  1.1478e+19
41.3501  1.44374e+19
41.4674  1.70139e+19
41.5847  1.89732e+19
41.702  2.02576e+19
41.8193  2.09491e+19
41.9366  2.12078e+19
42.0539  2.12741e+19
42.1712  2.13624e+19
42.2885  2.16427e+19
42.4059  2.21867e+19
42.5232  2.29844e+19
42.6405  2.39468e+19
42.7578  2.48617e+19
42.8751  2.54754e+19
42.9924  2.5549e+19
43.1097  2.48137e+19
43.227  2.31696e+19
43.3443  2.06561e+19
43.4616  1.75486e+19
43.5789  1.4358e+19
43.6962  1.178e+19
43.8135  1.0584e+19
43.9308  1.14839e+19
44.0481  1.49618e+19
44.1654  2.1112e+19
44.2827  2.95614e+19
44.4  3.94649e+19
44.5173  4.95968e+19
44.6347  5.85911e+19
44.752  6.51522e+19
44.8693  6.82508e+19
44.9866  6.73865e+19
45.1039  6.27248e+19
45.2212  5.4875e+19
45.3385  4.49855e+19
45.4558  3.43888e+19
45.5731  2.43405e+19
45.6904  1.5863e+19
45.8077  9.63202e+18
45.925  5.82091e+18
46.0423  4.24982e+18
46.1596  4.445e+18
46.2769  5.79322e+18
46.3942  7.71226e+18
46.5115  9.69938e+18
46.6288  1.14543e+19
46.7461  1.28219e+19
46.8634  1.3786e+19
46.9808  1.43979e+19
47.0981  1.47347e+19
47.2154  1.48427e+19
47.3327  1.47689e+19
47.45  1.44739e+19
47.5673  1.3951e+19
47.6846  1.31852e+19
47.8019  1.21393e+19
47.9192  1.08287e+19
48.0365  9.29622e+18
48.1538  7.61065e+18
48.2711  5.89015e+18
48.3884  4.26745e+18
48.5057  2.91977e+18
48.623  2.03226e+18
48.7403  1.79068e+18
48.8576  2.3326e+18
48.9749  3.74323e+18
49.0922  6.02409e+18
49.2095  9.07329e+18
49.3269  1.27334e+19
49.4442  1.67677e+19
49.5615  2.09147e+19
49.6788  2.49015e+19
49.7961  2.85287e+19
49.9134  3.15518e+19
50.0307  3.38752e+19
50.148  3.54058e+19
50.2653  3.60404e+19
50.3826  3.57661e+19
50.4999  3.4598e+19
50.6172  3.2592e+19
50.7345  2.98589e+19
50.8518  2.65469e+19
50.9691  2.28815e+19
