#S 1 spectral density
#N 2
#UFWHM 31.3204
#L  abscissas [um]  spectral density
-58.5938  1.92756e+20
-58.4764  1.96143e+20
-58.3591  1.99938e+20
-58.2418  2.04178e+20
-58.1245  2.08888e+20
-58.0072  2.13823e+20
-57.8899  2.1861e+20
-57.7726  2.2296e+20
-57.6553  2.26476e+20
-57.538  2.28966e+20
-57.4207  2.30372e+20
-57.3034  2.3068e+20
-57.1861  2.29955e+20
-57.0688  2.28307e+20
-56.9515  2.25754e+20
-56.8342  2.22323e+20
-56.7169  2.18059e+20
-56.5996  2.12962e+20
-56.4823  2.07236e+20
-56.365  2.01165e+20
-56.2477  1.95172e+20
-56.1303  1.89719e+20
-56.013  1.8545e+20
-55.8957  1.82735e+20
-55.7784  1.81986e+20
-55.6611  1.83336e+20
-55.5438  1.86834e+20
-55.4265  1.92342e+20
-55.3092  1.99629e+20
-55.1919  2.08425e+20
-55.0746  2.18469e+20
-54.9573  2.29427e+20
-54.84  2.41116e+20
-54.7227  2.53098e+20
-54.6054  2.65143e+20
-54.4881  2.76728e+20
-54.3708  2.87419e+20
-54.2535  2.96658e+20
-54.1362  3.0402e+20
-54.0189  3.09001e+20
-53.9016  3.11419e+20
-53.7842  3.11169e+20
-53.6669  3.0834e+20
-53.5496  3.03064e+20
-53.4323  2.95789e+20
-53.315  2.86898e+20
-53.1977  2.76933e+20
-53.0804  2.66501e+20
-52.9631  2.56118e+20
-52.8458  2.46328e+20
-52.7285  2.37704e+20
-52.6112  2.30687e+20
-52.4939  2.25671e+20
-52.3766  2.22972e+20
-52.2593  2.22743e+20
-52.142  2.25035e+20
-52.0247  2.29759e+20
-51.9074  2.36642e+20
-51.7901  2.45344e+20
-51.6728  2.55398e+20
-51.5555  2.66228e+20
-51.4381  2.77153e+20
-51.3208  2.87641e+20
-51.2035  2.96883e+20
-51.0862  3.04379e+20
-50.9689  3.09548e+20
-50.8516  3.12073e+20
-50.7343  3.11848e+20
-50.617  3.08918e+20
-50.4997  3.0362e+20
-50.3824  2.96457e+20
-50.2651  2.88027e+20
-50.1478  2.79142e+20
-50.0305  2.70386e+20
-49.9132  2.6254e+20
-49.7959  2.55999e+20
-49.6786  2.51109e+20
-49.5613  2.48019e+20
-49.444  2.46757e+20
-49.3267  2.47007e+20
-49.2094  2.48534e+20
-49.092  2.5095e+20
-48.9747  2.53762e+20
-48.8574  2.56506e+20
-48.7401  2.58845e+20
-48.6228  2.60431e+20
-48.5055  2.61152e+20
-48.3882  2.61031e+20
-48.2709  2.60177e+20
-48.1536  2.58821e+20
-48.0363  2.57324e+20
-47.919  2.5604e+20
-47.8017  2.55331e+20
-47.6844  2.55515e+20
-47.5671  2.56837e+20
-47.4498  2.59454e+20
-47.3325  2.63407e+20
-47.2152  2.68573e+20
-47.0979  2.74714e+20
-46.9806  2.81441e+20
-46.8633  2.88132e+20
-46.7459  2.94047e+20
-46.6286  2.98489e+20
-46.5113  3.00494e+20
-46.394  2.99507e+20
-46.2767  2.94963e+20
-46.1594  2.86702e+20
-46.0421  2.74979e+20
-45.9248  2.60297e+20
-45.8075  2.4355e+20
-45.6902  2.2575e+20
-45.5729  2.07954e+20
-45.4556  1.91268e+20
-45.3383  1.76475e+20
-45.221  1.64372e+20
-45.1037  1.5534e+20
-44.9864  1.49713e+20
-44.8691  1.47731e+20
-44.7518  1.49539e+20
-44.6345  1.55089e+20
-44.5172  1.64335e+20
-44.3998  1.76996e+20
-44.2825  1.92436e+20
-44.1652  2.09824e+20
-44.0479  2.28049e+20
-43.9306  2.45715e+20
-43.8133  2.61496e+20
-43.696  2.74137e+20
-43.5787  2.82622e+20
-43.4614  2.86335e+20
-43.3441  2.85107e+20
-43.2268  2.79258e+20
-43.1095  2.69444e+20
-42.9922  2.56567e+20
-42.8749  2.41669e+20
-42.7576  2.25776e+20
-42.6403  2.09777e+20
-42.523  1.94447e+20
-42.4057  1.8033e+20
-42.2884  1.67878e+20
-42.171  1.57301e+20
-42.0537  1.48707e+20
-41.9364  1.42166e+20
-41.8191  1.37487e+20
-41.7018  1.34582e+20
-41.5845  1.33126e+20
-41.4672  1.32828e+20
-41.3499  1.33411e+20
-41.2326  1.34547e+20
-41.1153  1.36008e+20
-40.998  1.37593e+20
-40.8807  1.39148e+20
-40.7634  1.40654e+20
-40.6461  1.42052e+20
-40.5288  1.43448e+20
-40.4115  1.44836e+20
-40.2942  1.46332e+20
-40.1769  1.48104e+20
-40.0596  1.50321e+20
-39.9423  1.53077e+20
-39.825  1.56511e+20
-39.7076  1.60629e+20
-39.5903  1.65214e+20
-39.473  1.69977e+20
-39.3557  1.74457e+20
-39.2384  1.7804e+20
-39.1211  1.802e+20
-39.0038  1.80473e+20
-38.8865  1.78592e+20
-38.7692  1.74545e+20
-38.6519  1.68587e+20
-38.5346  1.61248e+20
-38.4173  1.53152e+20
-38.3  1.44955e+20
-38.1827  1.37228e+20
-38.0654  1.30341e+20
-37.9481  1.24438e+20
-37.8308  1.19495e+20
-37.7135  1.15345e+20
-37.5962  1.11806e+20
-37.4789  1.0876e+20
-37.3615  1.06195e+20
-37.2442  1.04257e+20
-37.1269  1.0316e+20
-37.0096  1.03146e+20
-36.8923  1.04375e+20
-36.775  1.06864e+20
-36.6577  1.10473e+20
-36.5404  1.14869e+20
-36.4231  1.19602e+20
-36.3058  1.24211e+20
-36.1885  1.28275e+20
-36.0712  1.31539e+20
-35.9539  1.33882e+20
-35.8366  1.3541e+20
-35.7193  1.36312e+20
-35.602  1.36873e+20
-35.4847  1.37423e+20
-35.3674  1.38218e+20
-35.2501  1.39447e+20
-35.1328  1.41257e+20
-35.0154  1.43731e+20
-34.8981  1.46925e+20
-34.7808  1.50832e+20
-34.6635  1.55505e+20
-34.5462  1.60926e+20
-34.4289  1.67065e+20
-34.3116  1.73856e+20
-34.1943  1.81128e+20
-34.077  1.88684e+20
-33.9597  1.96333e+20
-33.8424  2.03772e+20
-33.7251  2.10814e+20
-33.6078  2.17322e+20
-33.4905  2.23224e+20
-33.3732  2.28535e+20
-33.2559  2.33358e+20
-33.1386  2.37853e+20
-33.0213  2.42211e+20
-32.904  2.46543e+20
-32.7867  2.51085e+20
-32.6693  2.55946e+20
-32.552  2.61199e+20
-32.4347  2.66966e+20
-32.3174  2.73163e+20
-32.2001  2.79841e+20
-32.0828  2.86876e+20
-31.9655  2.94226e+20
-31.8482  3.01804e+20
-31.7309  3.09455e+20
-31.6136  3.17223e+20
-31.4963  3.25086e+20
-31.379  3.33146e+20
-31.2617  3.4154e+20
-31.1444  3.504e+20
-31.0271  3.60058e+20
-30.9098  3.70694e+20
-30.7925  3.82455e+20
-30.6752  3.95355e+20
-30.5579  4.09342e+20
-30.4406  4.24215e+20
-30.3232  4.39682e+20
-30.2059  4.55462e+20
-30.0886  4.70943e+20
-29.9713  4.85758e+20
-29.854  4.99435e+20
-29.7367  5.11525e+20
-29.6194  5.21756e+20
-29.5021  5.29873e+20
-29.3848  5.35818e+20
-29.2675  5.39898e+20
-29.1502  5.42254e+20
-29.0329  5.43478e+20
-28.9156  5.44279e+20
-28.7983  5.45444e+20
-28.681  5.47811e+20
-28.5637  5.52261e+20
-28.4464  5.59581e+20
-28.3291  5.70413e+20
-28.2118  5.8504e+20
-28.0944  6.03801e+20
-27.9771  6.26565e+20
-27.8598  6.52904e+20
-27.7425  6.82341e+20
-27.6252  7.13758e+20
-27.5079  7.46237e+20
-27.3906  7.78455e+20
-27.2733  8.09237e+20
-27.156  8.37448e+20
-27.0387  8.61907e+20
-26.9214  8.82129e+20
-26.8041  8.97684e+20
-26.6868  9.08663e+20
-26.5695  9.1552e+20
-26.4522  9.18955e+20
-26.3349  9.20346e+20
-26.2176  9.21001e+20
-26.1003  9.22333e+20
-25.983  9.25647e+20
-25.8657  9.32203e+20
-25.7483  9.42951e+20
-25.631  9.58634e+20
-25.5137  9.79732e+20
-25.3964  1.00591e+21
-25.2791  1.03694e+21
-25.1618  1.07199e+21
-25.0445  1.10992e+21
-24.9272  1.14957e+21
-24.8099  1.18941e+21
-24.6926  1.22812e+21
-24.5753  1.26482e+21
-24.458  1.29835e+21
-24.3407  1.32841e+21
-24.2234  1.35496e+21
-24.1061  1.37843e+21
-23.9888  1.39956e+21
-23.8715  1.41949e+21
-23.7542  1.43949e+21
-23.6369  1.46084e+21
-23.5196  1.48445e+21
-23.4023  1.51154e+21
-23.2849  1.54254e+21
-23.1676  1.57746e+21
-23.0503  1.61619e+21
-22.933  1.65748e+21
-22.8157  1.70024e+21
-22.6984  1.74264e+21
-22.5811  1.78298e+21
-22.4638  1.81949e+21
-22.3465  1.85027e+21
-22.2292  1.87451e+21
-22.1119  1.89146e+21
-21.9946  1.90124e+21
-21.8773  1.90456e+21
-21.76  1.90266e+21
-21.6427  1.89768e+21
-21.5254  1.89184e+21
-21.4081  1.88752e+21
-21.2908  1.88691e+21
-21.1735  1.89208e+21
-21.0561  1.90477e+21
-20.9388  1.92623e+21
-20.8215  1.95721e+21
-20.7042  1.99734e+21
-20.5869  2.04624e+21
-20.4696  2.10251e+21
-20.3523  2.16429e+21
-20.235  2.22951e+21
-20.1177  2.29546e+21
-20.0004  2.35964e+21
-19.8831  2.42009e+21
-19.7658  2.47446e+21
-19.6485  2.52165e+21
-19.5312  2.56094e+21
-19.4139  2.59252e+21
-19.2966  2.61713e+21
-19.1793  2.6362e+21
-19.062  2.65166e+21
-18.9447  2.66552e+21
-18.8274  2.67968e+21
-18.71  2.69639e+21
-18.5927  2.71715e+21
-18.4754  2.74297e+21
-18.3581  2.77473e+21
-18.2408  2.81198e+21
-18.1235  2.85425e+21
-18.0062  2.90003e+21
-17.8889  2.94779e+21
-17.7716  2.99548e+21
-17.6543  3.04066e+21
-17.537  3.08173e+21
-17.4197  3.11687e+21
-17.3024  3.14509e+21
-17.1851  3.16601e+21
-17.0678  3.17998e+21
-16.9505  3.18848e+21
-16.8332  3.19345e+21
-16.7159  3.1973e+21
-16.5986  3.20261e+21
-16.4813  3.2121e+21
-16.364  3.22837e+21
-16.2466  3.25362e+21
-16.1293  3.28941e+21
-16.012  3.33611e+21
-15.8947  3.39389e+21
-15.7774  3.4617e+21
-15.6601  3.53768e+21
-15.5428  3.61966e+21
-15.4255  3.70444e+21
-15.3082  3.78878e+21
-15.1909  3.86997e+21
-15.0736  3.94447e+21
-14.9563  4.01012e+21
-14.839  4.06502e+21
-14.7217  4.10838e+21
-14.6044  4.14008e+21
-14.4871  4.16094e+21
-14.3698  4.17276e+21
-14.2525  4.1776e+21
-14.1352  4.17784e+21
-14.0178  4.17654e+21
-13.9005  4.17609e+21
-13.7832  4.17866e+21
-13.6659  4.1863e+21
-13.5486  4.19984e+21
-13.4313  4.21994e+21
-13.314  4.24632e+21
-13.1967  4.27848e+21
-13.0794  4.31534e+21
-12.9621  4.35517e+21
-12.8448  4.3969e+21
-12.7275  4.43888e+21
-12.6102  4.48002e+21
-12.4929  4.51933e+21
-12.3756  4.55638e+21
-12.2583  4.59135e+21
-12.141  4.62476e+21
-12.0237  4.65738e+21
-11.9064  4.69015e+21
-11.7891  4.72424e+21
-11.6718  4.76075e+21
-11.5544  4.80072e+21
-11.4371  4.84476e+21
-11.3198  4.89265e+21
-11.2025  4.94438e+21
-11.0852  4.99903e+21
-10.9679  5.05526e+21
-10.8506  5.1117e+21
-10.7333  5.16624e+21
-10.616  5.21698e+21
-10.4987  5.26262e+21
-10.3814  5.30111e+21
-10.2641  5.33169e+21
-10.1468  5.35368e+21
-10.0295  5.36748e+21
-9.91217  5.37374e+21
-9.79487  5.37385e+21
-9.67756  5.36995e+21
-9.56026  5.36418e+21
-9.44295  5.35888e+21
-9.32565  5.35683e+21
-9.20834  5.36009e+21
-9.09104  5.37054e+21
-8.97373  5.38973e+21
-8.85643  5.4182e+21
-8.73913  5.4561e+21
-8.62182  5.50288e+21
-8.50452  5.55751e+21
-8.38721  5.61839e+21
-8.26991  5.68322e+21
-8.1526  5.75006e+21
-8.03529  5.81636e+21
-7.91799  5.87998e+21
-7.80069  5.93871e+21
-7.68338  5.9909e+21
-7.56608  6.03543e+21
-7.44877  6.07156e+21
-7.33146  6.09913e+21
-7.21416  6.11838e+21
-7.09685  6.13004e+21
-6.97955  6.13513e+21
-6.86224  6.13508e+21
-6.74494  6.13121e+21
-6.62763  6.12464e+21
-6.51033  6.11693e+21
-6.39302  6.10914e+21
-6.27572  6.10216e+21
-6.15842  6.0971e+21
-6.04111  6.09448e+21
-5.92381  6.09479e+21
-5.8065  6.099e+21
-5.68919  6.10711e+21
-5.57189  6.11977e+21
-5.45458  6.1373e+21
-5.33728  6.1602e+21
-5.21997  6.18867e+21
-5.10267  6.22291e+21
-4.98536  6.263e+21
-4.86806  6.3086e+21
-4.75075  6.35905e+21
-4.63345  6.41367e+21
-4.51614  6.47108e+21
-4.39884  6.52966e+21
-4.28154  6.58759e+21
-4.16423  6.64279e+21
-4.04692  6.69308e+21
-3.92962  6.73646e+21
-3.81231  6.77121e+21
-3.69501  6.79589e+21
-3.5777  6.80938e+21
-3.4604  6.81138e+21
-3.34309  6.80203e+21
-3.22579  6.78219e+21
-3.10849  6.75306e+21
-2.99118  6.71665e+21
-2.87387  6.67527e+21
-2.75657  6.63142e+21
-2.63926  6.58778e+21
-2.52196  6.54699e+21
-2.40465  6.51144e+21
-2.28735  6.48315e+21
-2.17005  6.46386e+21
-2.05274  6.45457e+21
-1.93544  6.45577e+21
-1.81813  6.46763e+21
-1.70083  6.48951e+21
-1.58352  6.52045e+21
-1.46622  6.55932e+21
-1.34891  6.60443e+21
-1.2316  6.65392e+21
-1.1143  6.70614e+21
-0.996995  6.75892e+21
-0.87969  6.81054e+21
-0.762385  6.8592e+21
-0.64508  6.90353e+21
-0.527775  6.94221e+21
-0.41047  6.9742e+21
-0.293165  6.99872e+21
-0.17586  7.01536e+21
-0.058555  7.02362e+21
0.05875  7.02356e+21
0.176055  7.01499e+21
0.29336  6.99822e+21
0.410665  6.97348e+21
0.52797  6.94144e+21
0.645275  6.90273e+21
0.76258  6.85839e+21
0.879885  6.80981e+21
0.99719  6.75835e+21
1.1145  6.70576e+21
1.2318  6.65397e+21
1.3491  6.60472e+21
1.46641  6.56002e+21
1.58371  6.52155e+21
1.70102  6.49104e+21
1.81832  6.46967e+21
1.93563  6.45825e+21
2.05294  6.45744e+21
2.17024  6.46721e+21
2.28754  6.48701e+21
2.40485  6.5157e+21
2.52216  6.5517e+21
2.63946  6.59287e+21
2.75677  6.6369e+21
2.87407  6.68112e+21
2.99137  6.72281e+21
3.10868  6.75942e+21
3.22599  6.78866e+21
3.34329  6.80872e+21
3.4606  6.81816e+21
3.5779  6.8162e+21
3.69521  6.80265e+21
3.81251  6.77793e+21
3.92982  6.74302e+21
4.04712  6.69949e+21
4.16443  6.64904e+21
4.28173  6.59381e+21
4.39903  6.53576e+21
4.51634  6.4772e+21
4.63364  6.41988e+21
4.75095  6.36547e+21
4.86825  6.31517e+21
4.98556  6.26999e+21
5.10286  6.23035e+21
5.22017  6.19667e+21
5.33748  6.16878e+21
5.45478  6.1465e+21
5.57209  6.1296e+21
5.68939  6.11753e+21
5.8067  6.11006e+21
5.924  6.10654e+21
6.0413  6.10655e+21
6.15861  6.10954e+21
6.27591  6.11495e+21
6.39322  6.12212e+21
6.51052  6.13014e+21
6.62783  6.13775e+21
6.74514  6.14411e+21
6.86244  6.14798e+21
6.97975  6.1479e+21
7.09705  6.1426e+21
7.21436  6.13072e+21
7.33166  6.11126e+21
7.44897  6.08369e+21
7.56627  6.04755e+21
7.68358  6.00296e+21
7.80088  5.95077e+21
7.91819  5.89209e+21
8.03549  5.82872e+21
8.1528  5.76271e+21
8.2701  5.69609e+21
8.38741  5.63147e+21
8.50471  5.57088e+21
8.62202  5.51645e+21
8.73932  5.46983e+21
8.85662  5.43205e+21
8.97393  5.40378e+21
9.09123  5.38465e+21
9.20854  5.37421e+21
9.32584  5.37106e+21
9.44315  5.37316e+21
9.56045  5.37833e+21
9.67776  5.38413e+21
9.79506  5.38799e+21
9.91237  5.38785e+21
10.0297  5.38156e+21
10.147  5.36779e+21
10.2643  5.34578e+21
10.3816  5.31514e+21
10.4989  5.27669e+21
10.6162  5.23125e+21
10.7335  5.18039e+21
10.8508  5.12586e+21
10.9681  5.06958e+21
11.0854  5.01346e+21
11.2027  4.95904e+21
11.32  4.90729e+21
11.4373  4.85938e+21
11.5546  4.81559e+21
11.6719  4.77577e+21
11.7893  4.73939e+21
11.9066  4.70536e+21
12.0239  4.6727e+21
12.1412  4.64039e+21
12.2585  4.6072e+21
12.3758  4.57226e+21
12.4931  4.53532e+21
12.6104  4.49606e+21
12.7277  4.45516e+21
12.845  4.41344e+21
12.9623  4.37182e+21
13.0796  4.33207e+21
13.1969  4.29539e+21
13.3142  4.26335e+21
13.4315  4.23702e+21
13.5488  4.21703e+21
13.6661  4.20365e+21
13.7834  4.19609e+21
13.9007  4.1935e+21
14.018  4.19412e+21
14.1354  4.19547e+21
14.2527  4.19512e+21
14.37  4.19025e+21
14.4873  4.17834e+21
14.6046  4.15734e+21
14.7219  4.12546e+21
14.8392  4.08197e+21
14.9565  4.02689e+21
15.0738  3.96097e+21
15.1911  3.88633e+21
15.3084  3.80515e+21
15.4257  3.72057e+21
15.543  3.63568e+21
15.6603  3.55375e+21
15.7776  3.47783e+21
15.8949  3.41026e+21
16.0122  3.35251e+21
16.1295  3.30588e+21
16.2468  3.2704e+21
16.3641  3.24533e+21
16.4815  3.22924e+21
16.5988  3.21977e+21
16.7161  3.21455e+21
16.8334  3.21093e+21
16.9507  3.20599e+21
17.068  3.19729e+21
17.1853  3.1831e+21
17.3026  3.16193e+21
17.4199  3.13355e+21
17.5372  3.09831e+21
17.6545  3.05694e+21
17.7718  3.01146e+21
17.8891  2.96361e+21
18.0064  2.91565e+21
18.1237  2.86963e+21
18.241  2.82731e+21
18.3583  2.79004e+21
18.4756  2.75826e+21
18.5929  2.73236e+21
18.7102  2.71183e+21
18.8275  2.69513e+21
18.9449  2.68095e+21
19.0622  2.66711e+21
19.1795  2.65165e+21
19.2968  2.63252e+21
19.4141  2.60772e+21
19.5314  2.57602e+21
19.6487  2.53651e+21
19.766  2.48898e+21
19.8833  2.43438e+21
20.0006  2.37377e+21
20.1179  2.30927e+21
20.2352  2.24304e+21
20.3525  2.17773e+21
20.4698  2.1159e+21
20.5871  2.05974e+21
20.7044  2.01083e+21
20.8217  1.97072e+21
20.939  1.94003e+21
21.0563  1.91873e+21
21.1736  1.9063e+21
21.291  1.90122e+21
21.4083  1.90204e+21
21.5256  1.90664e+21
21.6429  1.91258e+21
21.7602  1.91745e+21
21.8775  1.91921e+21
21.9948  1.91569e+21
22.1121  1.90571e+21
22.2294  1.88858e+21
22.3467  1.86397e+21
22.464  1.83277e+21
22.5813  1.79601e+21
22.6986  1.75537e+21
22.8159  1.71268e+21
22.9332  1.66975e+21
23.0505  1.62836e+21
23.1678  1.5896e+21
23.2851  1.55459e+21
23.4024  1.52377e+21
23.5198  1.49665e+21
23.6371  1.47303e+21
23.7544  1.45172e+21
23.8717  1.43169e+21
23.989  1.41166e+21
24.1063  1.3903e+21
24.2236  1.36667e+21
24.3409  1.33986e+21
24.4582  1.30942e+21
24.5755  1.27556e+21
24.6928  1.23858e+21
24.8101  1.19948e+21
24.9274  1.15928e+21
25.0447  1.11941e+21
25.162  1.08132e+21
25.2793  1.04622e+21
25.3966  1.01507e+21
25.5139  9.88842e+20
25.6312  9.67903e+20
25.7485  9.52243e+20
25.8658  9.41627e+20
25.9832  9.35096e+20
26.1005  9.31906e+20
26.2178  9.30723e+20
26.3351  9.3009e+20
26.4524  9.28584e+20
26.5697  9.24951e+20
26.687  9.17896e+20
26.8043  9.06685e+20
26.9216  8.90897e+20
27.0389  8.70288e+20
27.1562  8.45422e+20
27.2735  8.169e+20
27.3908  7.85758e+20
27.5081  7.53227e+20
27.6254  7.20519e+20
27.7427  6.8893e+20
27.86  6.59404e+20
27.9773  6.32977e+20
28.0946  6.10306e+20
28.212  5.91526e+20
28.3293  5.7694e+20
28.4466  5.66191e+20
28.5639  5.58958e+20
28.6812  5.54535e+20
28.7985  5.52152e+20
28.9158  5.51016e+20
29.0331  5.50182e+20
29.1504  5.48834e+20
29.2677  5.46373e+20
29.385  5.42201e+20
29.5023  5.36067e+20
29.6196  5.27735e+20
29.7369  5.17315e+20
29.8542  5.05052e+20
29.9715  4.91236e+20
30.0888  4.76218e+20
30.2061  4.60564e+20
30.3234  4.44717e+20
30.4407  4.2909e+20
30.558  4.14151e+20
30.6754  4.00031e+20
30.7927  3.87064e+20
30.91  3.75266e+20
31.0273  3.64548e+20
31.1446  3.54768e+20
31.2619  3.45767e+20
31.3792  3.37261e+20
31.4965  3.29095e+20
31.6138  3.21145e+20
31.7311  3.1325e+20
31.8484  3.05476e+20
31.9657  2.9782e+20
32.083  2.90376e+20
32.2003  2.83253e+20
32.3176  2.76518e+20
32.4349  2.70258e+20
32.5522  2.64446e+20
32.6695  2.59123e+20
32.7868  2.54245e+20
32.9042  2.49614e+20
33.0215  2.452e+20
33.1388  2.40756e+20
33.2561  2.36161e+20
33.3734  2.31208e+20
33.4907  2.25752e+20
33.608  2.19721e+20
33.7253  2.13086e+20
33.8426  2.05892e+20
33.9599  1.98328e+20
34.0772  1.90583e+20
34.1945  1.82915e+20
34.3118  1.75536e+20
34.4291  1.68661e+20
34.5464  1.62446e+20
34.6637  1.56951e+20
34.781  1.52183e+20
34.8983  1.48176e+20
35.0156  1.44897e+20
35.1329  1.4232e+20
35.2503  1.40402e+20
35.3676  1.39058e+20
35.4849  1.38143e+20
35.6022  1.37484e+20
35.7195  1.36792e+20
35.8368  1.35778e+20
35.9541  1.34156e+20
36.0714  1.31722e+20
36.1887  1.28411e+20
36.306  1.24322e+20
36.4233  1.19728e+20
36.5406  1.15039e+20
36.6579  1.10725e+20
36.7752  1.07208e+20
36.8925  1.04822e+20
37.0098  1.03703e+20
37.1271  1.03801e+20
37.2444  1.04958e+20
37.3617  1.06922e+20
37.479  1.09473e+20
37.5964  1.12484e+20
37.7137  1.15947e+20
37.831  1.19991e+20
37.9483  1.248e+20
38.0656  1.30567e+20
38.1829  1.37309e+20
38.3002  1.4485e+20
38.4175  1.52875e+20
38.5348  1.60806e+20
38.6521  1.67986e+20
38.7694  1.7379e+20
38.8867  1.77696e+20
39.004  1.79486e+20
39.1213  1.79139e+20
39.2386  1.76952e+20
39.3559  1.73359e+20
39.4732  1.6891e+20
39.5905  1.64183e+20
39.7078  1.59646e+20
39.8251  1.55625e+20
39.9425  1.52233e+20
40.0598  1.49538e+20
40.1771  1.47344e+20
40.2944  1.45582e+20
40.4117  1.44066e+20
40.529  1.42674e+20
40.6463  1.41283e+20
40.7636  1.39842e+20
40.8809  1.38327e+20
40.9982  1.36735e+20
41.1155  1.35157e+20
41.2328  1.33701e+20
41.3501  1.32583e+20
41.4674  1.32034e+20
41.5847  1.32365e+20
41.702  1.33895e+20
41.8193  1.36854e+20
41.9366  1.41581e+20
42.0539  1.48171e+20
42.1712  1.56746e+20
42.2885  1.67379e+20
42.4059  1.79822e+20
42.5232  1.93903e+20
42.6405  2.09153e+20
42.7578  2.2511e+20
42.8751  2.40939e+20
42.9924  2.557e+20
43.1097  2.6846e+20
43.227  2.78167e+20
43.3443  2.83892e+20
43.4616  2.84999e+20
43.5789  2.81163e+20
43.6962  2.72609e+20
43.8135  2.59928e+20
43.9308  2.44155e+20
44.0481  2.26505e+20
44.1654  2.0836e+20
44.2827  1.91054e+20
44.4  1.7573e+20
44.5173  1.63248e+20
44.6347  1.54127e+20
44.752  1.48734e+20
44.8693  1.47053e+20
44.9866  1.49154e+20
45.1039  1.54863e+20
45.2212  1.64007e+20
45.3385  1.7623e+20
45.4558  1.91044e+20
45.5731  2.078e+20
45.6904  2.25582e+20
45.8077  2.43368e+20
45.925  2.60057e+20
46.0423  2.74647e+20
46.1596  2.86275e+20
46.2769  2.94403e+20
46.3942  2.9887e+20
46.5115  2.99742e+20
46.6288  2.97646e+20
46.7461  2.93156e+20
46.8634  2.87138e+20
46.9808  2.80507e+20
47.0981  2.73796e+20
47.2154  2.67691e+20
47.3327  2.62542e+20
47.45  2.58698e+20
47.5673  2.56173e+20
47.6846  2.54901e+20
47.8019  2.54792e+20
47.9192  2.5558e+20
48.0365  2.56937e+20
48.1538  2.58475e+20
48.2711  2.59822e+20
48.3884  2.60682e+20
48.5057  2.60788e+20
48.623  2.60046e+20
48.7403  2.58409e+20
48.8576  2.56023e+20
48.9749  2.53213e+20
49.0922  2.50383e+20
49.2095  2.47992e+20
49.3269  2.46475e+20
49.4442  2.46283e+20
49.5615  2.47604e+20
49.6788  2.50769e+20
49.7961  2.55714e+20
49.9134  2.62377e+20
50.0307  2.70343e+20
50.148  2.79119e+20
50.2653  2.8811e+20
50.3826  2.96571e+20
50.4999  3.03749e+20
50.6172  3.09037e+20
50.7345  3.11942e+20
