#S 1 spectral density
#N 2
#UFWHM 13.9593
#L  abscissas [um]  spectral density
-58.5938  1.35433e+19
-58.4764  1.45404e+19
-58.3591  1.52575e+19
-58.2418  1.54951e+19
-58.1245  1.50441e+19
-58.0072  1.38142e+19
-57.8899  1.18241e+19
-57.7726  9.30394e+18
-57.6553  6.69938e+18
-57.538  4.58539e+18
-57.4207  3.59214e+18
-57.3034  4.26857e+18
-57.1861  6.93041e+18
-57.0688  1.15572e+19
-56.9515  1.77894e+19
-56.8342  2.48978e+19
-56.7169  3.20187e+19
-56.5996  3.8171e+19
-56.4823  4.25789e+19
-56.365  4.4698e+19
-56.2477  4.43514e+19
-56.1303  4.17213e+19
-56.013  3.73163e+19
-55.8957  3.17813e+19
-55.7784  2.58388e+19
-55.6611  2.01163e+19
-55.5438  1.50963e+19
-55.4265  1.11114e+19
-55.3092  8.27418e+18
-55.1919  6.5653e+18
-55.0746  5.89033e+18
-54.9573  6.06755e+18
-54.84  6.91696e+18
-54.7227  8.23098e+18
-54.6054  9.80914e+18
-54.4881  1.14526e+19
-54.3708  1.30024e+19
-54.2535  1.42858e+19
-54.1362  1.52089e+19
-54.0189  1.57374e+19
-53.9016  1.58837e+19
-53.7842  1.5686e+19
-53.6669  1.52594e+19
-53.5496  1.46783e+19
-53.4323  1.4005e+19
-53.315  1.32915e+19
-53.1977  1.25456e+19
-53.0804  1.17646e+19
-52.9631  1.09722e+19
-52.8458  1.01793e+19
-52.7285  9.40426e+18
-52.6112  8.6976e+18
-52.4939  8.09113e+18
-52.3766  7.59634e+18
-52.2593  7.19574e+18
-52.142  6.85229e+18
-52.0247  6.52555e+18
-51.9074  6.1784e+18
-51.7901  5.80032e+18
-51.6728  5.39478e+18
-51.5555  5.00866e+18
-51.4381  4.67529e+18
-51.3208  4.43004e+18
-51.2035  4.27329e+18
-51.0862  4.17604e+18
-50.9689  4.07788e+18
-50.8516  3.9176e+18
-50.7343  3.64839e+18
-50.617  3.26348e+18
-50.4997  2.78499e+18
-50.3824  2.28788e+18
-50.2651  1.84831e+18
-50.1478  1.54421e+18
-50.0305  1.40202e+18
-49.9132  1.42111e+18
-49.7959  1.54134e+18
-49.6786  1.67348e+18
-49.5613  1.73872e+18
-49.444  1.68067e+18
-49.3267  1.50214e+18
-49.2094  1.2654e+18
-49.092  1.10034e+18
-48.9747  1.17257e+18
-48.8574  1.67406e+18
-48.7401  2.77315e+18
-48.6228  4.58801e+18
-48.5055  7.17464e+18
-48.3882  1.04527e+19
-48.2709  1.42606e+19
-48.1536  1.83246e+19
-48.0363  2.226e+19
-47.919  2.56353e+19
-47.8017  2.80523e+19
-47.6844  2.91513e+19
-47.5671  2.87202e+19
-47.4498  2.67279e+19
-47.3325  2.34016e+19
-47.2152  1.9108e+19
-47.0979  1.44223e+19
-46.9806  9.92445e+18
-46.8633  6.19048e+18
-46.7459  3.65126e+18
-46.6286  2.53687e+18
-46.5113  2.87215e+18
-46.394  4.49754e+18
-46.2767  7.11198e+18
-46.1594  1.03769e+19
-46.0421  1.39785e+19
-45.9248  1.7651e+19
-45.8075  2.11984e+19
-45.6902  2.44915e+19
-45.5729  2.73906e+19
-45.4556  2.98291e+19
-45.3383  3.16272e+19
-45.221  3.27264e+19
-45.1037  3.30538e+19
-44.9864  3.26617e+19
-44.8691  3.17623e+19
-44.7518  3.07033e+19
-44.6345  2.98583e+19
-44.5172  2.9594e+19
-44.3998  3.01676e+19
-44.2825  3.15944e+19
-44.1652  3.3662e+19
-44.0479  3.58944e+19
-43.9306  3.77048e+19
-43.8133  3.84834e+19
-43.696  3.78229e+19
-43.5787  3.55572e+19
-43.4614  3.18395e+19
-43.3441  2.7171e+19
-43.2268  2.22787e+19
-43.1095  1.79098e+19
-42.9922  1.4727e+19
-42.8749  1.31551e+19
-42.7576  1.32681e+19
-42.6403  1.48352e+19
-42.523  1.73358e+19
-42.4057  2.01331e+19
-42.2884  2.25409e+19
-42.171  2.40319e+19
-42.0537  2.43149e+19
-41.9364  2.3283e+19
-41.8191  2.11441e+19
-41.7018  1.82059e+19
-41.5845  1.49489e+19
-41.4672  1.18095e+19
-41.3499  9.17816e+18
-41.2326  7.30664e+18
-41.1153  6.2993e+18
-40.998  6.10644e+18
-40.8807  6.52147e+18
-40.7634  7.24909e+18
-40.6461  7.98175e+18
-40.5288  8.43779e+18
-40.4115  8.46306e+18
-40.2942  8.05117e+18
-40.1769  7.36421e+18
-40.0596  6.72756e+18
-39.9423  6.52821e+18
-39.825  7.14167e+18
-39.7076  8.79679e+18
-39.5903  1.15011e+19
-39.473  1.49718e+19
-39.3557  1.87056e+19
-39.2384  2.19842e+19
-39.1211  2.411e+19
-39.0038  2.45283e+19
-38.8865  2.29927e+19
-38.7692  1.96266e+19
-38.6519  1.50107e+19
-38.5346  1.00252e+19
-38.4173  5.72388e+18
-38.3  3.07964e+18
-38.1827  2.81726e+18
-38.0654  5.22315e+18
-37.9481  1.01016e+19
-37.8308  1.67874e+19
-37.7135  2.43201e+19
-37.5962  3.15757e+19
-37.4789  3.75268e+19
-37.3615  4.14349e+19
-37.2442  4.28882e+19
-37.1269  4.19623e+19
-37.0096  3.89796e+19
-36.8923  3.45866e+19
-36.775  2.94927e+19
-36.6577  2.43618e+19
-36.5404  1.96782e+19
-36.4231  1.57743e+19
-36.3058  1.27751e+19
-36.1885  1.06388e+19
-36.0712  9.23302e+18
-35.9539  8.38964e+18
-35.8366  7.94902e+18
-35.7193  7.79703e+18
-35.602  7.8422e+18
-35.4847  8.06191e+18
-35.3674  8.46061e+18
-35.2501  9.07929e+18
-35.1328  1.00035e+19
-35.0154  1.13461e+19
-34.8981  1.32563e+19
-34.7808  1.58678e+19
-34.6635  1.92785e+19
-34.5462  2.35177e+19
-34.4289  2.85392e+19
-34.3116  3.41096e+19
-34.1943  3.99048e+19
-34.077  4.55109e+19
-33.9597  5.04626e+19
-33.8424  5.43283e+19
-33.7251  5.67811e+19
-33.6078  5.76255e+19
-33.4905  5.68416e+19
-33.3732  5.45723e+19
-33.2559  5.10667e+19
-33.1386  4.66693e+19
-33.0213  4.17386e+19
-32.904  3.66501e+19
-32.7867  3.16884e+19
-32.6693  2.70705e+19
-32.552  2.29547e+19
-32.4347  1.94296e+19
-32.3174  1.65545e+19
-32.2001  1.43227e+19
-32.0828  1.27116e+19
-31.9655  1.16761e+19
-31.8482  1.11507e+19
-31.7309  1.10592e+19
-31.6136  1.13129e+19
-31.4963  1.18129e+19
-31.379  1.24511e+19
-31.2617  1.31167e+19
-31.1444  1.36901e+19
-31.0271  1.4059e+19
-30.9098  1.41138e+19
-30.7925  1.37494e+19
-30.6752  1.29259e+19
-30.5579  1.16342e+19
-30.4406  9.9711e+18
-30.3232  8.1098e+18
-30.2059  6.30243e+18
-30.0886  4.85657e+18
-29.9713  4.09063e+18
-29.854  4.28985e+18
-29.7367  5.64046e+18
-29.6194  8.23493e+18
-29.5021  1.201e+19
-29.3848  1.67793e+19
-29.2675  2.22502e+19
-29.1502  2.80508e+19
-29.0329  3.38129e+19
-28.9156  3.9134e+19
-28.7983  4.36869e+19
-28.681  4.71939e+19
-28.5637  4.94547e+19
-28.4464  5.03727e+19
-28.3291  4.99228e+19
-28.2118  4.81957e+19
-28.0944  4.542e+19
-27.9771  4.1876e+19
-27.8598  3.79388e+19
-27.7425  3.40234e+19
-27.6252  3.04623e+19
-27.5079  2.76203e+19
-27.3906  2.57001e+19
-27.2733  2.48046e+19
-27.156  2.48728e+19
-27.0387  2.57698e+19
-26.9214  2.73082e+19
-26.8041  2.92687e+19
-26.6868  3.14868e+19
-26.5695  3.38195e+19
-26.4522  3.62419e+19
-26.3349  3.88235e+19
-26.2176  4.16383e+19
-26.1003  4.48615e+19
-25.983  4.85974e+19
-25.8657  5.29559e+19
-25.7483  5.80092e+19
-25.631  6.37516e+19
-25.5137  7.01283e+19
-25.3964  7.69252e+19
-25.2791  8.38892e+19
-25.1618  9.06404e+19
-25.0445  9.6751e+19
-24.9272  1.01756e+20
-24.8099  1.05188e+20
-24.6926  1.06738e+20
-24.5753  1.0629e+20
-24.458  1.03808e+20
-24.3407  9.96486e+19
-24.2234  9.43262e+19
-24.1061  8.85302e+19
-23.9888  8.30687e+19
-23.8715  7.87223e+19
-23.7542  7.62164e+19
-23.6369  7.60978e+19
-23.5196  7.86967e+19
-23.4023  8.40953e+19
-23.2849  9.2122e+19
-23.1676  1.0241e+20
-23.0503  1.14347e+20
-22.933  1.27297e+20
-22.8157  1.40443e+20
-22.6984  1.53005e+20
-22.5811  1.6432e+20
-22.4638  1.73807e+20
-22.3465  1.8113e+20
-22.2292  1.86151e+20
-22.1119  1.88965e+20
-21.9946  1.89801e+20
-21.8773  1.89069e+20
-21.76  1.87201e+20
-21.6427  1.84535e+20
-21.5254  1.81316e+20
-21.4081  1.77737e+20
-21.2908  1.73876e+20
-21.1735  1.69726e+20
-21.0561  1.65361e+20
-20.9388  1.60816e+20
-20.8215  1.56332e+20
-20.7042  1.52187e+20
-20.5869  1.48764e+20
-20.4696  1.46373e+20
-20.3523  1.45372e+20
-20.235  1.45916e+20
-20.1177  1.48165e+20
-20.0004  1.52041e+20
-19.8831  1.57415e+20
-19.7658  1.64186e+20
-19.6485  1.72257e+20
-19.5312  1.81535e+20
-19.4139  1.92019e+20
-19.2966  2.03675e+20
-19.1793  2.16475e+20
-19.062  2.30296e+20
-18.9447  2.44955e+20
-18.8274  2.60217e+20
-18.71  2.75653e+20
-18.5927  2.90964e+20
-18.4754  3.05931e+20
-18.3581  3.20294e+20
-18.2408  3.34218e+20
-18.1235  3.47828e+20
-18.0062  3.61644e+20
-17.8889  3.76272e+20
-17.7716  3.9229e+20
-17.6543  4.10761e+20
-17.537  4.3228e+20
-17.4197  4.57727e+20
-17.3024  4.87542e+20
-17.1851  5.22072e+20
-17.0678  5.6124e+20
-16.9505  6.04532e+20
-16.8332  6.50973e+20
-16.7159  6.99249e+20
-16.5986  7.47638e+20
-16.4813  7.94232e+20
-16.364  8.37032e+20
-16.2466  8.74224e+20
-16.1293  9.03978e+20
-16.012  9.25611e+20
-15.8947  9.38413e+20
-15.7774  9.42586e+20
-15.6601  9.38895e+20
-15.5428  9.28657e+20
-15.4255  9.13529e+20
-15.3082  8.95729e+20
-15.1909  8.77113e+20
-15.0736  8.6011e+20
-14.9563  8.46638e+20
-14.839  8.38605e+20
-14.7217  8.37359e+20
-14.6044  8.44265e+20
-14.4871  8.59984e+20
-14.3698  8.84978e+20
-14.2525  9.1908e+20
-14.1352  9.61771e+20
-14.0178  1.01217e+21
-13.9005  1.06908e+21
-13.7832  1.13105e+21
-13.6659  1.19635e+21
-13.5486  1.26351e+21
-13.4313  1.33105e+21
-13.314  1.39758e+21
-13.1967  1.46206e+21
-13.0794  1.52397e+21
-12.9621  1.58283e+21
-12.8448  1.63863e+21
-12.7275  1.6916e+21
-12.6102  1.74217e+21
-12.4929  1.79077e+21
-12.3756  1.83783e+21
-12.2583  1.88381e+21
-12.141  1.92896e+21
-12.0237  1.97358e+21
-11.9064  2.01779e+21
-11.7891  2.06182e+21
-11.6718  2.10611e+21
-11.5544  2.15123e+21
-11.4371  2.19787e+21
-11.3198  2.24743e+21
-11.2025  2.3013e+21
-11.0852  2.36137e+21
-10.9679  2.42962e+21
-10.8506  2.50806e+21
-10.7333  2.59843e+21
-10.616  2.70233e+21
-10.4987  2.82086e+21
-10.3814  2.95414e+21
-10.2641  3.10181e+21
-10.1468  3.26311e+21
-10.0295  3.43604e+21
-9.91217  3.61817e+21
-9.79487  3.80716e+21
-9.67756  4.00004e+21
-9.56026  4.19391e+21
-9.44295  4.38596e+21
-9.32565  4.5743e+21
-9.20834  4.75679e+21
-9.09104  4.93235e+21
-8.97373  5.10023e+21
-8.85643  5.26068e+21
-8.73913  5.41382e+21
-8.62182  5.56055e+21
-8.50452  5.70189e+21
-8.38721  5.83934e+21
-8.26991  5.9736e+21
-8.1526  6.1061e+21
-8.03529  6.23727e+21
-7.91799  6.36797e+21
-7.80069  6.49843e+21
-7.68338  6.62856e+21
-7.56608  6.75882e+21
-7.44877  6.88906e+21
-7.33146  7.01923e+21
-7.21416  7.1493e+21
-7.09685  7.27948e+21
-6.97955  7.40979e+21
-6.86224  7.54062e+21
-6.74494  7.67225e+21
-6.62763  7.80442e+21
-6.51033  7.93749e+21
-6.39302  8.07132e+21
-6.27572  8.20578e+21
-6.15842  8.34085e+21
-6.04111  8.4762e+21
-5.92381  8.61145e+21
-5.8065  8.74686e+21
-5.68919  8.88211e+21
-5.57189  9.01778e+21
-5.45458  9.15454e+21
-5.33728  9.29397e+21
-5.21997  9.43723e+21
-5.10267  9.58703e+21
-4.98536  9.74561e+21
-4.86806  9.91559e+21
-4.75075  1.00996e+22
-4.63345  1.03002e+22
-4.51614  1.05188e+22
-4.39884  1.0756e+22
-4.28154  1.10118e+22
-4.16423  1.12851e+22
-4.04692  1.15724e+22
-3.92962  1.18705e+22
-3.81231  1.21749e+22
-3.69501  1.24799e+22
-3.5777  1.278e+22
-3.4604  1.30694e+22
-3.34309  1.33425e+22
-3.22579  1.35945e+22
-3.10849  1.3822e+22
-2.99118  1.40221e+22
-2.87387  1.41936e+22
-2.75657  1.43364e+22
-2.63926  1.44518e+22
-2.52196  1.45421e+22
-2.40465  1.46101e+22
-2.28735  1.46586e+22
-2.17005  1.46917e+22
-2.05274  1.4713e+22
-1.93544  1.47247e+22
-1.81813  1.47304e+22
-1.70083  1.4732e+22
-1.58352  1.47311e+22
-1.46622  1.4729e+22
-1.34891  1.47263e+22
-1.2316  1.47236e+22
-1.1143  1.47209e+22
-0.996995  1.47183e+22
-0.87969  1.4716e+22
-0.762385  1.4713e+22
-0.64508  1.47103e+22
-0.527775  1.47075e+22
-0.41047  1.47048e+22
-0.293165  1.47023e+22
-0.17586  1.47004e+22
-0.058555  1.46993e+22
0.05875  1.4699e+22
0.176055  1.46997e+22
0.29336  1.47009e+22
0.410665  1.47029e+22
0.52797  1.4705e+22
0.645275  1.47071e+22
0.76258  1.47091e+22
0.879885  1.47113e+22
0.99719  1.4713e+22
1.1145  1.47148e+22
1.2318  1.47166e+22
1.3491  1.47185e+22
1.46641  1.472e+22
1.58371  1.4721e+22
1.70102  1.47209e+22
1.81832  1.47182e+22
1.93563  1.47112e+22
2.05294  1.46979e+22
2.17024  1.46757e+22
2.28754  1.46414e+22
2.40485  1.45913e+22
2.52216  1.45223e+22
2.63946  1.44309e+22
2.75677  1.4314e+22
2.87407  1.41698e+22
2.99137  1.39971e+22
3.10868  1.37958e+22
3.22599  1.35672e+22
3.34329  1.3314e+22
3.4606  1.30399e+22
3.5779  1.27497e+22
3.69521  1.24489e+22
3.81251  1.21433e+22
3.92982  1.18384e+22
4.04712  1.15397e+22
4.16443  1.12521e+22
4.28173  1.09788e+22
4.39903  1.07228e+22
4.51634  1.04856e+22
4.63364  1.02673e+22
4.75095  1.00669e+22
4.86825  9.88296e+21
4.98556  9.71307e+21
5.10286  9.55488e+21
5.22017  9.40505e+21
5.33748  9.26182e+21
5.45478  9.12256e+21
5.57209  8.98572e+21
5.68939  8.84987e+21
5.8067  8.71428e+21
5.924  8.57855e+21
6.0413  8.44295e+21
6.15861  8.30726e+21
6.27591  8.17165e+21
6.39322  8.03684e+21
6.51052  7.90259e+21
6.62783  7.76918e+21
6.74514  7.63668e+21
6.86244  7.5051e+21
6.97975  7.37416e+21
7.09705  7.24396e+21
7.21436  7.1141e+21
7.33166  6.9842e+21
7.44897  6.85458e+21
7.56627  6.72493e+21
7.68358  6.59523e+21
7.80088  6.4655e+21
7.91819  6.33551e+21
8.03549  6.20539e+21
8.1528  6.0747e+21
8.2701  5.94248e+21
8.38741  5.80844e+21
8.50471  5.67122e+21
8.62202  5.53013e+21
8.73932  5.3834e+21
8.85662  5.23045e+21
8.97393  5.07039e+21
9.09123  4.9027e+21
9.20854  4.7276e+21
9.32584  4.54568e+21
9.44315  4.35806e+21
9.56045  4.16655e+21
9.67776  3.9737e+21
9.79506  3.78174e+21
9.91237  3.59375e+21
10.0297  3.41258e+21
10.147  3.24082e+21
10.2643  3.08059e+21
10.3816  2.93376e+21
10.4989  2.80136e+21
10.6162  2.68362e+21
10.7335  2.58026e+21
10.8508  2.49043e+21
10.9681  2.4124e+21
11.0854  2.34458e+21
11.2027  2.28479e+21
11.32  2.23112e+21
11.4373  2.18183e+21
11.5546  2.13526e+21
11.6719  2.09033e+21
11.7893  2.04633e+21
11.9066  2.00252e+21
12.0239  1.95843e+21
12.1412  1.9142e+21
12.2585  1.86927e+21
12.3758  1.82366e+21
12.4931  1.77691e+21
12.6104  1.72873e+21
12.7277  1.67852e+21
12.845  1.62591e+21
12.9623  1.57044e+21
13.0796  1.5121e+21
13.1969  1.4506e+21
13.3142  1.38664e+21
13.4315  1.32065e+21
13.5488  1.25367e+21
13.6661  1.18709e+21
13.7834  1.12232e+21
13.9007  1.061e+21
14.018  1.00465e+21
14.1354  9.54807e+20
14.2527  9.12652e+20
14.37  8.79058e+20
14.4873  8.54513e+20
14.6046  8.39075e+20
14.7219  8.32447e+20
14.8392  8.33874e+20
14.9565  8.42068e+20
15.0738  8.55678e+20
15.1911  8.7273e+20
15.3084  8.91287e+20
15.4257  9.09111e+20
15.543  9.24166e+20
15.6603  9.34395e+20
15.7776  9.38056e+20
15.8949  9.33851e+20
16.0122  9.21116e+20
16.1295  8.99554e+20
16.2468  8.69724e+20
16.3641  8.32721e+20
16.4815  7.90051e+20
16.5988  7.43618e+20
16.7161  6.9541e+20
16.8334  6.47349e+20
16.9507  6.01085e+20
17.068  5.58066e+20
17.1853  5.19159e+20
17.3026  4.84914e+20
17.4199  4.55277e+20
17.5372  4.30001e+20
17.6545  4.08659e+20
17.7718  3.90394e+20
17.8891  3.74385e+20
18.0064  3.59915e+20
18.1237  3.46202e+20
18.241  3.32565e+20
18.3583  3.18651e+20
18.4756  3.04262e+20
18.5929  2.89292e+20
18.7102  2.73859e+20
18.8275  2.58419e+20
18.9449  2.43148e+20
19.0622  2.28451e+20
19.1795  2.14642e+20
19.2968  2.01856e+20
19.4141  1.90247e+20
19.5314  1.79815e+20
19.6487  1.70588e+20
19.766  1.6264e+20
19.8833  1.55943e+20
20.0006  1.50699e+20
20.1179  1.46994e+20
20.2352  1.44936e+20
20.3525  1.44519e+20
20.4698  1.45659e+20
20.5871  1.48161e+20
20.7044  1.51724e+20
20.8217  1.5598e+20
20.939  1.60551e+20
21.0563  1.65148e+20
21.1736  1.69574e+20
21.291  1.7377e+20
21.4083  1.77714e+20
21.5256  1.81321e+20
21.6429  1.84608e+20
21.7602  1.87364e+20
21.8775  1.89314e+20
21.9948  1.90083e+20
22.1121  1.89269e+20
22.2294  1.86443e+20
22.3467  1.81454e+20
22.464  1.74076e+20
22.5813  1.64527e+20
22.6986  1.53178e+20
22.8159  1.40562e+20
22.9332  1.27387e+20
23.0505  1.14437e+20
23.1678  1.02477e+20
23.2851  9.22127e+19
23.4024  8.42132e+19
23.5198  7.88875e+19
23.6371  7.63401e+19
23.7544  7.65163e+19
23.8717  7.9063e+19
23.989  8.34368e+19
24.1063  8.88919e+19
24.2236  9.46465e+19
24.3409  9.99036e+19
24.4582  1.03967e+20
24.5755  1.06335e+20
24.6928  1.06698e+20
24.8101  1.05033e+20
24.9274  1.01502e+20
25.0447  9.64482e+19
25.162  9.03125e+19
25.2793  8.35702e+19
25.3966  7.6613e+19
25.5139  6.98503e+19
25.6312  6.35335e+19
25.7485  5.7837e+19
25.8658  5.28461e+19
25.9832  4.85007e+19
26.1005  4.48266e+19
26.2178  4.16453e+19
26.3351  3.88224e+19
26.4524  3.62338e+19
26.5697  3.3793e+19
26.687  3.14367e+19
26.8043  2.92243e+19
26.9216  2.72554e+19
27.0389  2.57052e+19
27.1562  2.48102e+19
27.2735  2.47571e+19
27.3908  2.56864e+19
27.5081  2.76389e+19
27.6254  3.05046e+19
27.7427  3.40849e+19
27.86  3.80245e+19
27.9773  4.1945e+19
28.0946  4.54588e+19
28.212  4.81795e+19
28.3293  4.98377e+19
28.4466  5.02237e+19
28.5639  4.92357e+19
28.6812  4.69213e+19
28.7985  4.33719e+19
28.9158  3.879e+19
29.0331  3.34664e+19
29.1504  2.7718e+19
29.2677  2.19573e+19
29.385  1.65409e+19
29.5023  1.18389e+19
29.6196  8.12637e+18
29.7369  5.59588e+18
29.8542  4.29949e+18
29.9715  4.15198e+18
30.0888  4.94909e+18
30.2061  6.41677e+18
30.3234  8.23568e+18
30.4407  1.01e+19
30.558  1.17623e+19
30.6754  1.30387e+19
30.7927  1.38655e+19
30.91  1.42208e+19
31.0273  1.41646e+19
31.1446  1.37743e+19
31.2619  1.31965e+19
31.3792  1.25247e+19
31.4965  1.18834e+19
31.6138  1.13924e+19
31.7311  1.11483e+19
31.8484  1.12475e+19
31.9657  1.17879e+19
32.083  1.28392e+19
32.2003  1.44691e+19
32.3176  1.67212e+19
32.4349  1.9614e+19
32.5522  2.3148e+19
32.6695  2.72649e+19
32.7868  3.18846e+19
32.9042  3.68409e+19
33.0215  4.19006e+19
33.1388  4.67956e+19
33.2561  5.11488e+19
33.3734  5.46199e+19
33.4907  5.68321e+19
33.608  5.7571e+19
33.7253  5.67092e+19
33.8426  5.42101e+19
33.9599  5.03451e+19
34.0772  4.53849e+19
34.1945  3.9797e+19
34.3118  3.40261e+19
34.4291  2.84936e+19
34.5464  2.351e+19
34.6637  1.92785e+19
34.781  1.58867e+19
34.8983  1.32927e+19
35.0156  1.13895e+19
35.1329  1.00375e+19
35.2503  9.1048e+18
35.3676  8.47309e+18
35.4849  8.06484e+18
35.6022  7.83196e+18
35.7195  7.77105e+18
35.8368  7.92171e+18
35.9541  8.35874e+18
36.0714  9.21279e+18
36.1887  1.06243e+19
36.306  1.27783e+19
36.4233  1.58039e+19
36.5406  1.97262e+19
36.6579  2.44065e+19
36.7752  2.95493e+19
36.8925  3.4616e+19
37.0098  3.89637e+19
37.1271  4.18753e+19
37.2444  4.27601e+19
37.3617  4.12515e+19
37.479  3.73044e+19
37.5964  3.13129e+19
37.7137  2.40696e+19
37.831  1.65593e+19
37.9483  9.92964e+18
38.0656  5.11247e+18
38.1829  2.77845e+18
38.3002  3.10602e+18
38.4175  5.79115e+18
38.5348  1.01137e+19
38.6521  1.50857e+19
38.7694  1.96522e+19
38.8867  2.29513e+19
39.004  2.44245e+19
39.1213  2.39521e+19
39.2386  2.17805e+19
39.3559  1.84766e+19
39.4732  1.4751e+19
39.5905  1.13048e+19
39.7078  8.6547e+18
39.8251  7.0661e+18
39.9425  6.51388e+18
40.0598  6.76e+18
40.1771  7.43325e+18
40.2944  8.13552e+18
40.4117  8.55477e+18
40.529  8.52345e+18
40.6463  8.05217e+18
40.7636  7.32006e+18
40.8809  6.58506e+18
40.9982  6.18155e+18
41.1155  6.3982e+18
41.2328  7.42574e+18
41.3501  9.31487e+18
41.4674  1.19644e+19
41.5847  1.51182e+19
41.702  1.83626e+19
41.8193  2.12707e+19
41.9366  2.33834e+19
42.0539  2.43726e+19
42.1712  2.40588e+19
42.2885  2.2512e+19
42.4059  2.0085e+19
42.5232  1.72911e+19
42.6405  1.4834e+19
42.7578  1.33104e+19
42.8751  1.32576e+19
42.9924  1.49207e+19
43.1097  1.8183e+19
43.227  2.26181e+19
43.3443  2.75562e+19
43.4616  3.22158e+19
43.5789  3.59015e+19
43.6962  3.81269e+19
43.8135  3.8722e+19
43.9308  3.78593e+19
44.0481  3.59905e+19
44.1654  3.36921e+19
44.2827  3.15974e+19
44.4  3.01609e+19
44.5173  2.95945e+19
44.6347  2.98653e+19
44.752  3.07431e+19
44.8693  3.18254e+19
44.9866  3.27197e+19
45.1039  3.31081e+19
45.2212  3.27701e+19
45.3385  3.16626e+19
45.4558  2.98338e+19
45.5731  2.73907e+19
45.6904  2.44333e+19
45.8077  2.11241e+19
45.925  1.75468e+19
46.0423  1.38583e+19
46.1596  1.02509e+19
46.2769  6.98738e+18
46.3942  4.40335e+18
46.5115  2.81993e+18
46.6288  2.53491e+18
46.7461  3.70321e+18
46.8634  6.29203e+18
46.9808  1.00493e+19
47.0981  1.4549e+19
47.2154  1.9219e+19
47.3327  2.34666e+19
47.45  2.67305e+19
47.5673  2.8632e+19
47.6846  2.89961e+19
47.8019  2.78518e+19
47.9192  2.53889e+19
48.0365  2.19871e+19
48.1538  1.80643e+19
48.2711  1.40385e+19
48.3884  1.0264e+19
48.5057  7.03358e+18
48.623  4.49669e+18
48.7403  2.71281e+18
48.8576  1.64705e+18
48.9749  1.1702e+18
49.0922  1.10987e+18
49.2095  1.28009e+18
49.3269  1.51777e+18
49.4442  1.69591e+18
49.5615  1.74845e+18
49.6788  1.67815e+18
49.7961  1.53937e+18
49.9134  1.42015e+18
50.0307  1.40331e+18
50.148  1.54269e+18
50.2653  1.85111e+18
50.3826  2.29138e+18
50.4999  2.78838e+18
50.6172  3.26001e+18
50.7345  3.64076e+18
50.8518  3.9038e+18
50.9691  4.05411e+18
