#S 1 spectral density
#N 2
#UFWHM 14.3112
#L  abscissas [um]  spectral density
-58.5938  1.7047e+19
-58.4764  1.45303e+19
-58.3591  1.2861e+19
-58.2418  1.24067e+19
-58.1245  1.31877e+19
-58.0072  1.49051e+19
-57.8899  1.70597e+19
-57.7726  1.90464e+19
-57.6553  2.03109e+19
-57.538  2.05004e+19
-57.4207  1.95306e+19
-57.3034  1.75464e+19
-57.1861  1.4924e+19
-57.0688  1.21342e+19
-56.9515  9.66452e+18
-56.8342  7.87968e+18
-56.7169  7.069e+18
-56.5996  7.30373e+18
-56.4823  8.56271e+18
-56.365  1.07042e+19
-56.2477  1.34749e+19
-56.1303  1.66205e+19
-56.013  1.98188e+19
-55.8957  2.27416e+19
-55.7784  2.50444e+19
-55.6611  2.64382e+19
-55.5438  2.67255e+19
-55.4265  2.58286e+19
-55.3092  2.38297e+19
-55.1919  2.09631e+19
-55.0746  1.76424e+19
-54.9573  1.42991e+19
-54.84  1.14115e+19
-54.7227  9.32523e+18
-54.6054  8.27106e+18
-54.4881  8.2628e+18
-54.3708  9.1313e+18
-54.2535  1.05831e+19
-54.1362  1.22538e+19
-54.0189  1.37791e+19
-53.9016  1.48691e+19
-53.7842  1.5354e+19
-53.6669  1.51509e+19
-53.5496  1.43347e+19
-53.4323  1.30117e+19
-53.315  1.13699e+19
-53.1977  9.59271e+18
-53.0804  7.82719e+18
-52.9631  6.23601e+18
-52.8458  4.91483e+18
-52.7285  3.91525e+18
-52.6112  3.26372e+18
-52.4939  2.92823e+18
-52.3766  2.84509e+18
-52.2593  2.91523e+18
-52.142  3.04408e+18
-52.0247  3.15008e+18
-51.9074  3.18708e+18
-51.7901  3.15273e+18
-51.6728  3.09856e+18
-51.5555  3.08669e+18
-51.4381  3.19625e+18
-51.3208  3.47769e+18
-51.2035  3.94031e+18
-51.0862  4.55374e+18
-50.9689  5.24397e+18
-50.8516  5.92719e+18
-50.7343  6.56091e+18
-50.617  7.12031e+18
-50.4997  7.62455e+18
-50.3824  8.15735e+18
-50.2651  8.79397e+18
-50.1478  9.62281e+18
-50.0305  1.06701e+19
-49.9132  1.19392e+19
-49.7959  1.33573e+19
-49.6786  1.48347e+19
-49.5613  1.6251e+19
-49.444  1.74898e+19
-49.3267  1.84758e+19
-49.2094  1.91703e+19
-49.092  1.95485e+19
-48.9747  1.96124e+19
-48.8574  1.93706e+19
-48.7401  1.88293e+19
-48.6228  1.79931e+19
-48.5055  1.68997e+19
-48.3882  1.55631e+19
-48.2709  1.40711e+19
-48.1536  1.25285e+19
-48.0363  1.10654e+19
-47.919  9.83566e+18
-47.8017  9.01851e+18
-47.6844  8.73896e+18
-47.5671  9.11405e+18
-47.4498  1.01887e+19
-47.3325  1.1963e+19
-47.2152  1.43096e+19
-47.0979  1.704e+19
-46.9806  1.98615e+19
-46.8633  2.24246e+19
-46.7459  2.43009e+19
-46.6286  2.51738e+19
-46.5113  2.48008e+19
-46.394  2.31737e+19
-46.2767  2.04994e+19
-46.1594  1.72579e+19
-46.0421  1.4148e+19
-45.9248  1.1915e+19
-45.8075  1.12551e+19
-45.6902  1.26169e+19
-45.5729  1.60614e+19
-45.4556  2.12598e+19
-45.3383  2.7402e+19
-45.221  3.3499e+19
-45.1037  3.84084e+19
-44.9864  4.11571e+19
-44.8691  4.11699e+19
-44.7518  3.83108e+19
-44.6345  3.29771e+19
-44.5172  2.60323e+19
-44.3998  1.85657e+19
-44.2825  1.17092e+19
-44.1652  6.40568e+18
-44.0479  3.25233e+18
-43.9306  2.42891e+18
-43.8133  3.69187e+18
-43.696  6.48226e+18
-43.5787  1.00742e+19
-43.4614  1.3737e+19
-43.3441  1.68333e+19
-43.2268  1.89339e+19
-43.1095  1.98514e+19
-42.9922  1.96041e+19
-42.8749  1.83506e+19
-42.7576  1.63646e+19
-42.6403  1.39663e+19
-42.523  1.14481e+19
-42.4057  9.08938e+18
-42.2884  7.09971e+18
-42.171  5.61749e+18
-42.0537  4.70041e+18
-41.9364  4.31728e+18
-41.8191  4.37662e+18
-41.7018  4.71454e+18
-41.5845  5.16928e+18
-41.4672  5.59429e+18
-41.3499  5.90039e+18
-41.2326  6.08118e+18
-41.1153  6.21121e+18
-40.998  6.4053e+18
-40.8807  6.7858e+18
-40.7634  7.41117e+18
-40.6461  8.27365e+18
-40.5288  9.24042e+18
-40.4115  1.011e+19
-40.2942  1.06695e+19
-40.1769  1.07298e+19
-40.0596  1.01907e+19
-39.9423  9.11626e+18
-39.825  7.70469e+18
-39.7076  6.24077e+18
-39.5903  5.03461e+18
-39.473  4.35644e+18
-39.3557  4.37515e+18
-39.2384  5.10895e+18
-39.1211  6.44297e+18
-39.0038  8.17603e+18
-38.8865  1.00774e+19
-38.7692  1.19424e+19
-38.6519  1.3642e+19
-38.5346  1.51108e+19
-38.4173  1.63409e+19
-38.3  1.73196e+19
-38.1827  1.80258e+19
-38.0654  1.83616e+19
-37.9481  1.8223e+19
-37.8308  1.74918e+19
-37.7135  1.61405e+19
-37.5962  1.42611e+19
-37.4789  1.21237e+19
-37.3615  1.01684e+19
-37.2442  8.92758e+18
-37.1269  8.9164e+18
-37.0096  1.05122e+19
-36.8923  1.38741e+19
-36.775  1.88398e+19
-36.6577  2.49542e+19
-36.5404  3.15032e+19
-36.4231  3.76862e+19
-36.3058  4.27355e+19
-36.1885  4.60726e+19
-36.0712  4.73972e+19
-35.9539  4.67306e+19
-35.8366  4.44067e+19
-35.7193  4.09837e+19
-35.602  3.70108e+19
-35.4847  3.31192e+19
-35.3674  2.97263e+19
-35.2501  2.70688e+19
-35.1328  2.51906e+19
-35.0154  2.39978e+19
-34.8981  2.32902e+19
-34.7808  2.2869e+19
-34.6635  2.25488e+19
-34.5462  2.22366e+19
-34.4289  2.19392e+19
-34.3116  2.16627e+19
-34.1943  2.14713e+19
-34.077  2.13927e+19
-33.9597  2.14493e+19
-33.8424  2.15813e+19
-33.7251  2.17557e+19
-33.6078  2.18584e+19
-33.4905  2.18236e+19
-33.3732  2.16004e+19
-33.2559  2.11691e+19
-33.1386  2.05507e+19
-33.0213  1.98206e+19
-32.904  1.90854e+19
-32.7867  1.84823e+19
-32.6693  1.81245e+19
-32.552  1.81339e+19
-32.4347  1.85575e+19
-32.3174  1.94152e+19
-32.2001  2.0614e+19
-32.0828  2.19945e+19
-31.9655  2.33198e+19
-31.8482  2.43478e+19
-31.7309  2.481e+19
-31.6136  2.45017e+19
-31.4963  2.33246e+19
-31.379  2.12912e+19
-31.2617  1.8552e+19
-31.1444  1.53591e+19
-31.0271  1.20307e+19
-30.9098  8.9024e+18
-30.7925  6.29674e+18
-30.6752  4.45348e+18
-30.5579  3.51636e+18
-30.4406  3.52126e+18
-30.3232  4.40922e+18
-30.2059  6.02907e+18
-30.0886  8.17558e+18
-29.9713  1.06252e+19
-29.854  1.3125e+19
-29.7367  1.54331e+19
-29.6194  1.73813e+19
-29.5021  1.88516e+19
-29.3848  1.98102e+19
-29.2675  2.03216e+19
-29.1502  2.0559e+19
-29.0329  2.08017e+19
-28.9156  2.13505e+19
-28.7983  2.25268e+19
-28.681  2.46158e+19
-28.5637  2.77893e+19
-28.4464  3.21095e+19
-28.3291  3.74775e+19
-28.2118  4.36557e+19
-28.0944  5.03306e+19
-27.9771  5.71032e+19
-27.8598  6.35524e+19
-27.7425  6.93197e+19
-27.6252  7.40119e+19
-27.5079  7.74322e+19
-27.3906  7.94184e+19
-27.2733  7.99753e+19
-27.156  7.91684e+19
-27.0387  7.72472e+19
-26.9214  7.45549e+19
-26.8041  7.15238e+19
-26.6868  6.86425e+19
-26.5695  6.63496e+19
-26.4522  6.50078e+19
-26.3349  6.49002e+19
-26.2176  6.60379e+19
-26.1003  6.82925e+19
-25.983  7.12999e+19
-25.8657  7.45863e+19
-25.7483  7.76844e+19
-25.631  8.01192e+19
-25.5137  8.1625e+19
-25.3964  8.20427e+19
-25.2791  8.14532e+19
-25.1618  8.01317e+19
-25.0445  7.8478e+19
-24.9272  7.69021e+19
-24.8099  7.58352e+19
-24.6926  7.55891e+19
-24.5753  7.63811e+19
-24.458  7.81461e+19
-24.3407  8.07647e+19
-24.2234  8.38881e+19
-24.1061  8.71074e+19
-23.9888  8.99297e+19
-23.8715  9.18714e+19
-23.7542  9.25549e+19
-23.6369  9.17394e+19
-23.5196  8.93688e+19
-23.4023  8.55639e+19
-23.2849  8.064e+19
-23.1676  7.50545e+19
-23.0503  6.93211e+19
-22.933  6.39582e+19
-22.8157  5.94113e+19
-22.6984  5.59928e+19
-22.5811  5.39267e+19
-22.4638  5.33345e+19
-22.3465  5.42822e+19
-22.2292  5.68686e+19
-22.1119  6.12097e+19
-21.9946  6.7473e+19
-21.8773  7.58709e+19
-21.76  8.65862e+19
-21.6427  9.96883e+19
-21.5254  1.15061e+20
-21.4081  1.32436e+20
-21.2908  1.51287e+20
-21.1735  1.70919e+20
-21.0561  1.90538e+20
-20.9388  2.09219e+20
-20.8215  2.26244e+20
-20.7042  2.40839e+20
-20.5869  2.52544e+20
-20.4696  2.60942e+20
-20.3523  2.6591e+20
-20.235  2.67364e+20
-20.1177  2.65576e+20
-20.0004  2.60774e+20
-19.8831  2.53319e+20
-19.7658  2.43791e+20
-19.6485  2.32816e+20
-19.5312  2.21079e+20
-19.4139  2.093e+20
-19.2966  1.98191e+20
-19.1793  1.88448e+20
-19.062  1.80708e+20
-18.9447  1.75602e+20
-18.8274  1.73785e+20
-18.71  1.75777e+20
-18.5927  1.8224e+20
-18.4754  1.93781e+20
-18.3581  2.10841e+20
-18.2408  2.33866e+20
-18.1235  2.62854e+20
-18.0062  2.97588e+20
-17.8889  3.37399e+20
-17.7716  3.80979e+20
-17.6543  4.27098e+20
-17.537  4.73777e+20
-17.4197  5.19325e+20
-17.3024  5.61835e+20
-17.1851  5.99933e+20
-17.0678  6.32536e+20
-16.9505  6.59002e+20
-16.8332  6.7929e+20
-16.7159  6.93911e+20
-16.5986  7.03836e+20
-16.4813  7.10305e+20
-16.364  7.14867e+20
-16.2466  7.19093e+20
-16.1293  7.2418e+20
-16.012  7.3182e+20
-15.8947  7.42764e+20
-15.7774  7.5773e+20
-15.6601  7.76916e+20
-15.5428  8.00164e+20
-15.4255  8.26793e+20
-15.3082  8.56053e+20
-15.1909  8.86554e+20
-15.0736  9.17215e+20
-14.9563  9.46693e+20
-14.839  9.73984e+20
-14.7217  9.98001e+20
-14.6044  1.01849e+21
-14.4871  1.03514e+21
-14.3698  1.04839e+21
-14.2525  1.05881e+21
-14.1352  1.06748e+21
-14.0178  1.07568e+21
-13.9005  1.0849e+21
-13.7832  1.09669e+21
-13.6659  1.11256e+21
-13.5486  1.13409e+21
-13.4313  1.16256e+21
-13.314  1.19888e+21
-13.1967  1.24369e+21
-13.0794  1.2974e+21
-12.9621  1.35987e+21
-12.8448  1.43068e+21
-12.7275  1.50919e+21
-12.6102  1.59449e+21
-12.4929  1.68555e+21
-12.3756  1.7813e+21
-12.2583  1.88076e+21
-12.141  1.98301e+21
-12.0237  2.08739e+21
-11.9064  2.19314e+21
-11.7891  2.2999e+21
-11.6718  2.40725e+21
-11.5544  2.51472e+21
-11.4371  2.62163e+21
-11.3198  2.72748e+21
-11.2025  2.83128e+21
-11.0852  2.93219e+21
-10.9679  3.02915e+21
-10.8506  3.12109e+21
-10.7333  3.20704e+21
-10.616  3.28653e+21
-10.4987  3.35949e+21
-10.3814  3.42599e+21
-10.2641  3.487e+21
-10.1468  3.54446e+21
-10.0295  3.60024e+21
-9.91217  3.65691e+21
-9.79487  3.71785e+21
-9.67756  3.78596e+21
-9.56026  3.86429e+21
-9.44295  3.95541e+21
-9.32565  4.06187e+21
-9.20834  4.18492e+21
-9.09104  4.32535e+21
-8.97373  4.48298e+21
-8.85643  4.65725e+21
-8.73913  4.84622e+21
-8.62182  5.04773e+21
-8.50452  5.25906e+21
-8.38721  5.47743e+21
-8.26991  5.69931e+21
-8.1526  5.92181e+21
-8.03529  6.14156e+21
-7.91799  6.35582e+21
-7.80069  6.5624e+21
-7.68338  6.75889e+21
-7.56608  6.94405e+21
-7.44877  7.11698e+21
-7.33146  7.27715e+21
-7.21416  7.42466e+21
-7.09685  7.56e+21
-6.97955  7.68423e+21
-6.86224  7.79869e+21
-6.74494  7.90521e+21
-6.62763  8.00508e+21
-6.51033  8.1009e+21
-6.39302  8.19498e+21
-6.27572  8.28976e+21
-6.15842  8.38804e+21
-6.04111  8.4924e+21
-5.92381  8.6055e+21
-5.8065  8.72988e+21
-5.68919  8.86725e+21
-5.57189  9.0192e+21
-5.45458  9.18667e+21
-5.33728  9.36991e+21
-5.21997  9.56771e+21
-5.10267  9.77898e+21
-4.98536  1.00012e+22
-4.86806  1.02314e+22
-4.75075  1.04664e+22
-4.63345  1.07025e+22
-4.51614  1.0936e+22
-4.39884  1.11634e+22
-4.28154  1.13823e+22
-4.16423  1.15909e+22
-4.04692  1.17875e+22
-3.92962  1.19726e+22
-3.81231  1.2147e+22
-3.69501  1.23123e+22
-3.5777  1.24709e+22
-3.4604  1.26254e+22
-3.34309  1.27781e+22
-3.22579  1.29309e+22
-3.10849  1.30859e+22
-2.99118  1.32434e+22
-2.87387  1.34035e+22
-2.75657  1.35651e+22
-2.63926  1.37266e+22
-2.52196  1.38853e+22
-2.40465  1.40388e+22
-2.28735  1.41836e+22
-2.17005  1.43172e+22
-2.05274  1.44374e+22
-1.93544  1.45417e+22
-1.81813  1.46294e+22
-1.70083  1.47e+22
-1.58352  1.47537e+22
-1.46622  1.47921e+22
-1.34891  1.48164e+22
-1.2316  1.48291e+22
-1.1143  1.48321e+22
-0.996995  1.48282e+22
-0.87969  1.48195e+22
-0.762385  1.48073e+22
-0.64508  1.47941e+22
-0.527775  1.47812e+22
-0.41047  1.47693e+22
-0.293165  1.47595e+22
-0.17586  1.47524e+22
-0.058555  1.47486e+22
0.05875  1.47481e+22
0.176055  1.47509e+22
0.29336  1.47568e+22
0.410665  1.47655e+22
0.52797  1.47762e+22
0.645275  1.47882e+22
0.76258  1.48004e+22
0.879885  1.48115e+22
0.99719  1.48195e+22
1.1145  1.48225e+22
1.2318  1.48185e+22
1.3491  1.48051e+22
1.46641  1.47797e+22
1.58371  1.47405e+22
1.70102  1.46857e+22
1.81832  1.46141e+22
1.93563  1.45256e+22
2.05294  1.44201e+22
2.17024  1.42993e+22
2.28754  1.41649e+22
2.40485  1.40191e+22
2.52216  1.38649e+22
2.63946  1.37054e+22
2.75677  1.35432e+22
2.87407  1.3381e+22
2.99137  1.32204e+22
3.10868  1.30623e+22
3.22599  1.29068e+22
3.34329  1.27534e+22
3.4606  1.26004e+22
3.5779  1.24455e+22
3.69521  1.22866e+22
3.81251  1.2121e+22
3.92982  1.1946e+22
4.04712  1.17603e+22
4.16443  1.15633e+22
4.28173  1.13542e+22
4.39903  1.11345e+22
4.51634  1.09063e+22
4.63364  1.06723e+22
4.75095  1.04356e+22
4.86825  1.01999e+22
4.98556  9.96899e+21
5.10286  9.7463e+21
5.22017  9.53435e+21
5.33748  9.33608e+21
5.45478  9.1526e+21
5.57209  8.98488e+21
5.68939  8.83256e+21
5.8067  8.69493e+21
5.924  8.57048e+21
6.0413  8.45739e+21
6.15861  8.35308e+21
6.27591  8.25468e+21
6.39322  8.15993e+21
6.51052  8.0658e+21
6.62783  7.96982e+21
6.74514  7.86964e+21
6.86244  7.7632e+21
6.97975  7.64843e+21
7.09705  7.52399e+21
7.21436  7.38839e+21
7.33166  7.24048e+21
7.44897  7.08024e+21
7.56627  6.9074e+21
7.68358  6.72219e+21
7.80088  6.52589e+21
7.91819  6.31974e+21
8.03549  6.10602e+21
8.1528  5.88713e+21
8.2701  5.66554e+21
8.38741  5.44474e+21
8.50471  5.22758e+21
8.62202  5.01762e+21
8.73932  4.81732e+21
8.85662  4.62973e+21
8.97393  4.45685e+21
9.09123  4.30036e+21
9.20854  4.16104e+21
9.32584  4.03896e+21
9.44315  3.93331e+21
9.56045  3.84258e+21
9.67776  3.7648e+21
9.79506  3.69688e+21
9.91237  3.63615e+21
10.0297  3.57944e+21
10.147  3.52378e+21
10.2643  3.46638e+21
10.3816  3.40523e+21
10.4989  3.33871e+21
10.6162  3.26589e+21
10.7335  3.18641e+21
10.8508  3.10057e+21
10.9681  3.00883e+21
11.0854  2.91226e+21
11.2027  2.81169e+21
11.32  2.70817e+21
11.4373  2.60275e+21
11.5546  2.49615e+21
11.6719  2.38906e+21
11.7893  2.28222e+21
11.9066  2.17592e+21
12.0239  2.07049e+21
12.1412  1.96676e+21
12.2585  1.86501e+21
12.3758  1.76619e+21
12.4931  1.67108e+21
12.6104  1.58071e+21
12.7277  1.4961e+21
12.845  1.41823e+21
12.9623  1.34802e+21
13.0796  1.2863e+21
13.1969  1.23312e+21
13.3142  1.18893e+21
13.4315  1.15315e+21
13.5488  1.12511e+21
13.6661  1.10396e+21
13.7834  1.08839e+21
13.9007  1.07689e+21
14.018  1.06788e+21
14.1354  1.05998e+21
14.2527  1.05158e+21
14.37  1.04137e+21
14.4873  1.02838e+21
14.6046  1.01192e+21
14.7219  9.91706e+20
14.8392  9.67901e+20
14.9565  9.40883e+20
15.0738  9.11699e+20
15.1911  8.81268e+20
15.3084  8.50973e+20
15.4257  8.2197e+20
15.543  7.95528e+20
15.6603  7.72485e+20
15.7776  7.53476e+20
15.8949  7.38648e+20
16.0122  7.27891e+20
16.1295  7.2041e+20
16.2468  7.15286e+20
16.3641  7.1123e+20
16.4815  7.06717e+20
16.5988  7.00263e+20
16.7161  6.90365e+20
16.8334  6.75744e+20
16.9507  6.55443e+20
17.068  6.29044e+20
17.1853  5.96526e+20
17.3026  5.58546e+20
17.4199  5.16091e+20
17.5372  4.70651e+20
17.6545  4.24147e+20
17.7718  3.7831e+20
17.8891  3.34846e+20
18.0064  2.95353e+20
18.1237  2.60902e+20
18.241  2.32117e+20
18.3583  2.09337e+20
18.4756  1.92484e+20
18.5929  1.81161e+20
18.7102  1.74814e+20
18.8275  1.72973e+20
18.9449  1.74917e+20
19.0622  1.80076e+20
19.1795  1.87873e+20
19.2968  1.97629e+20
19.4141  2.08732e+20
19.5314  2.20442e+20
19.6487  2.32063e+20
19.766  2.42958e+20
19.8833  2.52282e+20
20.0006  2.59591e+20
20.1179  2.6428e+20
20.2352  2.65975e+20
20.3525  2.64365e+20
20.4698  2.59292e+20
20.5871  2.50815e+20
20.7044  2.39092e+20
20.8217  2.24504e+20
20.939  2.07566e+20
21.0563  1.88926e+20
21.1736  1.69429e+20
21.291  1.49915e+20
21.4083  1.31237e+20
21.5256  1.13989e+20
21.6429  9.87813e+19
21.7602  8.58392e+19
21.8775  7.52644e+19
21.9948  6.69779e+19
22.1121  6.08292e+19
22.2294  5.65819e+19
22.3467  5.40945e+19
22.464  5.32136e+19
22.5813  5.38811e+19
22.6986  5.60194e+19
22.8159  5.95112e+19
22.9332  6.41321e+19
23.0505  6.95491e+19
23.1678  7.53194e+19
23.2851  8.09198e+19
23.4024  8.58402e+19
23.5198  8.96399e+19
23.6371  9.19815e+19
23.7544  9.27566e+19
23.8717  9.20308e+19
23.989  9.00679e+19
24.1063  8.72388e+19
24.2236  8.40247e+19
24.3409  8.09134e+19
24.4582  7.83461e+19
24.5755  7.66131e+19
24.6928  7.5901e+19
24.8101  7.61937e+19
24.9274  7.73057e+19
25.0447  7.89097e+19
25.162  8.05767e+19
25.2793  8.18842e+19
25.3966  8.24138e+19
25.5139  8.19477e+19
25.6312  8.03907e+19
25.7485  7.78858e+19
25.8658  7.47717e+19
25.9832  7.14232e+19
26.1005  6.84456e+19
26.2178  6.62396e+19
26.3351  6.51174e+19
26.4524  6.52605e+19
26.5697  6.66184e+19
26.687  6.89287e+19
26.8043  7.18167e+19
26.9216  7.4825e+19
27.0389  7.7429e+19
27.1562  7.92485e+19
27.2735  7.9937e+19
27.3908  7.92706e+19
27.5081  7.71625e+19
27.6254  7.36413e+19
27.7427  6.88727e+19
27.86  6.30822e+19
27.9773  5.66137e+19
28.0946  4.98653e+19
28.212  4.3222e+19
28.3293  3.71049e+19
28.4466  3.18181e+19
28.5639  2.75765e+19
28.6812  2.44838e+19
28.7985  2.24605e+19
28.9158  2.13311e+19
29.0331  2.08195e+19
29.1504  2.05936e+19
29.2677  2.03575e+19
29.385  1.98417e+19
29.5023  1.88771e+19
29.6196  1.73855e+19
29.7369  1.54181e+19
29.8542  1.30975e+19
29.9715  1.0599e+19
30.0888  8.15453e+18
30.2061  6.00379e+18
30.3234  4.3942e+18
30.4407  3.52116e+18
30.558  3.52608e+18
30.6754  4.46955e+18
30.7927  6.31107e+18
30.91  8.90556e+18
31.0273  1.20055e+19
31.1446  1.5311e+19
31.2619  1.84726e+19
31.3792  2.11822e+19
31.4965  2.31762e+19
31.6138  2.43279e+19
31.7311  2.4625e+19
31.8484  2.41714e+19
31.9657  2.31719e+19
32.083  2.18695e+19
32.2003  2.05294e+19
32.3176  1.93862e+19
32.4349  1.85753e+19
32.5522  1.8195e+19
32.6695  1.82252e+19
32.7868  1.86145e+19
32.9042  1.92518e+19
33.0215  1.99904e+19
33.1388  2.07374e+19
33.2561  2.13502e+19
33.3734  2.17935e+19
33.4907  2.20061e+19
33.608  2.20302e+19
33.7253  2.19246e+19
33.8426  2.17449e+19
33.9599  2.1607e+19
34.0772  2.15476e+19
34.1945  2.16191e+19
34.3118  2.18131e+19
34.4291  2.20937e+19
34.5464  2.24023e+19
34.6637  2.26996e+19
34.781  2.30286e+19
34.8983  2.34697e+19
35.0156  2.42022e+19
35.1329  2.54233e+19
35.2503  2.73328e+19
35.3676  3.00292e+19
35.4849  3.34483e+19
35.6022  3.73557e+19
35.7195  4.12957e+19
35.8368  4.47222e+19
35.9541  4.69701e+19
36.0714  4.75813e+19
36.1887  4.61725e+19
36.306  4.27604e+19
36.4233  3.76491e+19
36.5406  3.14238e+19
36.6579  2.48458e+19
36.7752  1.8739e+19
36.8925  1.37872e+19
37.0098  1.04559e+19
37.1271  8.89464e+18
37.2444  8.94725e+18
37.3617  1.02218e+19
37.479  1.21973e+19
37.5964  1.43477e+19
37.7137  1.62326e+19
37.831  1.75813e+19
37.9483  1.83126e+19
38.0656  1.84348e+19
38.1829  1.80911e+19
38.3002  1.73828e+19
38.4175  1.6386e+19
38.5348  1.51547e+19
38.6521  1.3673e+19
38.7694  1.19658e+19
38.8867  1.00895e+19
39.004  8.17805e+18
39.1213  6.43585e+18
39.2386  5.09816e+18
39.3559  4.36921e+18
39.4732  4.35409e+18
39.5905  5.03236e+18
39.7078  6.24277e+18
39.8251  7.71627e+18
39.9425  9.13139e+18
40.0598  1.0192e+19
40.1771  1.07198e+19
40.2944  1.06659e+19
40.4117  1.00998e+19
40.529  9.22159e+18
40.6463  8.26313e+18
40.7636  7.40401e+18
40.8809  6.77409e+18
40.9982  6.39884e+18
41.1155  6.1988e+18
41.2328  6.06787e+18
41.3501  5.87431e+18
41.4674  5.56318e+18
41.5847  5.13888e+18
41.702  4.68501e+18
41.8193  4.35532e+18
41.9366  4.31445e+18
42.0539  4.71644e+18
42.1712  5.65262e+18
42.2885  7.14403e+18
42.4059  9.13702e+18
42.5232  1.14867e+19
42.6405  1.39768e+19
42.7578  1.63469e+19
42.8751  1.82854e+19
42.9924  1.94829e+19
43.1097  1.96911e+19
43.227  1.87294e+19
43.3443  1.6597e+19
43.4616  1.35027e+19
43.5789  9.8618e+18
43.6962  6.31151e+18
43.8135  3.58436e+18
43.9308  2.41355e+18
44.0481  3.33397e+18
44.1654  6.56522e+18
44.2827  1.19351e+19
44.4  1.8828e+19
44.5173  2.62923e+19
44.6347  3.3188e+19
44.752  3.84205e+19
44.8693  4.11661e+19
44.9866  4.10703e+19
45.1039  3.82016e+19
45.2212  3.32445e+19
45.3385  2.71451e+19
45.4558  2.10082e+19
45.5731  1.58901e+19
45.6904  1.25361e+19
45.8077  1.12859e+19
45.925  1.20481e+19
46.0423  1.43611e+19
46.1596  1.752e+19
46.2769  2.07707e+19
46.3942  2.34288e+19
46.5115  2.50265e+19
46.6288  2.53484e+19
46.7461  2.44197e+19
46.8634  2.24854e+19
46.9808  1.98967e+19
47.0981  1.70445e+19
47.2154  1.43053e+19
47.3327  1.19487e+19
47.45  1.01976e+19
47.5673  9.13869e+18
47.6846  8.77622e+18
47.8019  9.07555e+18
47.9192  9.90875e+18
48.0365  1.1144e+19
48.1538  1.26098e+19
48.2711  1.41544e+19
48.3884  1.56337e+19
48.5057  1.69622e+19
48.623  1.80508e+19
48.7403  1.88582e+19
48.8576  1.94035e+19
48.9749  1.96517e+19
49.0922  1.95937e+19
49.2095  1.92242e+19
49.3269  1.85485e+19
49.4442  1.75562e+19
49.5615  1.63121e+19
49.6788  1.48897e+19
49.7961  1.33914e+19
49.9134  1.19479e+19
50.0307  1.06507e+19
50.148  9.56569e+18
50.2653  8.71678e+18
50.3826  8.06642e+18
50.4999  7.53188e+18
50.6172  7.03062e+18
50.7345  6.48345e+18
50.8518  5.86928e+18
