#S 1 spectral density
#N 2
#UFWHM 9.03249
#L  abscissas [um]  spectral density
-58.5938  1.52496e+18
-58.4764  8.72683e+17
-58.3591  1.68937e+18
-58.2418  3.95844e+18
-58.1245  7.43137e+18
-58.0072  1.16276e+19
-57.8899  1.59845e+19
-57.7726  1.99453e+19
-57.6553  2.30381e+19
-57.538  2.50092e+19
-57.4207  2.58128e+19
-57.3034  2.55517e+19
-57.1861  2.44669e+19
-57.0688  2.28121e+19
-56.9515  2.08154e+19
-56.8342  1.85994e+19
-56.7169  1.62149e+19
-56.5996  1.37042e+19
-56.4823  1.10893e+19
-56.365  8.44705e+18
-56.2477  5.94214e+18
-56.1303  3.72559e+18
-56.013  1.9826e+18
-55.8957  8.22036e+17
-55.7784  2.67447e+17
-55.6611  2.25753e+17
-55.5438  5.24208e+17
-55.4265  9.4876e+17
-55.3092  1.31136e+18
-55.1919  1.49089e+18
-55.0746  1.46922e+18
-54.9573  1.31601e+18
-54.84  1.15678e+18
-54.7227  1.12489e+18
-54.6054  1.30786e+18
-54.4881  1.72034e+18
-54.3708  2.29979e+18
-54.2535  2.91831e+18
-54.1362  3.43459e+18
-54.0189  3.75429e+18
-53.9016  3.81706e+18
-53.7842  3.6485e+18
-53.6669  3.33996e+18
-53.5496  3.01929e+18
-53.4323  2.79788e+18
-53.315  2.75742e+18
-53.1977  2.92118e+18
-53.0804  3.24986e+18
-52.9631  3.66412e+18
-52.8458  4.06702e+18
-52.7285  4.36994e+18
-52.6112  4.5212e+18
-52.4939  4.5053e+18
-52.3766  4.36302e+18
-52.2593  4.17771e+18
-52.142  4.0528e+18
-52.0247  4.11052e+18
-51.9074  4.45038e+18
-51.7901  5.14229e+18
-51.6728  6.20688e+18
-51.5555  7.59451e+18
-51.4381  9.15843e+18
-51.3208  1.07351e+19
-51.2035  1.20641e+19
-51.0862  1.29314e+19
-50.9689  1.31179e+19
-50.8516  1.2515e+19
-50.7343  1.11818e+19
-50.617  9.27357e+18
-50.4997  7.09444e+18
-50.3824  5.04712e+18
-50.2651  3.54122e+18
-50.1478  2.9657e+18
-50.0305  3.56736e+18
-49.9132  5.44771e+18
-49.7959  8.51298e+18
-49.6786  1.25246e+19
-49.5613  1.70875e+19
-49.444  2.17149e+19
-49.3267  2.59524e+19
-49.2094  2.93752e+19
-49.092  3.16121e+19
-48.9747  3.24994e+19
-48.8574  3.19457e+19
-48.7401  3.00423e+19
-48.6228  2.69858e+19
-48.5055  2.31076e+19
-48.3882  1.87707e+19
-48.2709  1.43674e+19
-48.1536  1.02657e+19
-48.0363  6.75888e+18
-47.919  4.0646e+18
-47.8017  2.29439e+18
-47.6844  1.48151e+18
-47.5671  1.6077e+18
-47.4498  2.62553e+18
-47.3325  4.47209e+18
-47.2152  7.08597e+18
-47.0979  1.0366e+19
-46.9806  1.4174e+19
-46.8633  1.82916e+19
-46.7459  2.23513e+19
-46.6286  2.59685e+19
-46.5113  2.86739e+19
-46.394  3.00829e+19
-46.2767  2.99222e+19
-46.1594  2.81101e+19
-46.0421  2.48558e+19
-45.9248  2.05492e+19
-45.8075  1.57613e+19
-45.6902  1.11083e+19
-45.5729  7.10883e+18
-45.4556  4.12298e+18
-45.3383  2.2582e+18
-45.221  1.3972e+18
-45.1037  1.25471e+18
-44.9864  1.49089e+18
-44.8691  1.81177e+18
-44.7518  2.05001e+18
-44.6345  2.20993e+18
-44.5172  2.43002e+18
-44.3998  2.9007e+18
-44.2825  3.79389e+18
-44.1652  5.15323e+18
-44.0479  6.86561e+18
-43.9306  8.6709e+18
-43.8133  1.02197e+19
-43.696  1.11567e+19
-43.5787  1.12593e+19
-43.4614  1.04753e+19
-43.3441  8.93733e+18
-43.2268  6.96554e+18
-43.1095  4.9679e+18
-42.9922  3.35021e+18
-42.8749  2.41005e+18
-42.7576  2.28919e+18
-42.6403  2.95519e+18
-42.523  4.2158e+18
-42.4057  5.78569e+18
-42.2884  7.36303e+18
-42.171  8.68744e+18
-42.0537  9.6036e+18
-41.9364  1.00658e+19
-41.8191  1.0115e+19
-41.7018  9.91258e+18
-41.5845  9.61372e+18
-41.4672  9.4121e+18
-41.3499  9.47697e+18
-41.2326  9.94267e+18
-41.1153  1.08585e+19
-40.998  1.22068e+19
-40.8807  1.38875e+19
-40.7634  1.57219e+19
-40.6461  1.7443e+19
-40.5288  1.87818e+19
-40.4115  1.94396e+19
-40.2942  1.92272e+19
-40.1769  1.80759e+19
-40.0596  1.60581e+19
-39.9423  1.34046e+19
-39.825  1.04574e+19
-39.7076  7.62348e+18
-39.5903  5.25538e+18
-39.473  3.63541e+18
-39.3557  2.88479e+18
-39.2384  3.0013e+18
-39.1211  3.85756e+18
-39.0038  5.28644e+18
-38.8865  7.14653e+18
-38.7692  9.38352e+18
-38.6519  1.20132e+19
-38.5346  1.51221e+19
-38.4173  1.8781e+19
-38.3  2.29755e+19
-38.1827  2.75394e+19
-38.0654  3.21205e+19
-37.9481  3.62183e+19
-37.8308  3.92591e+19
-37.7135  4.07244e+19
-37.5962  4.02343e+19
-37.4789  3.77087e+19
-37.3615  3.34208e+19
-37.2442  2.79231e+19
-37.1269  2.19378e+19
-37.0096  1.6308e+19
-36.8923  1.17669e+19
-36.775  8.84846e+18
-36.6577  7.79319e+18
-36.5404  8.5231e+18
-36.4231  1.07156e+19
-36.3058  1.38879e+19
-36.1885  1.74973e+19
-36.0712  2.10643e+19
-35.9539  2.42145e+19
-35.8366  2.67353e+19
-35.7193  2.85435e+19
-35.602  2.95933e+19
-35.4847  2.99612e+19
-35.3674  2.96821e+19
-35.2501  2.87786e+19
-35.1328  2.72673e+19
-35.0154  2.5189e+19
-34.8981  2.26464e+19
-34.7808  1.97982e+19
-34.6635  1.68093e+19
-34.5462  1.39368e+19
-34.4289  1.14127e+19
-34.3116  9.39222e+18
-34.1943  7.97059e+18
-34.077  7.15734e+18
-33.9597  6.84884e+18
-33.8424  6.89957e+18
-33.7251  7.11163e+18
-33.6078  7.33396e+18
-33.4905  7.43536e+18
-33.3732  7.34771e+18
-33.2559  7.06162e+18
-33.1386  6.61186e+18
-33.0213  6.06111e+18
-32.904  5.47473e+18
-32.7867  4.92075e+18
-32.6693  4.46544e+18
-32.552  4.16177e+18
-32.4347  4.04126e+18
-32.3174  4.12197e+18
-32.2001  4.41505e+18
-32.0828  4.90848e+18
-31.9655  5.58791e+18
-31.8482  6.41604e+18
-31.7309  7.38022e+18
-31.6136  8.46467e+18
-31.4963  9.68848e+18
-31.379  1.10872e+19
-31.2617  1.27286e+19
-31.1444  1.4674e+19
-31.0271  1.69328e+19
-30.9098  1.95114e+19
-30.7925  2.22999e+19
-30.6752  2.51676e+19
-30.5579  2.79055e+19
-30.4406  3.02746e+19
-30.3232  3.20671e+19
-30.2059  3.30658e+19
-30.0886  3.31703e+19
-29.9713  3.23609e+19
-29.854  3.06717e+19
-29.7367  2.82378e+19
-29.6194  2.524e+19
-29.5021  2.19108e+19
-29.3848  1.84572e+19
-29.2675  1.51049e+19
-29.1502  1.20663e+19
-29.0329  9.52376e+18
-28.9156  7.61423e+18
-28.7983  6.43701e+18
-28.681  6.05457e+18
-28.5637  6.48506e+18
-28.4464  7.71282e+18
-28.3291  9.69928e+18
-28.2118  1.23953e+19
-28.0944  1.57654e+19
-27.9771  1.97575e+19
-27.8598  2.43373e+19
-27.7425  2.94532e+19
-27.6252  3.4976e+19
-27.5079  4.08123e+19
-27.3906  4.67269e+19
-27.2733  5.24978e+19
-27.156  5.78462e+19
-27.0387  6.24695e+19
-26.9214  6.61757e+19
-26.8041  6.88136e+19
-26.6868  7.03208e+19
-26.5695  7.07165e+19
-26.4522  7.01011e+19
-26.3349  6.86669e+19
-26.2176  6.65664e+19
-26.1003  6.39682e+19
-25.983  6.10047e+19
-25.8657  5.77715e+19
-25.7483  5.44134e+19
-25.631  5.10489e+19
-25.5137  4.7888e+19
-25.3964  4.50637e+19
-25.2791  4.27926e+19
-25.1618  4.12662e+19
-25.0445  4.06335e+19
-24.9272  4.09295e+19
-24.8099  4.21671e+19
-24.6926  4.42303e+19
-24.5753  4.69635e+19
-24.458  5.01067e+19
-24.3407  5.34252e+19
-24.2234  5.66401e+19
-24.1061  5.95312e+19
-23.9888  6.18582e+19
-23.8715  6.34644e+19
-23.7542  6.4198e+19
-23.6369  6.4039e+19
-23.5196  6.30206e+19
-23.4023  6.12177e+19
-23.2849  5.88177e+19
-23.1676  5.60407e+19
-23.0503  5.31419e+19
-22.933  5.03202e+19
-22.8157  4.77238e+19
-22.6984  4.54245e+19
-22.5811  4.34452e+19
-22.4638  4.17765e+19
-22.3465  4.03857e+19
-22.2292  3.93457e+19
-22.1119  3.87827e+19
-21.9946  3.89246e+19
-21.8773  4.00899e+19
-21.76  4.26388e+19
-21.6427  4.6918e+19
-21.5254  5.31679e+19
-21.4081  6.15729e+19
-21.2908  7.21685e+19
-21.1735  8.48871e+19
-21.0561  9.95939e+19
-20.9388  1.16059e+20
-20.8215  1.34055e+20
-20.7042  1.53416e+20
-20.5869  1.73844e+20
-20.4696  1.9502e+20
-20.3523  2.16577e+20
-20.235  2.38018e+20
-20.1177  2.58824e+20
-20.0004  2.78416e+20
-19.8831  2.95984e+20
-19.7658  3.11246e+20
-19.6485  3.2374e+20
-19.5312  3.33318e+20
-19.4139  3.4001e+20
-19.2966  3.44183e+20
-19.1793  3.46245e+20
-19.062  3.46823e+20
-18.9447  3.46658e+20
-18.8274  3.46551e+20
-18.71  3.47064e+20
-18.5927  3.49007e+20
-18.4754  3.5286e+20
-18.3581  3.58914e+20
-18.2408  3.67426e+20
-18.1235  3.78226e+20
-18.0062  3.90997e+20
-17.8889  4.05104e+20
-17.7716  4.19651e+20
-17.6543  4.33892e+20
-17.537  4.46723e+20
-17.4197  4.57494e+20
-17.3024  4.65698e+20
-17.1851  4.71241e+20
-17.0678  4.74443e+20
-16.9505  4.75936e+20
-16.8332  4.76885e+20
-16.7159  4.78547e+20
-16.5986  4.82373e+20
-16.4813  4.89818e+20
-16.364  5.02216e+20
-16.2466  5.20582e+20
-16.1293  5.45452e+20
-16.012  5.77304e+20
-15.8947  6.1571e+20
-15.7774  6.60188e+20
-15.6601  7.09568e+20
-15.5428  7.62482e+20
-15.4255  8.17062e+20
-15.3082  8.71557e+20
-15.1909  9.24163e+20
-15.0736  9.73074e+20
-14.9563  1.0167e+21
-14.839  1.05431e+21
-14.7217  1.08508e+21
-14.6044  1.1091e+21
-14.4871  1.12696e+21
-14.3698  1.13971e+21
-14.2525  1.14874e+21
-14.1352  1.15565e+21
-14.0178  1.16258e+21
-13.9005  1.17126e+21
-13.7832  1.1835e+21
-13.6659  1.20101e+21
-13.5486  1.22523e+21
-13.4313  1.2574e+21
-13.314  1.29841e+21
-13.1967  1.34875e+21
-13.0794  1.40913e+21
-12.9621  1.4793e+21
-12.8448  1.55941e+21
-12.7275  1.64879e+21
-12.6102  1.74702e+21
-12.4929  1.85308e+21
-12.3756  1.96571e+21
-12.2583  2.08364e+21
-12.141  2.20521e+21
-12.0237  2.32856e+21
-11.9064  2.45155e+21
-11.7891  2.57208e+21
-11.6718  2.68789e+21
-11.5544  2.79693e+21
-11.4371  2.89739e+21
-11.3198  2.98728e+21
-11.2025  3.06527e+21
-11.0852  3.13064e+21
-10.9679  3.18295e+21
-10.8506  3.2224e+21
-10.7333  3.24945e+21
-10.616  3.26537e+21
-10.4987  3.27208e+21
-10.3814  3.27109e+21
-10.2641  3.26478e+21
-10.1468  3.25556e+21
-10.0295  3.24581e+21
-9.91217  3.23753e+21
-9.79487  3.23332e+21
-9.67756  3.23468e+21
-9.56026  3.24314e+21
-9.44295  3.25972e+21
-9.32565  3.28549e+21
-9.20834  3.3206e+21
-9.09104  3.36512e+21
-8.97373  3.41907e+21
-8.85643  3.48234e+21
-8.73913  3.55416e+21
-8.62182  3.63447e+21
-8.50452  3.72302e+21
-8.38721  3.81962e+21
-8.26991  3.924e+21
-8.1526  4.0363e+21
-8.03529  4.156e+21
-7.91799  4.28328e+21
-7.80069  4.41813e+21
-7.68338  4.56011e+21
-7.56608  4.70943e+21
-7.44877  4.86603e+21
-7.33146  5.02985e+21
-7.21416  5.20073e+21
-7.09685  5.3789e+21
-6.97955  5.56424e+21
-6.86224  5.75694e+21
-6.74494  5.9575e+21
-6.62763  6.16551e+21
-6.51033  6.3814e+21
-6.39302  6.60538e+21
-6.27572  6.83757e+21
-6.15842  7.078e+21
-6.04111  7.32648e+21
-5.92381  7.58289e+21
-5.8065  7.847e+21
-5.68919  8.11774e+21
-5.57189  8.39458e+21
-5.45458  8.6761e+21
-5.33728  8.96133e+21
-5.21997  9.24847e+21
-5.10267  9.53645e+21
-4.98536  9.82326e+21
-4.86806  1.01077e+22
-4.75075  1.03883e+22
-4.63345  1.06641e+22
-4.51614  1.0934e+22
-4.39884  1.11975e+22
-4.28154  1.14544e+22
-4.16423  1.1705e+22
-4.04692  1.19494e+22
-3.92962  1.2189e+22
-3.81231  1.24249e+22
-3.69501  1.26587e+22
-3.5777  1.28922e+22
-3.4604  1.31276e+22
-3.34309  1.33663e+22
-3.22579  1.36107e+22
-3.10849  1.38627e+22
-2.99118  1.41237e+22
-2.87387  1.43953e+22
-2.75657  1.4679e+22
-2.63926  1.49754e+22
-2.52196  1.52853e+22
-2.40465  1.56088e+22
-2.28735  1.59458e+22
-2.17005  1.62957e+22
-2.05274  1.66575e+22
-1.93544  1.70298e+22
-1.81813  1.74106e+22
-1.70083  1.77976e+22
-1.58352  1.81879e+22
-1.46622  1.85785e+22
-1.34891  1.89656e+22
-1.2316  1.93449e+22
-1.1143  1.9712e+22
-0.996995  2.00618e+22
-0.87969  2.03896e+22
-0.762385  2.06899e+22
-0.64508  2.0958e+22
-0.527775  2.11892e+22
-0.41047  2.13792e+22
-0.293165  2.15248e+22
-0.17586  2.16228e+22
-0.058555  2.16716e+22
0.05875  2.16704e+22
0.176055  2.16188e+22
0.29336  2.15181e+22
0.410665  2.13704e+22
0.52797  2.11779e+22
0.645275  2.09447e+22
0.76258  2.06748e+22
0.879885  2.03729e+22
0.99719  2.0044e+22
1.1145  1.9693e+22
1.2318  1.9325e+22
1.3491  1.89452e+22
1.46641  1.85577e+22
1.58371  1.81668e+22
1.70102  1.77762e+22
1.81832  1.7389e+22
1.93563  1.7008e+22
2.05294  1.66355e+22
2.17024  1.62736e+22
2.28754  1.59236e+22
2.40485  1.55864e+22
2.52216  1.52626e+22
2.63946  1.49524e+22
2.75677  1.46557e+22
2.87407  1.4372e+22
2.99137  1.40999e+22
3.10868  1.38386e+22
3.22599  1.35866e+22
3.34329  1.33421e+22
3.4606  1.31032e+22
3.5779  1.28678e+22
3.69521  1.26343e+22
3.81251  1.24006e+22
3.92982  1.21647e+22
4.04712  1.19253e+22
4.16443  1.1681e+22
4.28173  1.14306e+22
4.39903  1.11739e+22
4.51634  1.09104e+22
4.63364  1.06407e+22
4.75095  1.0365e+22
4.86825  1.00843e+22
4.98556  9.80001e+21
5.10286  9.51331e+21
5.22017  9.22545e+21
5.33748  8.93839e+21
5.45478  8.65356e+21
5.57209  8.37232e+21
5.68939  8.09595e+21
5.8067  7.82575e+21
5.924  7.56233e+21
6.0413  7.30656e+21
6.15861  7.05893e+21
6.27591  6.81929e+21
6.39322  6.58805e+21
6.51052  6.36491e+21
6.62783  6.14973e+21
6.74514  5.94246e+21
6.86244  5.74286e+21
6.97975  5.55065e+21
7.09705  5.36583e+21
7.21436  5.18825e+21
7.33166  5.01765e+21
7.44897  4.85429e+21
7.56627  4.69811e+21
7.68358  4.54905e+21
7.80088  4.40732e+21
7.91819  4.27285e+21
8.03549  4.14599e+21
8.1528  4.02675e+21
8.2701  3.915e+21
8.38741  3.81114e+21
8.50471  3.71517e+21
8.62202  3.62711e+21
8.73932  3.54732e+21
8.85662  3.47617e+21
8.97393  3.4136e+21
9.09123  3.36009e+21
9.20854  3.316e+21
9.32584  3.28141e+21
9.44315  3.25595e+21
9.56045  3.23941e+21
9.67776  3.23117e+21
9.79506  3.22987e+21
9.91237  3.23404e+21
10.0297  3.24212e+21
10.147  3.25188e+21
10.2643  3.26102e+21
10.3816  3.26708e+21
10.4989  3.268e+21
10.6162  3.26119e+21
10.7335  3.24509e+21
10.8508  3.2179e+21
10.9681  3.1784e+21
11.0854  3.12618e+21
11.2027  3.06083e+21
11.32  2.98275e+21
11.4373  2.89283e+21
11.5546  2.79255e+21
11.6719  2.68341e+21
11.7893  2.56768e+21
11.9066  2.4473e+21
12.0239  2.32423e+21
12.1412  2.20109e+21
12.2585  2.07969e+21
12.3758  1.96188e+21
12.4931  1.84937e+21
12.6104  1.74348e+21
12.7277  1.64552e+21
12.845  1.55639e+21
12.9623  1.47647e+21
13.0796  1.40653e+21
13.1969  1.34644e+21
13.3142  1.2963e+21
13.4315  1.25549e+21
13.5488  1.22355e+21
13.6661  1.19944e+21
13.7834  1.18202e+21
13.9007  1.16983e+21
14.018  1.16125e+21
14.1354  1.15435e+21
14.2527  1.14732e+21
14.37  1.13833e+21
14.4873  1.12545e+21
14.6046  1.10754e+21
14.7219  1.08342e+21
14.8392  1.05266e+21
14.9565  1.01509e+21
15.0738  9.71369e+20
15.1911  9.22585e+20
15.3084  8.70027e+20
15.4257  8.15518e+20
15.543  7.60963e+20
15.6603  7.08179e+20
15.7776  6.58956e+20
15.8949  6.14625e+20
16.0122  5.76302e+20
16.1295  5.44611e+20
16.2468  5.19733e+20
16.3641  5.01469e+20
16.4815  4.89118e+20
16.5988  4.81694e+20
16.7161  4.77783e+20
16.8334  4.76151e+20
16.9507  4.75119e+20
17.068  4.73551e+20
17.1853  4.70275e+20
17.3026  4.64665e+20
17.4199  4.56338e+20
17.5372  4.4545e+20
17.6545  4.32555e+20
17.7718  4.18383e+20
17.8891  4.03792e+20
18.0064  3.89803e+20
18.1237  3.77103e+20
18.241  3.66367e+20
18.3583  3.57977e+20
18.4756  3.52018e+20
18.5929  3.48324e+20
18.7102  3.4645e+20
18.8275  3.46024e+20
18.9449  3.46282e+20
19.0622  3.4647e+20
19.1795  3.45963e+20
19.2968  3.43867e+20
19.4141  3.39728e+20
19.5314  3.32949e+20
19.6487  3.23268e+20
19.766  3.1076e+20
19.8833  2.95369e+20
20.0006  2.77657e+20
20.1179  2.5806e+20
20.2352  2.37234e+20
20.3525  2.15735e+20
20.4698  1.94123e+20
20.5871  1.72923e+20
20.7044  1.52522e+20
20.8217  1.33206e+20
20.939  1.15234e+20
21.0563  9.88146e+19
21.1736  8.41611e+19
21.291  7.14867e+19
21.4083  6.09672e+19
21.5256  5.26019e+19
21.6429  4.64018e+19
21.7602  4.21768e+19
21.8775  3.96664e+19
21.9948  3.85267e+19
22.1121  3.84074e+19
22.2294  3.89859e+19
22.3467  4.00482e+19
22.464  4.14394e+19
22.5813  4.31406e+19
22.6986  4.51313e+19
22.8159  4.74731e+19
22.9332  5.01126e+19
23.0505  5.29927e+19
23.1678  5.59408e+19
23.2851  5.87587e+19
23.4024  6.11943e+19
23.5198  6.30292e+19
23.6371  6.40762e+19
23.7544  6.42335e+19
23.8717  6.3499e+19
23.989  6.19055e+19
24.1063  5.95804e+19
24.2236  5.66857e+19
24.3409  5.34664e+19
24.4582  5.01698e+19
24.5755  4.70221e+19
24.6928  4.43302e+19
24.8101  4.22942e+19
24.9274  4.10921e+19
25.0447  4.08142e+19
25.162  4.14713e+19
25.2793  4.30147e+19
25.3966  4.52554e+19
25.5139  4.80599e+19
25.6312  5.11971e+19
25.7485  5.4494e+19
25.8658  5.78162e+19
25.9832  6.09682e+19
26.1005  6.39092e+19
26.2178  6.64817e+19
26.3351  6.8551e+19
26.4524  6.99503e+19
26.5697  7.05365e+19
26.687  7.01149e+19
26.8043  6.86002e+19
26.9216  6.59642e+19
27.0389  6.22218e+19
27.1562  5.75754e+19
27.2735  5.22164e+19
27.3908  4.64324e+19
27.5081  4.05024e+19
27.6254  3.46721e+19
27.7427  2.91467e+19
27.86  2.40558e+19
27.9773  1.94959e+19
28.0946  1.55377e+19
28.212  1.21981e+19
28.3293  9.53153e+18
28.4466  7.57857e+18
28.5639  6.38176e+18
28.6812  5.98359e+18
28.7985  6.39092e+18
28.9158  7.59034e+18
29.0331  9.51916e+18
29.1504  1.20694e+19
29.2677  1.51128e+19
29.385  1.84535e+19
29.5023  2.1892e+19
29.6196  2.52087e+19
29.7369  2.81767e+19
29.8542  3.05884e+19
29.9715  3.22363e+19
30.0888  3.30434e+19
30.2061  3.29125e+19
30.3234  3.19084e+19
30.4407  3.01371e+19
30.558  2.77678e+19
30.6754  2.50674e+19
30.7927  2.22065e+19
30.91  1.94265e+19
31.0273  1.68757e+19
31.1446  1.46282e+19
31.2619  1.26972e+19
31.3792  1.10595e+19
31.4965  9.66148e+18
31.6138  8.44551e+18
31.7311  7.36665e+18
31.8484  6.41198e+18
31.9657  5.59234e+18
32.083  4.9273e+18
32.2003  4.44086e+18
32.3176  4.15507e+18
32.4349  4.07937e+18
32.5522  4.19921e+18
32.6695  4.4984e+18
32.7868  4.9429e+18
32.9042  5.48137e+18
33.0215  6.05484e+18
33.1388  6.58411e+18
33.2561  7.01908e+18
33.3734  7.27947e+18
33.4907  7.35023e+18
33.608  7.24002e+18
33.7253  7.01672e+18
33.8426  6.81228e+18
33.9599  6.7859e+18
34.0772  7.12457e+18
34.1945  7.97566e+18
34.3118  9.43253e+18
34.4291  1.14838e+19
34.5464  1.40396e+19
34.6637  1.69255e+19
34.781  1.99181e+19
34.8983  2.27828e+19
35.0156  2.5315e+19
35.1329  2.7371e+19
35.2503  2.8864e+19
35.3676  2.977e+19
35.4849  3.00371e+19
35.6022  2.96495e+19
35.7195  2.8563e+19
35.8368  2.67569e+19
35.9541  2.42067e+19
36.0714  2.10436e+19
36.1887  1.74651e+19
36.306  1.38453e+19
36.4233  1.06835e+19
36.5406  8.5069e+18
36.6579  7.79453e+18
36.7752  8.87314e+18
36.8925  1.18014e+19
37.0098  1.63305e+19
37.1271  2.19552e+19
37.2444  2.78969e+19
37.3617  3.33573e+19
37.479  3.75888e+19
37.5964  4.00482e+19
37.7137  4.04981e+19
37.831  3.89995e+19
37.9483  3.59574e+19
38.0656  3.18511e+19
38.1829  2.72932e+19
38.3002  2.27651e+19
38.4175  1.86091e+19
38.5348  1.49927e+19
38.6521  1.19191e+19
38.7694  9.32204e+18
38.8867  7.11513e+18
39.004  5.26635e+18
39.1213  3.84638e+18
39.2386  3.00055e+18
39.3559  2.89586e+18
39.4732  3.65289e+18
39.5905  5.27946e+18
39.7078  7.64165e+18
39.8251  1.04762e+19
39.9425  1.34073e+19
40.0598  1.60519e+19
40.1771  1.80443e+19
40.2944  1.91715e+19
40.4117  1.93547e+19
40.529  1.86795e+19
40.6463  1.7346e+19
40.7636  1.56195e+19
40.8809  1.38048e+19
40.9982  1.21435e+19
41.1155  1.08141e+19
41.2328  9.92465e+18
41.3501  9.48931e+18
41.4674  9.43898e+18
41.5847  9.64988e+18
41.702  9.96001e+18
41.8193  1.01672e+19
41.9366  1.01031e+19
42.0539  9.62733e+18
42.1712  8.69736e+18
42.2885  7.36369e+18
42.4059  5.77624e+18
42.5232  4.20369e+18
42.6405  2.94804e+18
42.7578  2.29283e+18
42.8751  2.42578e+18
42.9924  3.38344e+18
43.1097  5.01708e+18
43.227  7.01402e+18
43.3443  8.97925e+18
43.4616  1.04995e+19
43.5789  1.127e+19
43.6962  1.11401e+19
43.8135  1.01762e+19
43.9308  8.61513e+18
44.0481  6.80466e+18
44.1654  5.10485e+18
44.2827  3.76066e+18
44.4  2.88425e+18
44.5173  2.42555e+18
44.6347  2.21654e+18
44.752  2.05454e+18
44.8693  1.81054e+18
44.9866  1.49008e+18
45.1039  1.25581e+18
45.2212  1.40929e+18
45.3385  2.2939e+18
45.4558  4.19465e+18
45.5731  7.2231e+18
45.6904  1.12528e+19
45.8077  1.59418e+19
45.925  2.07411e+19
46.0423  2.50401e+19
46.1596  2.82663e+19
46.2769  3.00301e+19
46.3942  3.01591e+19
46.5115  2.8694e+19
46.6288  2.59496e+19
46.7461  2.23064e+19
46.8634  1.8219e+19
46.9808  1.41103e+19
47.0981  1.02974e+19
47.2154  7.02211e+18
47.3327  4.41382e+18
47.45  2.58437e+18
47.5673  1.58577e+18
47.6846  1.48015e+18
47.8019  2.31386e+18
47.9192  4.10477e+18
48.0365  6.81872e+18
48.1538  1.03302e+19
48.2711  1.4442e+19
48.3884  1.88285e+19
48.5057  2.31561e+19
48.623  2.69886e+19
48.7403  2.99884e+19
48.8576  3.18699e+19
48.9749  3.23887e+19
49.0922  3.14837e+19
49.2095  2.92241e+19
49.3269  2.5814e+19
49.4442  2.1567e+19
49.5615  1.69526e+19
49.6788  1.24268e+19
49.7961  8.43866e+18
49.9134  5.39421e+18
50.0307  3.54047e+18
50.148  2.95237e+18
50.2653  3.54551e+18
50.3826  5.05591e+18
50.4999  7.1113e+18
50.6172  9.28684e+18
50.7345  1.11877e+19
50.8518  1.25039e+19
50.9691  1.30803e+19
