#S 1 spectral density
#N 2
#UFWHM 11.8478
#L  abscissas [um]  spectral density
-58.5938  3.19968e+19
-58.4764  2.90871e+19
-58.3591  2.55123e+19
-58.2418  2.18502e+19
-58.1245  1.85197e+19
-58.0072  1.57239e+19
-57.8899  1.35115e+19
-57.7726  1.17623e+19
-57.6553  1.02817e+19
-57.538  8.89608e+18
-57.4207  7.49635e+18
-57.3034  6.02953e+18
-57.1861  4.54422e+18
-57.0688  3.14095e+18
-56.9515  1.96045e+18
-56.8342  1.16128e+18
-56.7169  9.383e+17
-56.5996  1.50059e+18
-56.4823  3.07713e+18
-56.365  5.88996e+18
-56.2477  1.00728e+19
-56.1303  1.56626e+19
-56.013  2.2478e+19
-55.8957  3.01413e+19
-55.7784  3.80079e+19
-55.6611  4.53328e+19
-55.5438  5.13314e+19
-55.4265  5.52711e+19
-55.3092  5.66995e+19
-55.1919  5.54473e+19
-55.0746  5.17507e+19
-54.9573  4.6121e+19
-54.84  3.93344e+19
-54.7227  3.22022e+19
-54.6054  2.55602e+19
-54.4881  2.00086e+19
-54.3708  1.59077e+19
-54.2535  1.33193e+19
-54.1362  1.20872e+19
-54.0189  1.18746e+19
-53.9016  1.22853e+19
-53.7842  1.29399e+19
-53.6669  1.35141e+19
-53.5496  1.38299e+19
-53.4323  1.38382e+19
-53.315  1.36079e+19
-53.1977  1.32964e+19
-53.0804  1.30778e+19
-52.9631  1.3147e+19
-52.8458  1.36234e+19
-52.7285  1.45413e+19
-52.6112  1.58342e+19
-52.4939  1.73456e+19
-52.3766  1.88205e+19
-52.2593  1.9951e+19
-52.142  2.04665e+19
-52.0247  2.01629e+19
-51.9074  1.89605e+19
-51.7901  1.69397e+19
-51.6728  1.43088e+19
-51.5555  1.14319e+19
-51.4381  8.71532e+18
-51.3208  6.54403e+18
-51.2035  5.25465e+18
-51.0862  5.01746e+18
-50.9689  5.88187e+18
-50.8516  7.72851e+18
-50.7343  1.0293e+19
-50.617  1.32668e+19
-50.4997  1.62935e+19
-50.3824  1.90318e+19
-50.2651  2.12238e+19
-50.1478  2.2635e+19
-50.0305  2.3187e+19
-49.9132  2.2845e+19
-49.7959  2.16911e+19
-49.6786  1.99036e+19
-49.5613  1.76767e+19
-49.444  1.52466e+19
-49.3267  1.2884e+19
-49.2094  1.08137e+19
-49.092  9.19527e+18
-48.9747  8.12379e+18
-48.8574  7.61292e+18
-48.7401  7.59916e+18
-48.6228  7.98547e+18
-48.5055  8.66348e+18
-48.3882  9.51666e+18
-48.2709  1.05058e+19
-48.1536  1.16078e+19
-48.0363  1.28568e+19
-47.919  1.42947e+19
-47.8017  1.6003e+19
-47.6844  1.80142e+19
-47.5671  2.03621e+19
-47.4498  2.30266e+19
-47.3325  2.59472e+19
-47.2152  2.89919e+19
-47.0979  3.19635e+19
-46.9806  3.46107e+19
-46.8633  3.66133e+19
-46.7459  3.75633e+19
-46.6286  3.71816e+19
-46.5113  3.52004e+19
-46.394  3.16113e+19
-46.2767  2.65969e+19
-46.1594  2.06418e+19
-46.0421  1.44963e+19
-45.9248  9.02562e+18
-45.8075  5.10954e+18
-45.6902  3.46242e+18
-45.5729  4.46198e+18
-45.4556  8.08001e+18
-45.3383  1.38211e+19
-45.221  2.08529e+19
-45.1037  2.8109e+19
-44.9864  3.45473e+19
-44.8691  3.93146e+19
-44.7518  4.18818e+19
-44.6345  4.21665e+19
-44.5172  4.05393e+19
-44.3998  3.75726e+19
-44.2825  3.40276e+19
-44.1652  3.05668e+19
-44.0479  2.77135e+19
-43.9306  2.57095e+19
-43.8133  2.4528e+19
-43.696  2.3972e+19
-43.5787  2.36919e+19
-43.4614  2.33385e+19
-43.3441  2.26544e+19
-43.2268  2.15056e+19
-43.1095  1.98507e+19
-42.9922  1.77824e+19
-42.8749  1.54388e+19
-42.7576  1.29868e+19
-42.6403  1.05667e+19
-42.523  8.34306e+18
-42.4057  6.43115e+18
-42.2884  4.96387e+18
-42.171  4.05063e+18
-42.0537  3.7751e+18
-41.9364  4.17885e+18
-41.8191  5.26038e+18
-41.7018  6.93126e+18
-41.5845  9.08546e+18
-41.4672  1.15608e+19
-41.3499  1.42122e+19
-41.2326  1.69108e+19
-41.1153  1.95926e+19
-40.998  2.22282e+19
-40.8807  2.47948e+19
-40.7634  2.72302e+19
-40.6461  2.95004e+19
-40.5288  3.14297e+19
-40.4115  3.28658e+19
-40.2942  3.36371e+19
-40.1769  3.35664e+19
-40.0596  3.25837e+19
-39.9423  3.0749e+19
-39.825  2.82177e+19
-39.7076  2.52319e+19
-39.5903  2.21104e+19
-39.473  1.9113e+19
-39.3557  1.65007e+19
-39.2384  1.44231e+19
-39.1211  1.2947e+19
-39.0038  1.20993e+19
-38.8865  1.18624e+19
-38.7692  1.21993e+19
-38.6519  1.30824e+19
-38.5346  1.44383e+19
-38.4173  1.61485e+19
-38.3  1.79944e+19
-38.1827  1.96841e+19
-38.0654  2.08458e+19
-37.9481  2.11418e+19
-37.8308  2.0321e+19
-37.7135  1.83599e+19
-37.5962  1.54959e+19
-37.4789  1.22812e+19
-37.3615  9.55551e+18
-37.2442  8.2562e+18
-37.1269  9.30703e+18
-37.0096  1.33677e+19
-36.8923  2.07268e+19
-36.775  3.11473e+19
-36.6577  4.38858e+19
-36.5404  5.7811e+19
-36.4231  7.15075e+19
-36.3058  8.35703e+19
-36.1885  9.28004e+19
-36.0712  9.84017e+19
-35.9539  1.00009e+20
-35.8366  9.78171e+19
-35.7193  9.23955e+19
-35.602  8.45211e+19
-35.4847  7.52236e+19
-35.3674  6.5376e+19
-35.2501  5.57173e+19
-35.1328  4.67811e+19
-35.0154  3.88825e+19
-34.8981  3.21289e+19
-34.7808  2.65373e+19
-34.6635  2.20196e+19
-34.5462  1.85041e+19
-34.4289  1.59672e+19
-34.3116  1.43659e+19
-34.1943  1.37135e+19
-34.077  1.40061e+19
-33.9597  1.5241e+19
-33.8424  1.73577e+19
-33.7251  2.02883e+19
-33.6078  2.38536e+19
-33.4905  2.78635e+19
-33.3732  3.20697e+19
-33.2559  3.61921e+19
-33.1386  3.99405e+19
-33.0213  4.30492e+19
-32.904  4.52985e+19
-32.7867  4.65854e+19
-32.6693  4.68625e+19
-32.552  4.62392e+19
-32.4347  4.48168e+19
-32.3174  4.28536e+19
-32.2001  4.05374e+19
-32.0828  3.80432e+19
-31.9655  3.54723e+19
-31.8482  3.28552e+19
-31.7309  3.01502e+19
-31.6136  2.72632e+19
-31.4963  2.41178e+19
-31.379  2.06937e+19
-31.2617  1.70756e+19
-31.1444  1.34276e+19
-31.0271  9.99755e+18
-30.9098  7.13785e+18
-30.7925  5.17159e+18
-30.6752  4.42393e+18
-30.5579  5.12028e+18
-30.4406  7.37002e+18
-30.3232  1.11588e+19
-30.2059  1.63238e+19
-30.0886  2.25822e+19
-29.9713  2.95695e+19
-29.854  3.68849e+19
-29.7367  4.40686e+19
-29.6194  5.07871e+19
-29.5021  5.67703e+19
-29.3848  6.18961e+19
-29.2675  6.62142e+19
-29.1502  6.98892e+19
-29.0329  7.32631e+19
-28.9156  7.67339e+19
-28.7983  8.06594e+19
-28.681  8.53992e+19
-28.5637  9.10951e+19
-28.4464  9.77936e+19
-28.3291  1.0526e+20
-28.2118  1.13075e+20
-28.0944  1.20779e+20
-27.9771  1.27755e+20
-27.8598  1.33411e+20
-27.7425  1.37284e+20
-27.6252  1.38856e+20
-27.5079  1.38023e+20
-27.3906  1.34726e+20
-27.2733  1.29202e+20
-27.156  1.21874e+20
-27.0387  1.13321e+20
-26.9214  1.04362e+20
-26.8041  9.58671e+19
-26.6868  8.8714e+19
-26.5695  8.36722e+19
-26.4522  8.13685e+19
-26.3349  8.22515e+19
-26.2176  8.62985e+19
-26.1003  9.33519e+19
-25.983  1.02816e+20
-25.8657  1.13921e+20
-25.7483  1.25847e+20
-25.631  1.37612e+20
-25.5137  1.4853e+20
-25.3964  1.57924e+20
-25.2791  1.65423e+20
-25.1618  1.7087e+20
-25.0445  1.74389e+20
-24.9272  1.76112e+20
-24.8099  1.76462e+20
-24.6926  1.75776e+20
-24.5753  1.74431e+20
-24.458  1.72701e+20
-24.3407  1.70828e+20
-24.2234  1.68841e+20
-24.1061  1.66756e+20
-23.9888  1.64389e+20
-23.8715  1.61537e+20
-23.7542  1.57887e+20
-23.6369  1.53284e+20
-23.5196  1.47621e+20
-23.4023  1.40827e+20
-23.2849  1.33104e+20
-23.1676  1.24805e+20
-23.0503  1.16334e+20
-22.933  1.08319e+20
-22.8157  1.01249e+20
-22.6984  9.56787e+19
-22.5811  9.21009e+19
-22.4638  9.09037e+19
-22.3465  9.24743e+19
-22.2292  9.70785e+19
-22.1119  1.04967e+20
-21.9946  1.1627e+20
-21.8773  1.31091e+20
-21.76  1.49357e+20
-21.6427  1.70739e+20
-21.5254  1.94724e+20
-21.4081  2.20529e+20
-21.2908  2.47226e+20
-21.1735  2.73756e+20
-21.0561  2.98994e+20
-20.9388  3.21875e+20
-20.8215  3.4151e+20
-20.7042  3.57348e+20
-20.5869  3.69019e+20
-20.4696  3.7639e+20
-20.3523  3.79604e+20
-20.235  3.78941e+20
-20.1177  3.74923e+20
-20.0004  3.68059e+20
-19.8831  3.58731e+20
-19.7658  3.47756e+20
-19.6485  3.35658e+20
-19.5312  3.23126e+20
-19.4139  3.1076e+20
-19.2966  2.99239e+20
-19.1793  2.8922e+20
-19.062  2.81374e+20
-18.9447  2.76397e+20
-18.8274  2.75076e+20
-18.71  2.78107e+20
-18.5927  2.86356e+20
-18.4754  3.00605e+20
-18.3581  3.21381e+20
-18.2408  3.49242e+20
-18.1235  3.84142e+20
-18.0062  4.2576e+20
-17.8889  4.73143e+20
-17.7716  5.24785e+20
-17.6543  5.78961e+20
-17.537  6.33316e+20
-17.4197  6.8566e+20
-17.3024  7.33783e+20
-17.1851  7.75834e+20
-17.0678  8.10453e+20
-16.9505  8.36864e+20
-16.8332  8.54908e+20
-16.7159  8.65099e+20
-16.5986  8.68401e+20
-16.4813  8.66203e+20
-16.364  8.60141e+20
-16.2466  8.51912e+20
-16.1293  8.42774e+20
-16.012  8.34441e+20
-15.8947  8.27729e+20
-15.7774  8.23397e+20
-15.6601  8.2176e+20
-15.5428  8.22841e+20
-15.4255  8.26223e+20
-15.3082  8.3154e+20
-15.1909  8.38067e+20
-15.0736  8.45259e+20
-14.9563  8.52434e+20
-14.839  8.59345e+20
-14.7217  8.65459e+20
-14.6044  8.70936e+20
-14.4871  8.75904e+20
-14.3698  8.80751e+20
-14.2525  8.85886e+20
-14.1352  8.91989e+20
-14.0178  8.99808e+20
-13.9005  9.10118e+20
-13.7832  9.23762e+20
-13.6659  9.41518e+20
-13.5486  9.64358e+20
-13.4313  9.93009e+20
-13.314  1.02812e+21
-13.1967  1.0701e+21
-13.0794  1.11943e+21
-12.9621  1.17591e+21
-12.8448  1.23937e+21
-12.7275  1.30916e+21
-12.6102  1.38464e+21
-12.4929  1.46481e+21
-12.3756  1.54865e+21
-12.2583  1.63537e+21
-12.141  1.72418e+21
-12.0237  1.81455e+21
-11.9064  1.9061e+21
-11.7891  1.99887e+21
-11.6718  2.09306e+21
-11.5544  2.18884e+21
-11.4371  2.28636e+21
-11.3198  2.38562e+21
-11.2025  2.48628e+21
-11.0852  2.58779e+21
-10.9679  2.6891e+21
-10.8506  2.78878e+21
-10.7333  2.88498e+21
-10.616  2.97596e+21
-10.4987  3.06014e+21
-10.3814  3.13573e+21
-10.2641  3.20161e+21
-10.1468  3.25775e+21
-10.0295  3.30433e+21
-9.91217  3.34242e+21
-9.79487  3.37448e+21
-9.67756  3.40315e+21
-9.56026  3.43182e+21
-9.44295  3.46426e+21
-9.32565  3.50467e+21
-9.20834  3.55661e+21
-9.09104  3.62366e+21
-8.97373  3.70867e+21
-8.85643  3.81401e+21
-8.73913  3.94064e+21
-8.62182  4.08917e+21
-8.50452  4.2589e+21
-8.38721  4.44866e+21
-8.26991  4.65577e+21
-8.1526  4.87771e+21
-8.03529  5.11072e+21
-7.91799  5.35134e+21
-7.80069  5.596e+21
-7.68338  5.84096e+21
-7.56608  6.0835e+21
-7.44877  6.3212e+21
-7.33146  6.55228e+21
-7.21416  6.77567e+21
-7.09685  6.99118e+21
-6.97955  7.19908e+21
-6.86224  7.40016e+21
-6.74494  7.59594e+21
-6.62763  7.78702e+21
-6.51033  7.9751e+21
-6.39302  8.1615e+21
-6.27572  8.34724e+21
-6.15842  8.53324e+21
-6.04111  8.72021e+21
-5.92381  8.90873e+21
-5.8065  9.0995e+21
-5.68919  9.29244e+21
-5.57189  9.48799e+21
-5.45458  9.68661e+21
-5.33728  9.88846e+21
-5.21997  1.00934e+22
-5.10267  1.03018e+22
-4.98536  1.05132e+22
-4.86806  1.07269e+22
-4.75075  1.09421e+22
-4.63345  1.11576e+22
-4.51614  1.13717e+22
-4.39884  1.1582e+22
-4.28154  1.17867e+22
-4.16423  1.19838e+22
-4.04692  1.21705e+22
-3.92962  1.2346e+22
-3.81231  1.25091e+22
-3.69501  1.26593e+22
-3.5777  1.27972e+22
-3.4604  1.29239e+22
-3.34309  1.3041e+22
-3.22579  1.31507e+22
-3.10849  1.32564e+22
-2.99118  1.33605e+22
-2.87387  1.34665e+22
-2.75657  1.35774e+22
-2.63926  1.36959e+22
-2.52196  1.38244e+22
-2.40465  1.39649e+22
-2.28735  1.41183e+22
-2.17005  1.42855e+22
-2.05274  1.44669e+22
-1.93544  1.46612e+22
-1.81813  1.48679e+22
-1.70083  1.5085e+22
-1.58352  1.53105e+22
-1.46622  1.55419e+22
-1.34891  1.57761e+22
-1.2316  1.60099e+22
-1.1143  1.62395e+22
-0.996995  1.64613e+22
-0.87969  1.66713e+22
-0.762385  1.6865e+22
-0.64508  1.70393e+22
-0.527775  1.71904e+22
-0.41047  1.73149e+22
-0.293165  1.74104e+22
-0.17586  1.74749e+22
-0.058555  1.7507e+22
0.05875  1.75059e+22
0.176055  1.74717e+22
0.29336  1.74052e+22
0.410665  1.73078e+22
0.52797  1.71814e+22
0.645275  1.70287e+22
0.76258  1.68531e+22
0.879885  1.6658e+22
0.99719  1.64471e+22
1.1145  1.62245e+22
1.2318  1.59942e+22
1.3491  1.57599e+22
1.46641  1.55251e+22
1.58371  1.52932e+22
1.70102  1.50673e+22
1.81832  1.48497e+22
1.93563  1.46424e+22
2.05294  1.44474e+22
2.17024  1.42657e+22
2.28754  1.40978e+22
2.40485  1.39435e+22
2.52216  1.38025e+22
2.63946  1.36733e+22
2.75677  1.35538e+22
2.87407  1.34422e+22
2.99137  1.33353e+22
3.10868  1.32303e+22
3.22599  1.31238e+22
3.34329  1.30132e+22
3.4606  1.28954e+22
3.5779  1.27679e+22
3.69521  1.26292e+22
3.81251  1.24783e+22
3.92982  1.23142e+22
4.04712  1.21379e+22
4.16443  1.19503e+22
4.28173  1.17525e+22
4.39903  1.1547e+22
4.51634  1.13359e+22
4.63364  1.11214e+22
4.75095  1.09052e+22
4.86825  1.06895e+22
4.98556  1.04754e+22
5.10286  1.0264e+22
5.22017  1.00554e+22
5.33748  9.85063e+21
5.45478  9.64905e+21
5.57209  9.45092e+21
5.68939  9.25566e+21
5.8067  9.06315e+21
5.924  8.87302e+21
6.0413  8.6851e+21
6.15861  8.49864e+21
6.27591  8.31296e+21
6.39322  8.12778e+21
6.51052  7.94166e+21
6.62783  7.75356e+21
6.74514  7.56238e+21
6.86244  7.36697e+21
6.97975  7.16564e+21
7.09705  6.95767e+21
7.21436  6.74221e+21
7.33166  6.51866e+21
7.44897  6.28782e+21
7.56627  6.05052e+21
7.68358  5.80832e+21
7.80088  5.56381e+21
7.91819  5.31983e+21
8.03549  5.08012e+21
8.1528  4.84816e+21
8.2701  4.62729e+21
8.38741  4.42123e+21
8.50471  4.23269e+21
8.62202  4.06411e+21
8.73932  3.91652e+21
8.85662  3.79081e+21
8.97393  3.68636e+21
9.09123  3.60202e+21
9.20854  3.53553e+21
9.32584  3.48403e+21
9.44315  3.44393e+21
9.56045  3.41153e+21
9.67776  3.38304e+21
9.79506  3.35435e+21
9.91237  3.32235e+21
10.0297  3.28425e+21
10.147  3.23786e+21
10.2643  3.18196e+21
10.3816  3.11613e+21
10.4989  3.04085e+21
10.6162  2.95711e+21
10.7335  2.86645e+21
10.8508  2.7707e+21
10.9681  2.67152e+21
11.0854  2.57084e+21
11.2027  2.46985e+21
11.32  2.36961e+21
11.4373  2.27081e+21
11.5546  2.17371e+21
11.6719  2.0783e+21
11.7893  1.98456e+21
11.9066  1.89218e+21
12.0239  1.80084e+21
12.1412  1.71101e+21
12.2585  1.62263e+21
12.3758  1.53636e+21
12.4931  1.45297e+21
12.6104  1.3733e+21
12.7277  1.29837e+21
12.845  1.22908e+21
12.9623  1.16607e+21
13.0796  1.11015e+21
13.1969  1.0613e+21
13.3142  1.01977e+21
13.4315  9.85097e+20
13.5488  9.56833e+20
13.6661  9.34408e+20
13.7834  9.16963e+20
13.9007  9.03687e+20
14.018  8.93728e+20
14.1354  8.86267e+20
14.2527  8.80526e+20
14.37  8.75772e+20
14.4873  8.71287e+20
14.6046  8.66653e+20
14.7219  8.61507e+20
14.8392  8.55728e+20
14.9565  8.49212e+20
15.0738  8.42327e+20
15.1911  8.35473e+20
15.3084  8.29201e+20
15.4257  8.24105e+20
15.543  8.20904e+20
15.6603  8.20065e+20
15.7776  8.21926e+20
15.8949  8.26418e+20
16.0122  8.33317e+20
16.1295  8.41782e+20
16.2468  8.50843e+20
16.3641  8.59184e+20
16.4815  8.65226e+20
16.5988  8.67346e+20
16.7161  8.63845e+20
16.8334  8.53564e+20
16.9507  8.35297e+20
17.068  8.08733e+20
17.1853  7.73952e+20
17.3026  7.31777e+20
17.4199  6.83501e+20
17.5372  6.31029e+20
17.6545  5.76611e+20
17.7718  5.22568e+20
17.8891  4.70925e+20
18.0064  4.23727e+20
18.1237  3.82311e+20
18.241  3.47545e+20
18.3583  3.19901e+20
18.4756  2.99313e+20
18.5929  2.85309e+20
18.7102  2.77184e+20
18.8275  2.74315e+20
18.9449  2.7581e+20
19.0622  2.80888e+20
19.1795  2.88863e+20
19.2968  2.98921e+20
19.4141  3.1052e+20
19.5314  3.22906e+20
19.6487  3.35418e+20
19.766  3.47539e+20
19.8833  3.58438e+20
20.0006  3.67699e+20
20.1179  3.74562e+20
20.2352  3.78593e+20
20.3525  3.79174e+20
20.4698  3.75879e+20
20.5871  3.68419e+20
20.7044  3.56735e+20
20.8217  3.40881e+20
20.939  3.21199e+20
21.0563  2.98288e+20
21.1736  2.73013e+20
21.291  2.46512e+20
21.4083  2.19828e+20
21.5256  1.93999e+20
21.6429  1.70085e+20
21.7602  1.48773e+20
21.8775  1.306e+20
21.9948  1.15857e+20
22.1121  1.04631e+20
22.2294  9.68366e+19
22.3467  9.23643e+19
22.464  9.08918e+19
22.5813  9.21818e+19
22.6986  9.58636e+19
22.8159  1.01536e+20
22.9332  1.0869e+20
23.0505  1.16799e+20
23.1678  1.25299e+20
23.2851  1.33656e+20
23.4024  1.41363e+20
23.5198  1.48186e+20
23.6371  1.53867e+20
23.7544  1.58465e+20
23.8717  1.62102e+20
23.989  1.64982e+20
24.1063  1.67391e+20
24.2236  1.69503e+20
24.3409  1.71492e+20
24.4582  1.73459e+20
24.5755  1.75178e+20
24.6928  1.76565e+20
24.8101  1.77263e+20
24.9274  1.76926e+20
25.0447  1.7514e+20
25.162  1.71544e+20
25.2793  1.65974e+20
25.3966  1.58328e+20
25.5139  1.48814e+20
25.6312  1.3778e+20
25.7485  1.25853e+20
25.8658  1.13875e+20
25.9832  1.02658e+20
26.1005  9.32107e+19
26.2178  8.61949e+19
26.3351  8.21477e+19
26.4524  8.13423e+19
26.5697  8.36849e+19
26.687  8.87623e+19
26.8043  9.5957e+19
26.9216  1.04446e+20
27.0389  1.13335e+20
27.1562  1.21792e+20
27.2735  1.29017e+20
27.3908  1.34411e+20
27.5081  1.37589e+20
27.6254  1.38306e+20
27.7427  1.3664e+20
27.86  1.32754e+20
27.9773  1.27073e+20
28.0946  1.20152e+20
28.212  1.12502e+20
28.3293  1.04785e+20
28.4466  9.74443e+19
28.5639  9.08906e+19
28.6812  8.53258e+19
28.7985  8.07016e+19
28.9158  7.68607e+19
29.0331  7.34541e+19
29.1504  7.01148e+19
29.2677  6.64393e+19
29.385  6.21179e+19
29.5023  5.69541e+19
29.6196  5.09156e+19
29.7369  4.4139e+19
29.8542  3.69092e+19
29.9715  2.95833e+19
30.0888  2.25613e+19
30.2061  1.62887e+19
30.3234  1.11238e+19
30.4407  7.3476e+18
30.558  5.11172e+18
30.6754  4.43593e+18
30.7927  5.19582e+18
30.91  7.16608e+18
31.0273  1.00384e+19
31.1446  1.34621e+19
31.2619  1.71124e+19
31.3792  2.07337e+19
31.4965  2.41562e+19
31.6138  2.73206e+19
31.7311  3.02267e+19
31.8484  3.29617e+19
31.9657  3.56193e+19
32.083  3.82248e+19
32.2003  4.07527e+19
32.3176  4.31013e+19
32.4349  4.50961e+19
32.5522  4.65094e+19
32.6695  4.7127e+19
32.7868  4.6827e+19
32.9042  4.5527e+19
33.0215  4.32338e+19
33.1388  4.01071e+19
33.2561  3.63254e+19
33.3734  3.21923e+19
33.4907  2.79606e+19
33.608  2.39263e+19
33.7253  2.03494e+19
33.8426  1.74133e+19
33.9599  1.52978e+19
34.0772  1.40652e+19
34.1945  1.37853e+19
34.3118  1.4459e+19
34.4291  1.60909e+19
34.5464  1.86698e+19
34.6637  2.2206e+19
34.781  2.6773e+19
34.8983  3.24197e+19
35.0156  3.92226e+19
35.1329  4.71725e+19
35.2503  5.61375e+19
35.3676  6.5834e+19
35.4849  7.56784e+19
35.6022  8.49513e+19
35.7195  9.27302e+19
35.8368  9.81093e+19
35.9541  1.00166e+20
36.0714  9.84372e+19
36.1887  9.27399e+19
36.306  8.33928e+19
36.4233  7.12449e+19
36.5406  5.75089e+19
36.6579  4.3597e+19
36.7752  3.08781e+19
36.8925  2.04977e+19
37.0098  1.32006e+19
37.1271  9.18868e+18
37.2444  8.18855e+18
37.3617  9.51451e+18
37.479  1.22482e+19
37.5964  1.54416e+19
37.7137  1.82904e+19
37.831  2.02172e+19
37.9483  2.10235e+19
38.0656  2.06959e+19
38.1829  1.95295e+19
38.3002  1.78511e+19
38.4175  1.60137e+19
38.5348  1.43327e+19
38.6521  1.29975e+19
38.7694  1.21446e+19
38.8867  1.18282e+19
39.004  1.20887e+19
39.1213  1.29584e+19
39.2386  1.44489e+19
39.3559  1.65538e+19
39.4732  1.91879e+19
39.5905  2.22075e+19
39.7078  2.53637e+19
39.8251  2.83742e+19
39.9425  3.09334e+19
40.0598  3.27723e+19
40.1771  3.37608e+19
40.2944  3.38343e+19
40.4117  3.30657e+19
40.529  3.16016e+19
40.6463  2.96431e+19
40.7636  2.73643e+19
40.8809  2.48724e+19
40.9982  2.22804e+19
41.1155  1.96119e+19
41.2328  1.68975e+19
41.3501  1.41608e+19
41.4674  1.14881e+19
41.5847  9.00535e+18
41.702  6.85175e+18
41.8193  5.18929e+18
41.9366  4.13389e+18
42.0539  3.75515e+18
42.1712  4.05652e+18
42.2885  4.99189e+18
42.4059  6.47319e+18
42.5232  8.39446e+18
42.6405  1.06148e+19
42.7578  1.30365e+19
42.8751  1.54897e+19
42.9924  1.78285e+19
43.1097  1.98829e+19
43.227  2.15423e+19
43.3443  2.27021e+19
43.4616  2.33841e+19
43.5789  2.37411e+19
43.6962  2.40434e+19
43.8135  2.46259e+19
43.9308  2.58204e+19
44.0481  2.78482e+19
44.1654  3.06922e+19
44.2827  3.41371e+19
44.4  3.76646e+19
44.5173  4.05881e+19
44.6347  4.21533e+19
44.752  4.17561e+19
44.8693  3.90991e+19
44.9866  3.42945e+19
45.1039  2.78027e+19
45.2212  2.05471e+19
45.3385  1.35572e+19
45.4558  7.87274e+18
45.5731  4.35208e+18
45.6904  3.45482e+18
45.8077  5.20598e+18
45.925  9.19931e+18
46.0423  1.47196e+19
46.1596  2.08735e+19
46.2769  2.67972e+19
46.3942  3.17723e+19
46.5115  3.53016e+19
46.6288  3.72159e+19
46.7461  3.75374e+19
46.8634  3.65222e+19
46.9808  3.45112e+19
47.0981  3.18414e+19
47.2154  2.88671e+19
47.3327  2.58159e+19
47.45  2.29311e+19
47.5673  2.02957e+19
47.6846  1.79575e+19
47.8019  1.59596e+19
47.9192  1.42724e+19
48.0365  1.28373e+19
48.1538  1.15939e+19
48.2711  1.0476e+19
48.3884  9.4783e+18
48.5057  8.60288e+18
48.623  7.92799e+18
48.7403  7.53338e+18
48.8576  7.56101e+18
48.9749  8.09643e+18
49.0922  9.19776e+18
49.2095  1.08475e+19
49.3269  1.29581e+19
49.4442  1.53345e+19
49.5615  1.77699e+19
49.6788  1.99942e+19
49.7961  2.17604e+19
49.9134  2.28651e+19
50.0307  2.31543e+19
50.148  2.25477e+19
50.2653  2.10797e+19
50.3826  1.88728e+19
50.4999  1.61082e+19
50.6172  1.30873e+19
50.7345  1.01396e+19
