#S 1 spectral density
#N 2
#UFWHM 4.10568
#L  abscissas [um]  spectral density
-58.5938  8.44055e+19
-58.4764  8.95906e+19
-58.3591  9.53849e+19
-58.2418  1.01005e+20
-58.1245  1.05423e+20
-58.0072  1.07782e+20
-57.8899  1.07444e+20
-57.7726  1.04209e+20
-57.6553  9.82224e+19
-57.538  8.99731e+19
-57.4207  8.02767e+19
-57.3034  6.98661e+19
-57.1861  5.95029e+19
-57.0688  4.98012e+19
-56.9515  4.12203e+19
-56.8342  3.40655e+19
-56.7169  2.86217e+19
-56.5996  2.50884e+19
-56.4823  2.36511e+19
-56.365  2.44379e+19
-56.2477  2.74597e+19
-56.1303  3.25746e+19
-56.013  3.94154e+19
-55.8957  4.74573e+19
-55.7784  5.59613e+19
-55.6611  6.41598e+19
-55.5438  7.12911e+19
-55.4265  7.66286e+19
-55.3092  7.96711e+19
-55.1919  8.00626e+19
-55.0746  7.76649e+19
-54.9573  7.26067e+19
-54.84  6.51562e+19
-54.7227  5.59005e+19
-54.6054  4.55552e+19
-54.4881  3.511e+19
-54.3708  2.56273e+19
-54.2535  1.82288e+19
-54.1362  1.38636e+19
-54.0189  1.32027e+19
-53.9016  1.64641e+19
-53.7842  2.33418e+19
-53.6669  3.30237e+19
-53.5496  4.42445e+19
-53.4323  5.5568e+19
-53.315  6.55376e+19
-53.1977  7.29645e+19
-53.0804  7.71364e+19
-52.9631  7.77894e+19
-52.8458  7.5231e+19
-52.7285  7.02309e+19
-52.6112  6.3696e+19
-52.4939  5.66549e+19
-52.3766  4.99664e+19
-52.2593  4.43351e+19
-52.142  4.0064e+19
-52.0247  3.71808e+19
-51.9074  3.54601e+19
-51.7901  3.44654e+19
-51.6728  3.36918e+19
-51.5555  3.26422e+19
-51.4381  3.09025e+19
-51.3208  2.8347e+19
-51.2035  2.51491e+19
-51.0862  2.18655e+19
-50.9689  1.94373e+19
-50.8516  1.91115e+19
-50.7343  2.2264e+19
-50.617  3.0152e+19
-50.4997  4.36731e+19
-50.3824  6.30526e+19
-50.2651  8.77423e+19
-50.1478  1.16309e+20
-50.0305  1.46748e+20
-49.9132  1.76378e+20
-49.7959  2.02675e+20
-49.6786  2.23394e+20
-49.5613  2.369e+20
-49.444  2.42448e+20
-49.3267  2.40328e+20
-49.2094  2.31485e+20
-49.092  2.17426e+20
-48.9747  1.99862e+20
-48.8574  1.80477e+20
-48.7401  1.60439e+20
-48.6228  1.40636e+20
-48.5055  1.21508e+20
-48.3882  1.03104e+20
-48.2709  8.54429e+19
-48.1536  6.86004e+19
-48.0363  5.29285e+19
-47.919  3.90433e+19
-47.8017  2.78591e+19
-47.6844  2.04241e+19
-47.5671  1.78173e+19
-47.4498  2.08996e+19
-47.3325  3.01631e+19
-47.2152  4.56093e+19
-47.0979  6.66229e+19
-46.9806  9.2053e+19
-46.8633  1.20216e+20
-46.7459  1.49099e+20
-46.6286  1.76487e+20
-46.5113  2.00325e+20
-46.394  2.18785e+20
-46.2767  2.30655e+20
-46.1594  2.35198e+20
-46.0421  2.32537e+20
-45.9248  2.23341e+20
-45.8075  2.08849e+20
-45.6902  1.90666e+20
-45.5729  1.70499e+20
-45.4556  1.50099e+20
-45.3383  1.30793e+20
-45.221  1.1367e+20
-45.1037  9.92237e+19
-44.9864  8.7491e+19
-44.8691  7.82282e+19
-44.7518  7.08194e+19
-44.6345  6.45283e+19
-44.5172  5.86866e+19
-44.3998  5.28362e+19
-44.2825  4.67904e+19
-44.1652  4.07992e+19
-44.0479  3.53936e+19
-43.9306  3.1426e+19
-43.8133  2.98146e+19
-43.696  3.13489e+19
-43.5787  3.65292e+19
-43.4614  4.53087e+19
-43.3441  5.71052e+19
-43.2268  7.06698e+19
-43.1095  8.44514e+19
-42.9922  9.66545e+19
-42.8749  1.05608e+20
-42.7576  1.10114e+20
-42.6403  1.09569e+20
-42.523  1.04075e+20
-42.4057  9.45196e+19
-42.2884  8.21396e+19
-42.171  6.84734e+19
-42.0537  5.49753e+19
-41.9364  4.27254e+19
-41.8191  3.24063e+19
-41.7018  2.41087e+19
-41.5845  1.76297e+19
-41.4672  1.25293e+19
-41.3499  8.4292e+18
-41.2326  5.15956e+18
-41.1153  2.85723e+18
-40.998  1.95046e+18
-40.8807  3.01846e+18
-40.7634  6.61019e+18
-40.6461  1.30074e+19
-40.5288  2.20732e+19
-40.4115  3.31665e+19
-40.2942  4.52107e+19
-40.1769  5.67944e+19
-40.0596  6.64463e+19
-39.9423  7.28889e+19
-39.825  7.52637e+19
-39.7076  7.32583e+19
-39.5903  6.71868e+19
-39.473  5.79647e+19
-39.3557  4.69219e+19
-39.2384  3.56006e+19
-39.1211  2.55606e+19
-39.0038  1.8112e+19
-38.8865  1.42344e+19
-38.7692  1.44663e+19
-38.6519  1.89063e+19
-38.5346  2.72785e+19
-38.4173  3.90157e+19
-38.3  5.34109e+19
-38.1827  6.96772e+19
-38.0654  8.70264e+19
-37.9481  1.04761e+20
-37.8308  1.2224e+20
-37.7135  1.38852e+20
-37.5962  1.53931e+20
-37.4789  1.66863e+20
-37.3615  1.7693e+20
-37.2442  1.83407e+20
-37.1269  1.85667e+20
-37.0096  1.83126e+20
-36.8923  1.75619e+20
-36.775  1.63245e+20
-36.6577  1.46625e+20
-36.5404  1.26833e+20
-36.4231  1.05466e+20
-36.3058  8.44525e+19
-36.1885  6.58871e+19
-36.0712  5.17991e+19
-35.9539  4.38854e+19
-35.8366  4.32894e+19
-35.7193  5.04059e+19
-35.602  6.48217e+19
-35.4847  8.53329e+19
-35.3674  1.10047e+20
-35.2501  1.36664e+20
-35.1328  1.62758e+20
-35.0154  1.86085e+20
-34.8981  2.04887e+20
-34.7808  2.18032e+20
-34.6635  2.25237e+20
-34.5462  2.26818e+20
-34.4289  2.23839e+20
-34.3116  2.1762e+20
-34.1943  2.0967e+20
-34.077  2.01199e+20
-33.9597  1.93207e+20
-33.8424  1.85984e+20
-33.7251  1.79554e+20
-33.6078  1.73342e+20
-33.4905  1.666e+20
-33.3732  1.58607e+20
-33.2559  1.48725e+20
-33.1386  1.3666e+20
-33.0213  1.22627e+20
-32.904  1.07098e+20
-32.7867  9.0951e+19
-32.6693  7.51075e+19
-32.552  6.0567e+19
-32.4347  4.81142e+19
-32.3174  3.8374e+19
-32.2001  3.16798e+19
-32.0828  2.8235e+19
-31.9655  2.81294e+19
-31.8482  3.15292e+19
-31.7309  3.86654e+19
-31.6136  4.98621e+19
-31.4963  6.55046e+19
-31.379  8.58759e+19
-31.2617  1.10978e+20
-31.1444  1.40376e+20
-31.0271  1.73048e+20
-30.9098  2.07448e+20
-30.7925  2.41424e+20
-30.6752  2.72503e+20
-30.5579  2.97961e+20
-30.4406  3.15578e+20
-30.3232  3.23483e+20
-30.2059  3.20593e+20
-30.0886  3.06858e+20
-29.9713  2.83231e+20
-29.854  2.51662e+20
-29.7367  2.14654e+20
-29.6194  1.75333e+20
-29.5021  1.36779e+20
-29.3848  1.01813e+20
-29.2675  7.26614e+19
-29.1502  5.07354e+19
-29.0329  3.6562e+19
-28.9156  2.97526e+19
-28.7983  2.91857e+19
-28.681  3.3223e+19
-28.5637  3.99646e+19
-28.4464  4.75414e+19
-28.3291  5.43154e+19
-28.2118  5.90612e+19
-28.0944  6.10623e+19
-27.9771  6.00561e+19
-27.8598  5.62763e+19
-27.7425  5.02475e+19
-27.6252  4.27431e+19
-27.5079  3.46313e+19
-27.3906  2.68305e+19
-27.2733  2.01925e+19
-27.156  1.54146e+19
-27.0387  1.30305e+19
-26.9214  1.33154e+19
-26.8041  1.62818e+19
-26.6868  2.16301e+19
-26.5695  2.88279e+19
-26.4522  3.71729e+19
-26.3349  4.58537e+19
-26.2176  5.40696e+19
-26.1003  6.12481e+19
-25.983  6.70257e+19
-25.8657  7.12787e+19
-25.7483  7.41335e+19
-25.631  7.58315e+19
-25.5137  7.66221e+19
-25.3964  7.66701e+19
-25.2791  7.59641e+19
-25.1618  7.43541e+19
-25.0445  7.16325e+19
-24.9272  6.76614e+19
-24.8099  6.25203e+19
-24.6926  5.66262e+19
-24.5753  5.07594e+19
-24.458  4.59479e+19
-24.3407  4.34197e+19
-24.2234  4.41795e+19
-24.1061  4.8948e+19
-23.9888  5.7822e+19
-23.8715  7.02893e+19
-23.7542  8.51636e+19
-23.6369  1.00938e+20
-23.5196  1.15929e+20
-23.4023  1.285e+20
-23.2849  1.37668e+20
-23.1676  1.42947e+20
-23.0503  1.44629e+20
-22.933  1.43662e+20
-22.8157  1.41387e+20
-22.6984  1.39382e+20
-22.5811  1.39151e+20
-22.4638  1.41771e+20
-22.3465  1.4794e+20
-22.2292  1.57627e+20
-22.1119  1.70303e+20
-21.9946  1.84966e+20
-21.8773  2.00323e+20
-21.76  2.14907e+20
-21.6427  2.27136e+20
-21.5254  2.35756e+20
-21.4081  2.39606e+20
-21.2908  2.38029e+20
-21.1735  2.30684e+20
-21.0561  2.17695e+20
-20.9388  1.99772e+20
-20.8215  1.77975e+20
-20.7042  1.53977e+20
-20.5869  1.2973e+20
-20.4696  1.0757e+20
-20.3523  8.99086e+19
-20.235  7.92063e+19
-20.1177  7.76377e+19
-20.0004  8.69822e+19
-19.8831  1.08416e+20
-19.7658  1.42281e+20
-19.6485  1.88102e+20
-19.5312  2.44361e+20
-19.4139  3.08747e+20
-19.2966  3.78223e+20
-19.1793  4.48895e+20
-19.062  5.16752e+20
-18.9447  5.77769e+20
-18.8274  6.27932e+20
-18.71  6.64235e+20
-18.5927  6.84219e+20
-18.4754  6.86608e+20
-18.3581  6.71706e+20
-18.2408  6.40332e+20
-18.1235  5.95152e+20
-18.0062  5.39152e+20
-17.8889  4.76063e+20
-17.7716  4.09876e+20
-17.6543  3.44016e+20
-17.537  2.81745e+20
-17.4197  2.25393e+20
-17.3024  1.7647e+20
-17.1851  1.35564e+20
-17.0678  1.02689e+20
-16.9505  7.71865e+19
-16.8332  5.80826e+19
-16.7159  4.42226e+19
-16.5986  3.4482e+19
-16.4813  2.78175e+19
-16.364  2.33544e+19
-16.2466  2.04067e+19
-16.1293  1.85075e+19
-16.012  1.73956e+19
-15.8947  1.71234e+19
-15.7774  1.80741e+19
-15.6601  2.10472e+19
-15.5428  2.72162e+19
-15.4255  3.80991e+19
-15.3082  5.53654e+19
-15.1909  8.05492e+19
-15.0736  1.14858e+20
-14.9563  1.58742e+20
-14.839  2.11714e+20
-14.7217  2.72311e+20
-14.6044  3.37878e+20
-14.4871  4.04897e+20
-14.3698  4.69466e+20
-14.2525  5.27567e+20
-14.1352  5.7548e+20
-14.0178  6.10367e+20
-13.9005  6.30467e+20
-13.7832  6.35325e+20
-13.6659  6.25703e+20
-13.5486  6.03343e+20
-13.4313  5.70913e+20
-13.314  5.31454e+20
-13.1967  4.88346e+20
-13.0794  4.44529e+20
-12.9621  4.0295e+20
-12.8448  3.65755e+20
-12.7275  3.34833e+20
-12.6102  3.11273e+20
-12.4929  2.95806e+20
-12.3756  2.88635e+20
-12.2583  2.89457e+20
-12.141  2.97744e+20
-12.0237  3.12654e+20
-11.9064  3.33194e+20
-11.7891  3.58251e+20
-11.6718  3.86722e+20
-11.5544  4.17692e+20
-11.4371  4.50556e+20
-11.3198  4.84959e+20
-11.2025  5.20906e+20
-11.0852  5.58873e+20
-10.9679  5.99728e+20
-10.8506  6.44531e+20
-10.7333  6.94618e+20
-10.616  7.51393e+20
-10.4987  8.1601e+20
-10.3814  8.89411e+20
-10.2641  9.72312e+20
-10.1468  1.06456e+21
-10.0295  1.16552e+21
-9.91217  1.27424e+21
-9.79487  1.38863e+21
-9.67756  1.50645e+21
-9.56026  1.62531e+21
-9.44295  1.74219e+21
-9.32565  1.85433e+21
-9.20834  1.95922e+21
-9.09104  2.05493e+21
-8.97373  2.13983e+21
-8.85643  2.21308e+21
-8.73913  2.27498e+21
-8.62182  2.32634e+21
-8.50452  2.36872e+21
-8.38721  2.40484e+21
-8.26991  2.43765e+21
-8.1526  2.47117e+21
-8.03529  2.50924e+21
-7.91799  2.55629e+21
-7.80069  2.61594e+21
-7.68338  2.69174e+21
-7.56608  2.78611e+21
-7.44877  2.90058e+21
-7.33146  3.03495e+21
-7.21416  3.18789e+21
-7.09685  3.35629e+21
-6.97955  3.53643e+21
-6.86224  3.72278e+21
-6.74494  3.90964e+21
-6.62763  4.09069e+21
-6.51033  4.26068e+21
-6.39302  4.41392e+21
-6.27572  4.54674e+21
-6.15842  4.65629e+21
-6.04111  4.74102e+21
-5.92381  4.80087e+21
-5.8065  4.83698e+21
-5.68919  4.85159e+21
-5.57189  4.84766e+21
-5.45458  4.82899e+21
-5.33728  4.79913e+21
-5.21997  4.76182e+21
-5.10267  4.72086e+21
-4.98536  4.67956e+21
-4.86806  4.64055e+21
-4.75075  4.60674e+21
-4.63345  4.57987e+21
-4.51614  4.56251e+21
-4.39884  4.55563e+21
-4.28154  4.56148e+21
-4.16423  4.58188e+21
-4.04692  4.61836e+21
-3.92962  4.67272e+21
-3.81231  4.74746e+21
-3.69501  4.84408e+21
-3.5777  4.965e+21
-3.4604  5.11159e+21
-3.34309  5.28512e+21
-3.22579  5.4867e+21
-3.10849  5.71692e+21
-2.99118  5.97565e+21
-2.87387  6.26302e+21
-2.75657  6.57849e+21
-2.63926  6.92174e+21
-2.52196  7.29213e+21
-2.40465  7.68961e+21
-2.28735  8.11417e+21
-2.17005  8.56581e+21
-2.05274  9.04471e+21
-1.93544  9.55103e+21
-1.81813  1.00845e+22
-1.70083  1.06444e+22
-1.58352  1.12292e+22
-1.46622  1.18359e+22
-1.34891  1.24599e+22
-1.2316  1.30956e+22
-1.1143  1.37346e+22
-0.996995  1.43668e+22
-0.87969  1.49808e+22
-0.762385  1.55627e+22
-0.64508  1.60984e+22
-0.527775  1.65736e+22
-0.41047  1.69736e+22
-0.293165  1.72858e+22
-0.17586  1.75002e+22
-0.058555  1.76089e+22
0.05875  1.76082e+22
0.176055  1.7498e+22
0.29336  1.72829e+22
0.410665  1.69695e+22
0.52797  1.65687e+22
0.645275  1.60931e+22
0.76258  1.55573e+22
0.879885  1.49752e+22
0.99719  1.43618e+22
1.1145  1.37298e+22
1.2318  1.30916e+22
1.3491  1.24563e+22
1.46641  1.18329e+22
1.58371  1.12266e+22
1.70102  1.06425e+22
1.81832  1.00831e+22
1.93563  9.5501e+21
2.05294  9.04432e+21
2.17024  8.5662e+21
2.28754  8.11511e+21
2.40485  7.6913e+21
2.52216  7.29466e+21
2.63946  6.92518e+21
2.75677  6.58301e+21
2.87407  6.26864e+21
2.99137  5.98268e+21
3.10868  5.72508e+21
3.22599  5.49615e+21
3.34329  5.29591e+21
3.4606  5.12342e+21
3.5779  4.97782e+21
3.69521  4.85782e+21
3.81251  4.76166e+21
3.92982  4.68719e+21
4.04712  4.63285e+21
4.16443  4.59643e+21
4.28173  4.57578e+21
4.39903  4.56935e+21
4.51634  4.5757e+21
4.63364  4.59275e+21
4.75095  4.61909e+21
4.86825  4.65239e+21
4.98556  4.69094e+21
5.10286  4.73214e+21
5.22017  4.77249e+21
5.33748  4.80951e+21
5.45478  4.83911e+21
5.57209  4.85747e+21
5.68939  4.86101e+21
5.8067  4.84587e+21
5.924  4.80921e+21
6.0413  4.74907e+21
6.15861  4.66371e+21
6.27591  4.55366e+21
6.39322  4.42036e+21
6.51052  4.26655e+21
6.62783  4.09634e+21
6.74514  3.91485e+21
6.86244  3.72814e+21
6.97975  3.54189e+21
7.09705  3.3622e+21
7.21436  3.19417e+21
7.33166  3.04184e+21
7.44897  2.90826e+21
7.56627  2.79462e+21
7.68358  2.70096e+21
7.80088  2.62588e+21
7.91819  2.56668e+21
8.03549  2.52009e+21
8.1528  2.48219e+21
8.2701  2.44862e+21
8.38741  2.41552e+21
8.50471  2.37902e+21
8.62202  2.33617e+21
8.73932  2.28415e+21
8.85662  2.22145e+21
8.97393  2.14722e+21
9.09123  2.06144e+21
9.20854  1.9649e+21
9.32584  1.8591e+21
9.44315  1.7461e+21
9.56045  1.62851e+21
9.67776  1.50904e+21
9.79506  1.39046e+21
9.91237  1.27562e+21
10.0297  1.16651e+21
10.147  1.06509e+21
10.2643  9.72512e+20
10.3816  8.89433e+20
10.4989  8.15795e+20
10.6162  7.51159e+20
10.7335  6.94328e+20
10.8508  6.44191e+20
10.9681  5.9938e+20
11.0854  5.58605e+20
11.2027  5.20657e+20
11.32  4.84812e+20
11.4373  4.50474e+20
11.5546  4.1768e+20
11.6719  3.86758e+20
11.7893  3.58332e+20
11.9066  3.33313e+20
12.0239  3.12895e+20
12.1412  2.98082e+20
12.2585  2.89897e+20
12.3758  2.89224e+20
12.4931  2.96582e+20
12.6104  3.12235e+20
12.7277  3.35921e+20
12.845  3.66967e+20
12.9623  4.04242e+20
13.0796  4.45833e+20
13.1969  4.89633e+20
13.3142  5.32659e+20
13.4315  5.71933e+20
13.5488  6.04166e+20
13.6661  6.26233e+20
13.7834  6.35596e+20
13.9007  6.30398e+20
14.018  6.09926e+20
14.1354  5.74802e+20
14.2527  5.26592e+20
14.37  4.68364e+20
14.4873  4.03768e+20
14.6046  3.36729e+20
14.7219  2.71303e+20
14.8392  2.10889e+20
14.9565  1.58066e+20
15.0738  1.14394e+20
15.1911  8.02576e+19
15.3084  5.52389e+19
15.4257  3.81143e+19
15.543  2.73081e+19
15.6603  2.11817e+19
15.7776  1.82243e+19
15.8949  1.72798e+19
16.0122  1.75678e+19
16.1295  1.87144e+19
16.2468  2.06742e+19
16.3641  2.36942e+19
16.4815  2.82584e+19
16.5988  3.50571e+19
16.7161  4.49518e+19
16.8334  5.90012e+19
16.9507  7.83269e+19
17.068  1.04047e+20
17.1853  1.37156e+20
17.3026  1.78253e+20
17.4199  2.27429e+20
17.5372  2.84027e+20
17.6545  3.46398e+20
17.7718  4.12275e+20
17.8891  4.78537e+20
18.0064  5.41498e+20
18.1237  5.97176e+20
18.241  6.42181e+20
18.3583  6.7318e+20
18.4756  6.87807e+20
18.5929  6.84937e+20
18.7102  6.64737e+20
18.8275  6.28084e+20
18.9449  5.77665e+20
19.0622  5.16496e+20
19.1795  4.48475e+20
19.2968  3.77808e+20
19.4141  3.08383e+20
19.5314  2.44051e+20
19.6487  1.87976e+20
19.766  1.42378e+20
19.8833  1.08781e+20
20.0006  8.7639e+19
20.1179  7.85867e+19
20.2352  8.04471e+19
20.3525  9.14223e+19
20.4698  1.09301e+20
20.5871  1.31608e+20
20.7044  1.55912e+20
20.8217  1.79901e+20
20.939  2.0154e+20
21.0563  2.19242e+20
21.1736  2.31864e+20
21.291  2.38816e+20
21.4083  2.3997e+20
21.5256  2.35648e+20
21.6429  2.26631e+20
21.7602  2.14029e+20
21.8775  1.99224e+20
21.9948  1.83727e+20
22.1121  1.69008e+20
22.2294  1.56422e+20
22.3467  1.46967e+20
22.464  1.41114e+20
22.5813  1.38816e+20
22.6986  1.39393e+20
22.8159  1.41654e+20
22.9332  1.44122e+20
23.0505  1.45219e+20
23.1678  1.43529e+20
23.2851  1.38177e+20
23.4024  1.28844e+20
23.5198  1.16068e+20
23.6371  1.00922e+20
23.7544  8.49833e+19
23.8717  6.99899e+19
23.989  5.75225e+19
24.1063  4.87133e+19
24.2236  4.40437e+19
24.3409  4.34089e+19
24.4582  4.60983e+19
24.5755  5.10103e+19
24.6928  5.69738e+19
24.8101  6.29058e+19
24.9274  6.80536e+19
25.0447  7.19734e+19
25.162  7.46097e+19
25.2793  7.61242e+19
25.3966  7.67111e+19
25.5139  7.65555e+19
25.6312  7.56684e+19
25.7485  7.38753e+19
25.8658  7.09628e+19
25.9832  6.66674e+19
26.1005  6.08935e+19
26.2178  5.3715e+19
26.3351  4.554e+19
26.4524  3.69585e+19
26.5697  2.87039e+19
26.687  2.15991e+19
26.8043  1.63482e+19
26.9216  1.34856e+19
27.0389  1.32831e+19
27.1562  1.57219e+19
27.2735  2.05125e+19
27.3908  2.71478e+19
27.5081  3.48851e+19
27.6254  4.29022e+19
27.7427  5.02868e+19
27.86  5.61443e+19
27.9773  5.97456e+19
28.0946  6.05535e+19
28.212  5.84001e+19
28.3293  5.35269e+19
28.4466  4.6741e+19
28.5639  3.92183e+19
28.6812  3.26219e+19
28.7985  2.88143e+19
28.9158  2.96704e+19
29.0331  3.67815e+19
29.1504  5.12678e+19
29.2677  7.34316e+19
29.385  1.02772e+20
29.5023  1.37773e+20
29.6196  1.76279e+20
29.7369  2.1544e+20
29.8542  2.52219e+20
29.9715  2.83553e+20
30.0888  3.06809e+20
30.2061  3.20314e+20
30.3234  3.22995e+20
30.4407  3.14968e+20
30.558  2.97325e+20
30.6754  2.71749e+20
30.7927  2.40837e+20
30.91  2.06978e+20
31.0273  1.72664e+20
31.1446  1.40036e+20
31.2619  1.107e+20
31.3792  8.5619e+19
31.4965  6.52306e+19
31.6138  4.95555e+19
31.7311  3.8323e+19
31.8484  3.11819e+19
31.9657  2.78165e+19
32.083  2.79832e+19
32.2003  3.15713e+19
32.3176  3.84623e+19
32.4349  4.84244e+19
32.5522  6.10995e+19
32.6695  7.5853e+19
32.7868  9.18705e+19
32.9042  1.08144e+20
33.0215  1.23687e+20
33.1388  1.37724e+20
33.2561  1.49657e+20
33.3734  1.59437e+20
33.4907  1.67282e+20
33.608  1.73846e+20
33.7253  1.79969e+20
33.8426  1.86304e+20
33.9599  1.93464e+20
34.0772  2.01466e+20
34.1945  2.09923e+20
34.3118  2.17904e+20
34.4291  2.24084e+20
34.5464  2.27045e+20
34.6637  2.25321e+20
34.781  2.18087e+20
34.8983  2.04784e+20
35.0156  1.8582e+20
35.1329  1.62391e+20
35.2503  1.36239e+20
35.3676  1.09602e+20
35.4849  8.49415e+19
35.6022  6.45312e+19
35.7195  5.02424e+19
35.8368  4.32842e+19
35.9541  4.40221e+19
36.0714  5.20615e+19
36.1887  6.62117e+19
36.306  8.4787e+19
36.4233  1.05762e+20
36.5406  1.2704e+20
36.6579  1.46656e+20
36.7752  1.63166e+20
36.8925  1.75357e+20
37.0098  1.82707e+20
37.1271  1.85064e+20
37.2444  1.827e+20
37.3617  1.7614e+20
37.479  1.66016e+20
37.5964  1.53039e+20
37.7137  1.3791e+20
37.831  1.21296e+20
37.9483  1.03837e+20
38.0656  8.61078e+19
38.1829  6.87999e+19
38.3002  5.26085e+19
38.4175  3.83341e+19
38.5348  2.67424e+19
38.6521  1.85525e+19
38.7694  1.43124e+19
38.8867  1.4278e+19
39.004  1.83292e+19
39.1213  2.59094e+19
39.2386  3.60418e+19
39.3559  4.73614e+19
39.4732  5.83212e+19
39.5905  6.74049e+19
39.7078  7.3296e+19
39.8251  7.51068e+19
39.9425  7.25295e+19
40.0598  6.59117e+19
40.1771  5.61274e+19
40.2944  4.45046e+19
40.4117  3.24707e+19
40.529  2.14711e+19
40.6463  1.25387e+19
40.7636  6.29872e+18
40.8809  2.85949e+18
40.9982  1.91709e+18
41.1155  2.92103e+18
41.2328  5.28554e+18
41.3501  8.59351e+18
41.4674  1.27161e+19
41.5847  1.78433e+19
41.702  2.43727e+19
41.8193  3.27405e+19
41.9366  4.31633e+19
42.0539  5.55111e+19
42.1712  6.91317e+19
42.2885  8.28431e+19
42.4059  9.52512e+19
42.5232  1.04781e+20
42.6405  1.10188e+20
42.7578  1.10577e+20
42.8751  1.05896e+20
42.9924  9.67533e+19
43.1097  8.44075e+19
43.227  7.05109e+19
43.3443  5.68646e+19
43.4616  4.50676e+19
43.5789  3.63292e+19
43.6962  3.12139e+19
43.8135  2.97386e+19
43.9308  3.14376e+19
44.0481  3.54771e+19
44.1654  4.09208e+19
44.2827  4.69669e+19
44.4  5.30357e+19
44.5173  5.89176e+19
44.6347  6.4785e+19
44.752  7.1147e+19
44.8693  7.86543e+19
44.9866  8.80351e+19
45.1039  9.98661e+19
45.2212  1.14456e+20
45.3385  1.31708e+20
45.4558  1.51069e+20
45.5731  1.71495e+20
45.6904  1.91608e+20
45.8077  2.09636e+20
45.925  2.23934e+20
46.0423  2.32874e+20
46.1596  2.3522e+20
46.2769  2.30278e+20
46.3942  2.18136e+20
46.5115  1.99332e+20
46.6288  1.75311e+20
46.7461  1.47806e+20
46.8634  1.18945e+20
46.9808  9.08798e+19
47.0981  6.56299e+19
47.2154  4.4845e+19
47.3327  2.96819e+19
47.45  2.06947e+19
47.5673  1.78682e+19
47.6846  2.06774e+19
47.8019  2.82417e+19
47.9192  3.94983e+19
48.0365  5.33945e+19
48.1538  6.90224e+19
48.2711  8.58188e+19
48.3884  1.03457e+20
48.5057  1.21873e+20
48.623  1.41079e+20
48.7403  1.60918e+20
48.8576  1.81064e+20
48.9749  2.00611e+20
49.0922  2.18241e+20
49.2095  2.32296e+20
49.3269  2.4112e+20
49.4442  2.43107e+20
49.5615  2.37324e+20
49.6788  2.2354e+20
49.7961  2.02565e+20
49.9134  1.75982e+20
50.0307  1.46143e+20
50.148  1.15649e+20
50.2653  8.70534e+19
50.3826  6.24582e+19
50.4999  4.32123e+19
50.6172  2.98718e+19
50.7345  2.21632e+19
