#S 1 spectral density
#N 2
#UFWHM 33.5492
#L  abscissas [um]  spectral density
-58.5938  2.00287e+20
-58.4764  1.99208e+20
-58.3591  1.98724e+20
-58.2418  1.98621e+20
-58.1245  1.98797e+20
-58.0072  1.99095e+20
-57.8899  1.99278e+20
-57.7726  1.99381e+20
-57.6553  1.99427e+20
-57.538  1.99687e+20
-57.4207  2.00569e+20
-57.3034  2.02494e+20
-57.1861  2.05878e+20
-57.0688  2.11001e+20
-56.9515  2.17894e+20
-56.8342  2.26425e+20
-56.7169  2.36286e+20
-56.5996  2.46914e+20
-56.4823  2.57833e+20
-56.365  2.68553e+20
-56.2477  2.78513e+20
-56.1303  2.87431e+20
-56.013  2.95036e+20
-55.8957  3.01042e+20
-55.7784  3.05149e+20
-55.6611  3.07173e+20
-55.5438  3.06937e+20
-55.4265  3.04271e+20
-55.3092  2.99189e+20
-55.1919  2.91837e+20
-55.0746  2.82555e+20
-54.9573  2.71841e+20
-54.84  2.60329e+20
-54.7227  2.48588e+20
-54.6054  2.37385e+20
-54.4881  2.27207e+20
-54.3708  2.18601e+20
-54.2535  2.11811e+20
-54.1362  2.07107e+20
-54.0189  2.0459e+20
-53.9016  2.04419e+20
-53.7842  2.06526e+20
-53.6669  2.10983e+20
-53.5496  2.17562e+20
-53.4323  2.26079e+20
-53.315  2.36202e+20
-53.1977  2.47397e+20
-53.0804  2.59234e+20
-52.9631  2.70997e+20
-52.8458  2.82055e+20
-52.7285  2.91798e+20
-52.6112  2.99637e+20
-52.4939  3.05107e+20
-52.3766  3.07938e+20
-52.2593  3.07917e+20
-52.142  3.05139e+20
-52.0247  2.99827e+20
-51.9074  2.92319e+20
-51.7901  2.83219e+20
-51.6728  2.73195e+20
-51.5555  2.62867e+20
-51.4381  2.52985e+20
-51.3208  2.44239e+20
-51.2035  2.37044e+20
-51.0862  2.31769e+20
-50.9689  2.28573e+20
-50.8516  2.27486e+20
-50.7343  2.28364e+20
-50.617  2.3094e+20
-50.4997  2.3488e+20
-50.3824  2.3979e+20
-50.2651  2.45228e+20
-50.1478  2.50803e+20
-50.0305  2.55992e+20
-49.9132  2.60525e+20
-49.7959  2.63964e+20
-49.6786  2.66173e+20
-49.5613  2.66923e+20
-49.444  2.66239e+20
-49.3267  2.64211e+20
-49.2094  2.6113e+20
-49.092  2.57285e+20
-48.9747  2.53094e+20
-48.8574  2.48879e+20
-48.7401  2.45036e+20
-48.6228  2.41806e+20
-48.5055  2.39337e+20
-48.3882  2.37797e+20
-48.2709  2.3703e+20
-48.1536  2.36859e+20
-48.0363  2.36958e+20
-47.919  2.36929e+20
-47.8017  2.36296e+20
-47.6844  2.34678e+20
-47.5671  2.31679e+20
-47.4498  2.2719e+20
-47.3325  2.21168e+20
-47.2152  2.13825e+20
-47.0979  2.05566e+20
-46.9806  1.96961e+20
-46.8633  1.88558e+20
-46.7459  1.80978e+20
-46.6286  1.74842e+20
-46.5113  1.70505e+20
-46.394  1.68378e+20
-46.2767  1.68644e+20
-46.1594  1.71474e+20
-46.0421  1.76912e+20
-45.9248  1.8485e+20
-45.8075  1.95051e+20
-45.6902  2.0704e+20
-45.5729  2.20123e+20
-45.4556  2.33405e+20
-45.3383  2.4571e+20
-45.221  2.55962e+20
-45.1037  2.6295e+20
-44.9864  2.65883e+20
-44.8691  2.64185e+20
-44.7518  2.57848e+20
-44.6345  2.47229e+20
-44.5172  2.33176e+20
-44.3998  2.16774e+20
-44.2825  1.99168e+20
-44.1652  1.81464e+20
-44.0479  1.64624e+20
-43.9306  1.4931e+20
-43.8133  1.35987e+20
-43.696  1.24947e+20
-43.5787  1.16279e+20
-43.4614  1.10042e+20
-43.3441  1.06266e+20
-43.2268  1.04955e+20
-43.1095  1.06037e+20
-42.9922  1.09384e+20
-42.8749  1.14684e+20
-42.7576  1.21544e+20
-42.6403  1.29375e+20
-42.523  1.37527e+20
-42.4057  1.45358e+20
-42.2884  1.52306e+20
-42.171  1.57882e+20
-42.0537  1.61819e+20
-41.9364  1.64063e+20
-41.8191  1.64591e+20
-41.7018  1.63663e+20
-41.5845  1.61502e+20
-41.4672  1.5844e+20
-41.3499  1.5481e+20
-41.2326  1.50885e+20
-41.1153  1.46934e+20
-40.998  1.43121e+20
-40.8807  1.39577e+20
-40.7634  1.36347e+20
-40.6461  1.3337e+20
-40.5288  1.30617e+20
-40.4115  1.2794e+20
-40.2942  1.25282e+20
-40.1769  1.22604e+20
-40.0596  1.19968e+20
-39.9423  1.17459e+20
-39.825  1.15226e+20
-39.7076  1.13444e+20
-39.5903  1.12159e+20
-39.473  1.11355e+20
-39.3557  1.10919e+20
-39.2384  1.10641e+20
-39.1211  1.10313e+20
-39.0038  1.09768e+20
-38.8865  1.08949e+20
-38.7692  1.07986e+20
-38.6519  1.07182e+20
-38.5346  1.06918e+20
-38.4173  1.07635e+20
-38.3  1.09702e+20
-38.1827  1.13284e+20
-38.0654  1.18347e+20
-37.9481  1.24595e+20
-37.8308  1.31551e+20
-37.7135  1.38659e+20
-37.5962  1.45383e+20
-37.4789  1.51331e+20
-37.3615  1.56323e+20
-37.2442  1.60417e+20
-37.1269  1.63826e+20
-37.0096  1.66889e+20
-36.8923  1.69944e+20
-36.775  1.7323e+20
-36.6577  1.76868e+20
-36.5404  1.80803e+20
-36.4231  1.84839e+20
-36.3058  1.88785e+20
-36.1885  1.92411e+20
-36.0712  1.95582e+20
-35.9539  1.98273e+20
-35.8366  2.00512e+20
-35.7193  2.0252e+20
-35.602  2.04414e+20
-35.4847  2.06352e+20
-35.3674  2.08376e+20
-35.2501  2.10477e+20
-35.1328  2.12554e+20
-35.0154  2.14531e+20
-34.8981  2.1636e+20
-34.7808  2.17926e+20
-34.6635  2.19287e+20
-34.5462  2.20521e+20
-34.4289  2.21752e+20
-34.3116  2.23126e+20
-34.1943  2.24734e+20
-34.077  2.26688e+20
-33.9597  2.2912e+20
-33.8424  2.31998e+20
-33.7251  2.35402e+20
-33.6078  2.39389e+20
-33.4905  2.44027e+20
-33.3732  2.49371e+20
-33.2559  2.55522e+20
-33.1386  2.6252e+20
-33.0213  2.70407e+20
-32.904  2.79089e+20
-32.7867  2.88551e+20
-32.6693  2.98671e+20
-32.552  3.09275e+20
-32.4347  3.20333e+20
-32.3174  3.31558e+20
-32.2001  3.42919e+20
-32.0828  3.54248e+20
-31.9655  3.65456e+20
-31.8482  3.76489e+20
-31.7309  3.87185e+20
-31.6136  3.97656e+20
-31.4963  4.07858e+20
-31.379  4.17846e+20
-31.2617  4.27722e+20
-31.1444  4.37496e+20
-31.0271  4.47452e+20
-30.9098  4.57647e+20
-30.7925  4.68188e+20
-30.6752  4.79058e+20
-30.5579  4.90307e+20
-30.4406  5.01882e+20
-30.3232  5.13804e+20
-30.2059  5.26223e+20
-30.0886  5.38982e+20
-29.9713  5.52303e+20
-29.854  5.66288e+20
-29.7367  5.81098e+20
-29.6194  5.96882e+20
-29.5021  6.13652e+20
-29.3848  6.31504e+20
-29.2675  6.50536e+20
-29.1502  6.70428e+20
-29.0329  6.91074e+20
-28.9156  7.12128e+20
-28.7983  7.33249e+20
-28.681  7.53935e+20
-28.5637  7.73762e+20
-28.4464  7.923e+20
-28.3291  8.09185e+20
-28.2118  8.2401e+20
-28.0944  8.36814e+20
-27.9771  8.4769e+20
-27.8598  8.56849e+20
-27.7425  8.65057e+20
-27.6252  8.72725e+20
-27.5079  8.80851e+20
-27.3906  8.90184e+20
-27.2733  9.01602e+20
-27.156  9.15878e+20
-27.0387  9.33401e+20
-26.9214  9.54772e+20
-26.8041  9.79999e+20
-26.6868  1.00896e+21
-26.5695  1.0412e+21
-26.4522  1.07586e+21
-26.3349  1.11222e+21
-26.2176  1.14906e+21
-26.1003  1.18511e+21
-25.983  1.21896e+21
-25.8657  1.24943e+21
-25.7483  1.27549e+21
-25.631  1.2965e+21
-25.5137  1.31237e+21
-25.3964  1.32288e+21
-25.2791  1.32882e+21
-25.1618  1.33108e+21
-25.0445  1.33089e+21
-24.9272  1.32966e+21
-24.8099  1.32874e+21
-24.6926  1.32955e+21
-24.5753  1.33358e+21
-24.458  1.34149e+21
-24.3407  1.35416e+21
-24.2234  1.37181e+21
-24.1061  1.39452e+21
-23.9888  1.42175e+21
-23.8715  1.45283e+21
-23.7542  1.48687e+21
-23.6369  1.52271e+21
-23.5196  1.55905e+21
-23.4023  1.59503e+21
-23.2849  1.62978e+21
-23.1676  1.6626e+21
-23.0503  1.69349e+21
-22.933  1.72219e+21
-22.8157  1.74926e+21
-22.6984  1.77518e+21
-22.5811  1.8008e+21
-22.4638  1.82705e+21
-22.3465  1.85453e+21
-22.2292  1.88437e+21
-22.1119  1.91702e+21
-21.9946  1.95294e+21
-21.8773  1.99213e+21
-21.76  2.03403e+21
-21.6427  2.07824e+21
-21.5254  2.12358e+21
-21.4081  2.16862e+21
-21.2908  2.21167e+21
-21.1735  2.25113e+21
-21.0561  2.28568e+21
-20.9388  2.31435e+21
-20.8215  2.33692e+21
-20.7042  2.3531e+21
-20.5869  2.36405e+21
-20.4696  2.37102e+21
-20.3523  2.37591e+21
-20.235  2.38083e+21
-20.1177  2.38782e+21
-20.0004  2.39889e+21
-19.8831  2.41621e+21
-19.7658  2.4406e+21
-19.6485  2.47309e+21
-19.5312  2.51358e+21
-19.4139  2.56169e+21
-19.2966  2.61601e+21
-19.1793  2.67475e+21
-19.062  2.73588e+21
-18.9447  2.79668e+21
-18.8274  2.85442e+21
-18.71  2.90697e+21
-18.5927  2.95241e+21
-18.4754  2.9892e+21
-18.3581  3.01712e+21
-18.2408  3.03603e+21
-18.1235  3.04722e+21
-18.0062  3.0523e+21
-17.8889  3.05361e+21
-17.7716  3.05384e+21
-17.6543  3.05524e+21
-17.537  3.0608e+21
-17.4197  3.07244e+21
-17.3024  3.09196e+21
-17.1851  3.12029e+21
-17.0678  3.15755e+21
-16.9505  3.20359e+21
-16.8332  3.25723e+21
-16.7159  3.31673e+21
-16.5986  3.37967e+21
-16.4813  3.44345e+21
-16.364  3.50555e+21
-16.2466  3.56356e+21
-16.1293  3.61557e+21
-16.012  3.65964e+21
-15.8947  3.69537e+21
-15.7774  3.72252e+21
-15.6601  3.74182e+21
-15.5428  3.75461e+21
-15.4255  3.76248e+21
-15.3082  3.76745e+21
-15.1909  3.77211e+21
-15.0736  3.77801e+21
-14.9563  3.78724e+21
-14.839  3.80099e+21
-14.7217  3.82041e+21
-14.6044  3.84567e+21
-14.4871  3.87665e+21
-14.3698  3.91292e+21
-14.2525  3.95321e+21
-14.1352  3.99608e+21
-14.0178  4.04033e+21
-13.9005  4.08454e+21
-13.7832  4.12728e+21
-13.6659  4.16791e+21
-13.5486  4.2056e+21
-13.4313  4.2405e+21
-13.314  4.27292e+21
-13.1967  4.30376e+21
-13.0794  4.33425e+21
-12.9621  4.36537e+21
-12.8448  4.39877e+21
-12.7275  4.4353e+21
-12.6102  4.47588e+21
-12.4929  4.52075e+21
-12.3756  4.56953e+21
-12.2583  4.62174e+21
-12.141  4.67615e+21
-12.0237  4.73119e+21
-11.9064  4.78477e+21
-11.7891  4.83491e+21
-11.6718  4.87985e+21
-11.5544  4.91804e+21
-11.4371  4.94839e+21
-11.3198  4.97013e+21
-11.2025  4.98366e+21
-11.0852  4.98964e+21
-10.9679  4.98946e+21
-10.8506  4.9852e+21
-10.7333  4.979e+21
-10.616  4.97316e+21
-10.4987  4.97052e+21
-10.3814  4.97276e+21
-10.2641  4.98189e+21
-10.1468  4.99895e+21
-10.0295  5.02466e+21
-9.91217  5.05881e+21
-9.79487  5.10071e+21
-9.67756  5.14926e+21
-9.56026  5.20257e+21
-9.44295  5.25844e+21
-9.32565  5.3151e+21
-9.20834  5.37033e+21
-9.09104  5.42217e+21
-8.97373  5.46931e+21
-8.85643  5.51047e+21
-8.73913  5.54538e+21
-8.62182  5.57387e+21
-8.50452  5.59661e+21
-8.38721  5.61456e+21
-8.26991  5.62866e+21
-8.1526  5.64051e+21
-8.03529  5.65117e+21
-7.91799  5.66181e+21
-7.80069  5.67329e+21
-7.68338  5.68605e+21
-7.56608  5.70045e+21
-7.44877  5.7166e+21
-7.33146  5.73417e+21
-7.21416  5.75268e+21
-7.09685  5.77161e+21
-6.97955  5.79066e+21
-6.86224  5.80934e+21
-6.74494  5.82748e+21
-6.62763  5.84484e+21
-6.51033  5.86174e+21
-6.39302  5.87841e+21
-6.27572  5.89523e+21
-6.15842  5.91287e+21
-6.04111  5.93181e+21
-5.92381  5.95249e+21
-5.8065  5.97549e+21
-5.68919  6.00063e+21
-5.57189  6.02799e+21
-5.45458  6.057e+21
-5.33728  6.08713e+21
-5.21997  6.11745e+21
-5.10267  6.14691e+21
-4.98536  6.17458e+21
-4.86806  6.19935e+21
-4.75075  6.2202e+21
-4.63345  6.23673e+21
-4.51614  6.2484e+21
-4.39884  6.25521e+21
-4.28154  6.25755e+21
-4.16423  6.25602e+21
-4.04692  6.25177e+21
-3.92962  6.24604e+21
-3.81231  6.24025e+21
-3.69501  6.23596e+21
-3.5777  6.23444e+21
-3.4604  6.23704e+21
-3.34309  6.24441e+21
-3.22579  6.25707e+21
-3.10849  6.275e+21
-2.99118  6.29767e+21
-2.87387  6.32429e+21
-2.75657  6.35372e+21
-2.63926  6.38458e+21
-2.52196  6.41526e+21
-2.40465  6.44432e+21
-2.28735  6.47044e+21
-2.17005  6.49241e+21
-2.05274  6.50948e+21
-1.93544  6.52119e+21
-1.81813  6.52754e+21
-1.70083  6.52889e+21
-1.58352  6.52587e+21
-1.46622  6.51948e+21
-1.34891  6.51076e+21
-1.2316  6.50071e+21
-1.1143  6.49038e+21
-0.996995  6.48048e+21
-0.87969  6.47162e+21
-0.762385  6.4641e+21
-0.64508  6.45806e+21
-0.527775  6.45344e+21
-0.41047  6.4501e+21
-0.293165  6.44789e+21
-0.17586  6.44656e+21
-0.058555  6.44599e+21
0.05875  6.4461e+21
0.176055  6.44687e+21
0.29336  6.44842e+21
0.410665  6.45087e+21
0.52797  6.45442e+21
0.645275  6.45926e+21
0.76258  6.46558e+21
0.879885  6.47335e+21
0.99719  6.48249e+21
1.1145  6.49268e+21
1.2318  6.50328e+21
1.3491  6.51357e+21
1.46641  6.52256e+21
1.58371  6.52917e+21
1.70102  6.53237e+21
1.81832  6.53123e+21
1.93563  6.52504e+21
2.05294  6.51343e+21
2.17024  6.49647e+21
2.28754  6.47457e+21
2.40485  6.44856e+21
2.52216  6.41954e+21
2.63946  6.3889e+21
2.75677  6.35818e+21
2.87407  6.32887e+21
2.99137  6.30231e+21
3.10868  6.27979e+21
3.22599  6.26206e+21
3.34329  6.24964e+21
3.4606  6.24256e+21
3.5779  6.24024e+21
3.69521  6.24206e+21
3.81251  6.24668e+21
3.92982  6.25274e+21
4.04712  6.2588e+21
4.16443  6.26335e+21
4.28173  6.26511e+21
4.39903  6.26298e+21
4.51634  6.25629e+21
4.63364  6.2448e+21
4.75095  6.22832e+21
4.86825  6.20738e+21
4.98556  6.1826e+21
5.10286  6.15485e+21
5.22017  6.12526e+21
5.33748  6.09482e+21
5.45478  6.06464e+21
5.57209  6.03555e+21
5.68939  6.00816e+21
5.8067  5.98303e+21
5.924  5.96021e+21
6.0413  5.93963e+21
6.15861  5.92093e+21
6.27591  5.90363e+21
6.39322  5.88716e+21
6.51052  5.87097e+21
6.62783  5.85447e+21
6.74514  5.83745e+21
6.86244  5.81971e+21
6.97975  5.8014e+21
7.09705  5.78267e+21
7.21436  5.76391e+21
7.33166  5.74554e+21
7.44897  5.72821e+21
7.56627  5.71214e+21
7.68358  5.6976e+21
7.80088  5.68485e+21
7.91819  5.6733e+21
8.03549  5.66264e+21
8.1528  5.65204e+21
8.2701  5.6402e+21
8.38741  5.6261e+21
8.50471  5.60827e+21
8.62202  5.58561e+21
8.73932  5.55726e+21
8.85662  5.52262e+21
8.97393  5.48168e+21
9.09123  5.43485e+21
9.20854  5.38323e+21
9.32584  5.32843e+21
9.44315  5.272e+21
9.56045  5.2163e+21
9.67776  5.1633e+21
9.79506  5.11502e+21
9.91237  5.07326e+21
10.0297  5.03923e+21
10.147  5.01373e+21
10.2643  4.99673e+21
10.3816  4.98767e+21
10.4989  4.98549e+21
10.6162  4.98828e+21
10.7335  4.99406e+21
10.8508  5.00023e+21
10.9681  5.00457e+21
11.0854  5.00477e+21
11.2027  4.99892e+21
11.32  4.98532e+21
11.4373  4.96348e+21
11.5546  4.93321e+21
11.6719  4.89503e+21
11.7893  4.85006e+21
11.9066  4.79977e+21
12.0239  4.74613e+21
12.1412  4.69122e+21
12.2585  4.63675e+21
12.3758  4.58431e+21
12.4931  4.53547e+21
12.6104  4.49053e+21
12.7277  4.44998e+21
12.845  4.41354e+21
12.9623  4.38014e+21
13.0796  4.34897e+21
13.1969  4.31863e+21
13.3142  4.2878e+21
13.4315  4.25547e+21
13.5488  4.22067e+21
13.6661  4.18313e+21
13.7834  4.14266e+21
13.9007  4.09997e+21
14.018  4.05609e+21
14.1354  4.01183e+21
14.2527  3.96904e+21
14.37  3.92891e+21
14.4873  3.8928e+21
14.6046  3.8618e+21
14.7219  3.83654e+21
14.8392  3.81725e+21
14.9565  3.8034e+21
15.0738  3.7941e+21
15.1911  3.78812e+21
15.3084  3.78349e+21
15.4257  3.7783e+21
15.543  3.7702e+21
15.6603  3.7574e+21
15.7776  3.73798e+21
15.8949  3.7108e+21
16.0122  3.67482e+21
16.1295  3.63054e+21
16.2468  3.57862e+21
16.3641  3.52057e+21
16.4815  3.45851e+21
16.5988  3.39466e+21
16.7161  3.33188e+21
16.8334  3.27268e+21
16.9507  3.21925e+21
17.068  3.17327e+21
17.1853  3.13625e+21
17.3026  3.10812e+21
17.4199  3.08891e+21
17.5372  3.07758e+21
17.6545  3.07217e+21
17.7718  3.07078e+21
17.8891  3.07073e+21
18.0064  3.06936e+21
18.1237  3.06418e+21
18.241  3.05278e+21
18.3583  3.03365e+21
18.4756  3.00554e+21
18.5929  2.96836e+21
18.7102  2.92278e+21
18.8275  2.86983e+21
18.9449  2.81182e+21
19.0622  2.75089e+21
19.1795  2.68968e+21
19.2968  2.63074e+21
19.4141  2.57637e+21
19.5314  2.5284e+21
19.6487  2.48794e+21
19.766  2.45553e+21
19.8833  2.43123e+21
20.0006  2.41416e+21
20.1179  2.40311e+21
20.2352  2.39608e+21
20.3525  2.39128e+21
20.4698  2.38637e+21
20.5871  2.37936e+21
20.7044  2.36811e+21
20.8217  2.35167e+21
20.939  2.32902e+21
21.0563  2.30002e+21
21.1736  2.26526e+21
21.291  2.22542e+21
21.4083  2.1822e+21
21.5256  2.1371e+21
21.6429  2.09167e+21
21.7602  2.04725e+21
21.8775  2.00522e+21
21.9948  1.96599e+21
22.1121  1.93009e+21
22.2294  1.89751e+21
22.3467  1.8676e+21
22.464  1.84e+21
22.5813  1.81374e+21
22.6986  1.78796e+21
22.8159  1.76187e+21
22.9332  1.73456e+21
23.0505  1.70563e+21
23.1678  1.67453e+21
23.2851  1.64139e+21
23.4024  1.60651e+21
23.5198  1.57022e+21
23.6371  1.53367e+21
23.7544  1.49773e+21
23.8717  1.46365e+21
23.989  1.43249e+21
24.1063  1.40528e+21
24.2236  1.38274e+21
24.3409  1.36522e+21
24.4582  1.3527e+21
24.5755  1.34498e+21
24.6928  1.34123e+21
24.8101  1.34057e+21
24.9274  1.34153e+21
25.0447  1.34288e+21
25.162  1.34306e+21
25.2793  1.34078e+21
25.3966  1.33457e+21
25.5139  1.32378e+21
25.6312  1.30774e+21
25.7485  1.28632e+21
25.8658  1.25997e+21
25.9832  1.22908e+21
26.1005  1.19494e+21
26.2178  1.15872e+21
26.3351  1.12171e+21
26.4524  1.08513e+21
26.5697  1.05033e+21
26.687  1.01804e+21
26.8043  9.89123e+20
26.9216  9.64e+20
27.0389  9.42681e+20
27.1562  9.2516e+20
27.2735  9.1098e+20
27.3908  8.99563e+20
27.5081  8.90215e+20
27.6254  8.82019e+20
27.7427  8.74236e+20
27.86  8.6592e+20
27.9773  8.56521e+20
28.0946  8.45518e+20
28.212  8.32414e+20
28.3293  8.1734e+20
28.4466  8.00218e+20
28.5639  7.81452e+20
28.6812  7.61372e+20
28.7985  7.4047e+20
28.9158  7.19236e+20
29.0331  6.9807e+20
29.1504  6.77299e+20
29.2677  6.57337e+20
29.385  6.38303e+20
29.5023  6.20405e+20
29.6196  6.03523e+20
29.7369  5.87717e+20
29.8542  5.72835e+20
29.9715  5.58791e+20
30.0888  5.453e+20
30.2061  5.32397e+20
30.3234  5.19899e+20
30.4407  5.07769e+20
30.558  4.96074e+20
30.6754  4.8463e+20
30.7927  4.73633e+20
30.91  4.62998e+20
31.0273  4.52689e+20
31.1446  4.42591e+20
31.2619  4.32646e+20
31.3792  4.22675e+20
31.4965  4.12602e+20
31.6138  4.02335e+20
31.7311  3.91765e+20
31.8484  3.80933e+20
31.9657  3.69824e+20
32.083  3.58476e+20
32.2003  3.47034e+20
32.3176  3.3554e+20
32.4349  3.24176e+20
32.5522  3.13006e+20
32.6695  3.02259e+20
32.7868  2.9206e+20
32.9042  2.82473e+20
33.0215  2.737e+20
33.1388  2.65737e+20
33.2561  2.58677e+20
33.3734  2.52463e+20
33.4907  2.47057e+20
33.608  2.42401e+20
33.7253  2.38386e+20
33.8426  2.34934e+20
33.9599  2.32029e+20
34.0772  2.29589e+20
34.1945  2.27595e+20
34.3118  2.25925e+20
34.4291  2.24504e+20
34.5464  2.23213e+20
34.6637  2.21926e+20
34.781  2.20473e+20
34.8983  2.18839e+20
35.0156  2.16984e+20
35.1329  2.14935e+20
35.2503  2.12833e+20
35.3676  2.10697e+20
35.4849  2.08669e+20
35.6022  2.06726e+20
35.7195  2.04804e+20
35.8368  2.02758e+20
35.9541  2.00427e+20
36.0714  1.97657e+20
36.1887  1.94381e+20
36.306  1.90627e+20
36.4233  1.86522e+20
36.5406  1.82301e+20
36.6579  1.7818e+20
36.7752  1.74338e+20
36.8925  1.70847e+20
37.0098  1.67591e+20
37.1271  1.64335e+20
37.2444  1.6075e+20
37.3617  1.56509e+20
37.479  1.51396e+20
37.5964  1.45392e+20
37.7137  1.38649e+20
37.831  1.31571e+20
37.9483  1.24677e+20
38.0656  1.1855e+20
38.1829  1.13619e+20
38.3002  1.10167e+20
38.4175  1.08229e+20
38.5348  1.07605e+20
38.6521  1.07938e+20
38.7694  1.08776e+20
38.8867  1.09713e+20
39.004  1.1047e+20
39.1213  1.10922e+20
39.2386  1.11145e+20
39.3559  1.11293e+20
39.4732  1.11592e+20
39.5905  1.12259e+20
39.7078  1.13426e+20
39.8251  1.15108e+20
39.9425  1.17239e+20
40.0598  1.19686e+20
40.1771  1.22249e+20
40.2944  1.24887e+20
40.4117  1.27507e+20
40.529  1.30171e+20
40.6463  1.32928e+20
40.7636  1.3587e+20
40.8809  1.39094e+20
40.9982  1.42617e+20
41.1155  1.46387e+20
41.2328  1.50294e+20
41.3501  1.54156e+20
41.4674  1.57726e+20
41.5847  1.60705e+20
41.702  1.62795e+20
41.8193  1.63642e+20
41.9366  1.63031e+20
42.0539  1.6074e+20
42.1712  1.56719e+20
42.2885  1.51151e+20
42.4059  1.44205e+20
42.5232  1.36397e+20
42.6405  1.28277e+20
42.7578  1.20549e+20
42.8751  1.13804e+20
42.9924  1.08588e+20
43.1097  1.05354e+20
43.227  1.04374e+20
43.3443  1.05785e+20
43.4616  1.09638e+20
43.5789  1.15908e+20
43.6962  1.24599e+20
43.8135  1.35647e+20
43.9308  1.48949e+20
44.0481  1.64216e+20
44.1654  1.81001e+20
44.2827  1.98596e+20
44.4  2.16085e+20
44.5173  2.32388e+20
44.6347  2.46295e+20
44.752  2.56772e+20
44.8693  2.62919e+20
44.9866  2.64493e+20
45.1039  2.61433e+20
45.2212  2.5438e+20
45.3385  2.44115e+20
45.4558  2.31769e+20
45.5731  2.18541e+20
45.6904  2.05534e+20
45.8077  1.93637e+20
45.925  1.8355e+20
46.0423  1.75731e+20
46.1596  1.70425e+20
46.2769  1.67705e+20
46.3942  1.67557e+20
46.5115  1.69779e+20
46.6288  1.74192e+20
46.7461  1.80405e+20
46.8634  1.87969e+20
46.9808  1.96432e+20
47.0981  2.05037e+20
47.2154  2.13255e+20
47.3327  2.2052e+20
47.45  2.26507e+20
47.5673  2.30961e+20
47.6846  2.33877e+20
47.8019  2.35464e+20
47.9192  2.3607e+20
48.0365  2.36104e+20
48.1538  2.36027e+20
48.2711  2.3623e+20
48.3884  2.37032e+20
48.5057  2.3867e+20
48.623  2.41182e+20
48.7403  2.44492e+20
48.8576  2.48432e+20
48.9749  2.52677e+20
49.0922  2.56908e+20
49.2095  2.60828e+20
49.3269  2.63946e+20
49.4442  2.65971e+20
49.5615  2.66605e+20
49.6788  2.65868e+20
49.7961  2.63607e+20
49.9134  2.60138e+20
50.0307  2.55588e+20
50.148  2.50301e+20
50.2653  2.44712e+20
50.3826  2.39273e+20
50.4999  2.34368e+20
50.6172  2.30449e+20
50.7345  2.27916e+20
50.8518  2.27143e+20
