#S 1 spectral density
#N 2
#UFWHM 17.7131
#L  abscissas [um]  spectral density
-58.5938  6.45053e+18
-58.4764  5.75859e+18
-58.3591  5.26159e+18
-58.2418  5.03407e+18
-58.1245  5.05476e+18
-58.0072  5.21429e+18
-57.8899  5.37238e+18
-57.7726  5.40454e+18
-57.6553  5.27146e+18
-57.538  5.0252e+18
-57.4207  4.81535e+18
-57.3034  4.83826e+18
-57.1861  5.27505e+18
-57.0688  6.23874e+18
-56.9515  7.73524e+18
-56.8342  9.66445e+18
-56.7169  1.18413e+19
-56.5996  1.40725e+19
-56.4823  1.62041e+19
-56.365  1.81357e+19
-56.2477  1.99011e+19
-56.1303  2.15532e+19
-56.013  2.31922e+19
-55.8957  2.48705e+19
-55.7784  2.65744e+19
-55.6611  2.82008e+19
-55.5438  2.95395e+19
-55.4265  3.03914e+19
-55.3092  3.05581e+19
-55.1919  2.9962e+19
-55.0746  2.85982e+19
-54.9573  2.66439e+19
-54.84  2.42762e+19
-54.7227  2.18075e+19
-54.6054  1.9416e+19
-54.4881  1.72913e+19
-54.3708  1.55005e+19
-54.2535  1.39987e+19
-54.1362  1.27052e+19
-54.0189  1.15081e+19
-53.9016  1.03038e+19
-53.7842  9.03426e+18
-53.6669  7.73042e+18
-53.5496  6.47152e+18
-53.4323  5.38499e+18
-53.315  4.62855e+18
-53.1977  4.36267e+18
-53.0804  4.71891e+18
-52.9631  5.79695e+18
-52.8458  7.63396e+18
-52.7285  1.02077e+19
-52.6112  1.34097e+19
-52.4939  1.7077e+19
-52.3766  2.09684e+19
-52.2593  2.48256e+19
-52.142  2.83395e+19
-52.0247  3.12568e+19
-51.9074  3.33784e+19
-51.7901  3.45822e+19
-51.6728  3.48601e+19
-51.5555  3.43323e+19
-51.4381  3.31344e+19
-51.3208  3.15618e+19
-51.2035  2.98324e+19
-51.0862  2.82151e+19
-50.9689  2.68826e+19
-50.8516  2.59633e+19
-50.7343  2.55497e+19
-50.617  2.56292e+19
-50.4997  2.61367e+19
-50.3824  2.69891e+19
-50.2651  2.80041e+19
-50.1478  2.90599e+19
-50.0305  2.99279e+19
-49.9132  3.04877e+19
-49.7959  3.05658e+19
-49.6786  3.00895e+19
-49.5613  2.90494e+19
-49.444  2.75268e+19
-49.3267  2.5653e+19
-49.2094  2.36363e+19
-49.092  2.17201e+19
-48.9747  2.01382e+19
-48.8574  1.90914e+19
-48.7401  1.87411e+19
-48.6228  1.9175e+19
-48.5055  2.04001e+19
-48.3882  2.23962e+19
-48.2709  2.50287e+19
-48.1536  2.81466e+19
-48.0363  3.15587e+19
-47.919  3.50773e+19
-47.8017  3.85065e+19
-47.6844  4.16953e+19
-47.5671  4.45439e+19
-47.4498  4.70559e+19
-47.3325  4.92523e+19
-47.2152  5.12598e+19
-47.0979  5.3181e+19
-46.9806  5.50757e+19
-46.8633  5.69168e+19
-46.7459  5.86471e+19
-46.6286  5.99985e+19
-46.5113  6.0718e+19
-46.394  6.04796e+19
-46.2767  5.91058e+19
-46.1594  5.65075e+19
-46.0421  5.27824e+19
-45.9248  4.82289e+19
-45.8075  4.32661e+19
-45.6902  3.83541e+19
-45.5729  3.39649e+19
-45.4556  3.03909e+19
-45.3383  2.7799e+19
-45.221  2.61717e+19
-45.1037  2.53681e+19
-44.9864  2.51914e+19
-44.8691  2.54532e+19
-44.7518  2.60329e+19
-44.6345  2.68962e+19
-44.5172  2.80786e+19
-44.3998  2.9614e+19
-44.2825  3.14909e+19
-44.1652  3.35979e+19
-44.0479  3.57385e+19
-43.9306  3.76226e+19
-43.8133  3.89802e+19
-43.696  3.96448e+19
-43.5787  3.96159e+19
-43.4614  3.90918e+19
-43.3441  3.85315e+19
-43.2268  3.84993e+19
-43.1095  3.9618e+19
-42.9922  4.24033e+19
-42.8749  4.71841e+19
-42.7576  5.3987e+19
-42.6403  6.25719e+19
-42.523  7.24061e+19
-42.4057  8.28016e+19
-42.2884  9.29643e+19
-42.171  1.02161e+20
-42.0537  1.09873e+20
-41.9364  1.15688e+20
-41.8191  1.19566e+20
-41.7018  1.21566e+20
-41.5845  1.2211e+20
-41.4672  1.21663e+20
-41.3499  1.20784e+20
-41.2326  1.19993e+20
-41.1153  1.19758e+20
-40.998  1.20374e+20
-40.8807  1.21893e+20
-40.7634  1.24086e+20
-40.6461  1.26602e+20
-40.5288  1.28788e+20
-40.4115  1.30042e+20
-40.2942  1.29698e+20
-40.1769  1.27238e+20
-40.0596  1.22405e+20
-39.9423  1.15249e+20
-39.825  1.0608e+20
-39.7076  9.54554e+19
-39.5903  8.42349e+19
-39.473  7.32798e+19
-39.3557  6.34772e+19
-39.2384  5.56814e+19
-39.1211  5.0567e+19
-39.0038  4.86762e+19
-38.8865  5.03789e+19
-38.7692  5.58992e+19
-38.6519  6.52101e+19
-38.5346  7.81323e+19
-38.4173  9.41738e+19
-38.3  1.12684e+20
-38.1827  1.32693e+20
-38.0654  1.53065e+20
-37.9481  1.72565e+20
-37.8308  1.89975e+20
-37.7135  2.04276e+20
-37.5962  2.14752e+20
-37.4789  2.21088e+20
-37.3615  2.23357e+20
-37.2442  2.22062e+20
-37.1269  2.18055e+20
-37.0096  2.12245e+20
-36.8923  2.05577e+20
-36.775  1.98811e+20
-36.6577  1.92437e+20
-36.5404  1.86728e+20
-36.4231  1.81658e+20
-36.3058  1.77028e+20
-36.1885  1.72579e+20
-36.0712  1.68065e+20
-35.9539  1.6333e+20
-35.8366  1.58354e+20
-35.7193  1.53172e+20
-35.602  1.47868e+20
-35.4847  1.42713e+20
-35.3674  1.37882e+20
-35.2501  1.33539e+20
-35.1328  1.29805e+20
-35.0154  1.2679e+20
-34.8981  1.246e+20
-34.7808  1.23322e+20
-34.6635  1.22947e+20
-34.5462  1.23498e+20
-34.4289  1.2499e+20
-34.3116  1.27219e+20
-34.1943  1.30029e+20
-34.077  1.3318e+20
-33.9597  1.36362e+20
-33.8424  1.39371e+20
-33.7251  1.41997e+20
-33.6078  1.44203e+20
-33.4905  1.46027e+20
-33.3732  1.47697e+20
-33.2559  1.49511e+20
-33.1386  1.51848e+20
-33.0213  1.55101e+20
-32.904  1.59711e+20
-32.7867  1.65982e+20
-32.6693  1.74109e+20
-32.552  1.84202e+20
-32.4347  1.96134e+20
-32.3174  2.09811e+20
-32.2001  2.24769e+20
-32.0828  2.40565e+20
-31.9655  2.5658e+20
-31.8482  2.72247e+20
-31.7309  2.86928e+20
-31.6136  3.00029e+20
-31.4963  3.11091e+20
-31.379  3.19827e+20
-31.2617  3.26127e+20
-31.1444  3.30064e+20
-31.0271  3.31683e+20
-30.9098  3.31456e+20
-30.7925  3.29582e+20
-30.6752  3.26525e+20
-30.5579  3.22752e+20
-30.4406  3.18572e+20
-30.3232  3.14414e+20
-30.2059  3.10472e+20
-30.0886  3.07124e+20
-29.9713  3.04653e+20
-29.854  3.03243e+20
-29.7367  3.03073e+20
-29.6194  3.04335e+20
-29.5021  3.07117e+20
-29.3848  3.11383e+20
-29.2675  3.17136e+20
-29.1502  3.2425e+20
-29.0329  3.32588e+20
-28.9156  3.41809e+20
-28.7983  3.51608e+20
-28.681  3.61595e+20
-28.5637  3.71289e+20
-28.4464  3.80285e+20
-28.3291  3.88099e+20
-28.2118  3.94308e+20
-28.0944  3.98704e+20
-27.9771  4.01097e+20
-27.8598  4.01506e+20
-27.7425  3.99997e+20
-27.6252  3.96703e+20
-27.5079  3.92032e+20
-27.3906  3.86272e+20
-27.2733  3.79815e+20
-27.156  3.72921e+20
-27.0387  3.65889e+20
-26.9214  3.5896e+20
-26.8041  3.52326e+20
-26.6868  3.46081e+20
-26.5695  3.40306e+20
-26.4522  3.34957e+20
-26.3349  3.30032e+20
-26.2176  3.25499e+20
-26.1003  3.21082e+20
-25.983  3.16638e+20
-25.8657  3.11945e+20
-25.7483  3.06794e+20
-25.631  3.01153e+20
-25.5137  2.94838e+20
-25.3964  2.87839e+20
-25.2791  2.80189e+20
-25.1618  2.71979e+20
-25.0445  2.63165e+20
-24.9272  2.53935e+20
-24.8099  2.44271e+20
-24.6926  2.34283e+20
-24.5753  2.24125e+20
-24.458  2.13881e+20
-24.3407  2.03758e+20
-24.2234  1.93989e+20
-24.1061  1.84789e+20
-23.9888  1.76429e+20
-23.8715  1.69115e+20
-23.7542  1.63079e+20
-23.6369  1.58429e+20
-23.5196  1.55205e+20
-23.4023  1.53487e+20
-23.2849  1.53189e+20
-23.1676  1.54186e+20
-23.0503  1.56396e+20
-22.933  1.59509e+20
-22.8157  1.63359e+20
-22.6984  1.67633e+20
-22.5811  1.72103e+20
-22.4638  1.76598e+20
-22.3465  1.80935e+20
-22.2292  1.85187e+20
-22.1119  1.89438e+20
-21.9946  1.93939e+20
-21.8773  1.98899e+20
-21.76  2.0458e+20
-21.6427  2.11167e+20
-21.5254  2.18652e+20
-21.4081  2.26923e+20
-21.2908  2.35645e+20
-21.1735  2.44389e+20
-21.0561  2.52698e+20
-20.9388  2.60166e+20
-20.8215  2.66501e+20
-20.7042  2.71579e+20
-20.5869  2.75473e+20
-20.4696  2.78526e+20
-20.3523  2.8117e+20
-20.235  2.84012e+20
-20.1177  2.87641e+20
-20.0004  2.92763e+20
-19.8831  3.0001e+20
-19.7658  3.09881e+20
-19.6485  3.22744e+20
-19.5312  3.38875e+20
-19.4139  3.58221e+20
-19.2966  3.80589e+20
-19.1793  4.05489e+20
-19.062  4.32266e+20
-18.9447  4.60013e+20
-18.8274  4.87817e+20
-18.71  5.14763e+20
-18.5927  5.40106e+20
-18.4754  5.63345e+20
-18.3581  5.8428e+20
-18.2408  6.03195e+20
-18.1235  6.20645e+20
-18.0062  6.37568e+20
-17.8889  6.55002e+20
-17.7716  6.74191e+20
-17.6543  6.9639e+20
-17.537  7.22515e+20
-17.4197  7.53405e+20
-17.3024  7.89479e+20
-17.1851  8.30846e+20
-17.0678  8.77049e+20
-16.9505  9.27302e+20
-16.8332  9.80561e+20
-16.7159  1.03538e+21
-16.5986  1.09021e+21
-16.4813  1.14364e+21
-16.364  1.19432e+21
-16.2466  1.24132e+21
-16.1293  1.28392e+21
-16.012  1.32236e+21
-15.8947  1.35713e+21
-15.7774  1.38946e+21
-15.6601  1.42092e+21
-15.5428  1.45355e+21
-15.4255  1.48925e+21
-15.3082  1.5303e+21
-15.1909  1.57853e+21
-15.0736  1.63547e+21
-14.9563  1.70216e+21
-14.839  1.77939e+21
-14.7217  1.86692e+21
-14.6044  1.96444e+21
-14.4871  2.07094e+21
-14.3698  2.18515e+21
-14.2525  2.3052e+21
-14.1352  2.42908e+21
-14.0178  2.555e+21
-13.9005  2.68065e+21
-13.7832  2.8041e+21
-13.6659  2.92344e+21
-13.5486  3.03706e+21
-13.4313  3.14371e+21
-13.314  3.24226e+21
-13.1967  3.33199e+21
-13.0794  3.41286e+21
-12.9621  3.48437e+21
-12.8448  3.54723e+21
-12.7275  3.60164e+21
-12.6102  3.64868e+21
-12.4929  3.6891e+21
-12.3756  3.72401e+21
-12.2583  3.75502e+21
-12.141  3.78356e+21
-12.0237  3.81112e+21
-11.9064  3.83927e+21
-11.7891  3.8696e+21
-11.6718  3.90369e+21
-11.5544  3.94305e+21
-11.4371  3.98901e+21
-11.3198  4.04243e+21
-11.2025  4.1041e+21
-11.0852  4.17462e+21
-10.9679  4.25411e+21
-10.8506  4.34235e+21
-10.7333  4.43865e+21
-10.616  4.54226e+21
-10.4987  4.65237e+21
-10.3814  4.76731e+21
-10.2641  4.88594e+21
-10.1468  5.00709e+21
-10.0295  5.12953e+21
-9.91217  5.25211e+21
-9.79487  5.37445e+21
-9.67756  5.49595e+21
-9.56026  5.6164e+21
-9.44295  5.73562e+21
-9.32565  5.85437e+21
-9.20834  5.97261e+21
-9.09104  6.09081e+21
-8.97373  6.20963e+21
-8.85643  6.32943e+21
-8.73913  6.45029e+21
-8.62182  6.57255e+21
-8.50452  6.69618e+21
-8.38721  6.82155e+21
-8.26991  6.94795e+21
-8.1526  7.0757e+21
-8.03529  7.20401e+21
-7.91799  7.33302e+21
-7.80069  7.46216e+21
-7.68338  7.59096e+21
-7.56608  7.71973e+21
-7.44877  7.84803e+21
-7.33146  7.97592e+21
-7.21416  8.10282e+21
-7.09685  8.22858e+21
-6.97955  8.35249e+21
-6.86224  8.47384e+21
-6.74494  8.59197e+21
-6.62763  8.70479e+21
-6.51033  8.8112e+21
-6.39302  8.90941e+21
-6.27572  8.99773e+21
-6.15842  9.07467e+21
-6.04111  9.13886e+21
-5.92381  9.18917e+21
-5.8065  9.22584e+21
-5.68919  9.24849e+21
-5.57189  9.25836e+21
-5.45458  9.25693e+21
-5.33728  9.24667e+21
-5.21997  9.22986e+21
-5.10267  9.20998e+21
-4.98536  9.18997e+21
-4.86806  9.17314e+21
-4.75075  9.16234e+21
-4.63345  9.16045e+21
-4.51614  9.16912e+21
-4.39884  9.18975e+21
-4.28154  9.22323e+21
-4.16423  9.26944e+21
-4.04692  9.32757e+21
-3.92962  9.3966e+21
-3.81231  9.4752e+21
-3.69501  9.5618e+21
-3.5777  9.65445e+21
-3.4604  9.75183e+21
-3.34309  9.85241e+21
-3.22579  9.955e+21
-3.10849  1.00592e+22
-2.99118  1.01644e+22
-2.87387  1.02708e+22
-2.75657  1.03786e+22
-2.63926  1.04882e+22
-2.52196  1.06003e+22
-2.40465  1.07153e+22
-2.28735  1.08332e+22
-2.17005  1.09542e+22
-2.05274  1.10784e+22
-1.93544  1.12044e+22
-1.81813  1.13319e+22
-1.70083  1.14596e+22
-1.58352  1.15859e+22
-1.46622  1.17094e+22
-1.34891  1.18286e+22
-1.2316  1.19417e+22
-1.1143  1.20476e+22
-0.996995  1.21447e+22
-0.87969  1.22324e+22
-0.762385  1.23093e+22
-0.64508  1.23755e+22
-0.527775  1.24306e+22
-0.41047  1.24743e+22
-0.293165  1.25068e+22
-0.17586  1.25285e+22
-0.058555  1.25394e+22
0.05875  1.25397e+22
0.176055  1.25293e+22
0.29336  1.25081e+22
0.410665  1.24761e+22
0.52797  1.24328e+22
0.645275  1.23783e+22
0.76258  1.23125e+22
0.879885  1.22359e+22
0.99719  1.21487e+22
1.1145  1.20518e+22
1.2318  1.19463e+22
1.3491  1.18337e+22
1.46641  1.17148e+22
1.58371  1.15917e+22
1.70102  1.14659e+22
1.81832  1.13388e+22
1.93563  1.12118e+22
2.05294  1.10861e+22
2.17024  1.09629e+22
2.28754  1.08426e+22
2.40485  1.07254e+22
2.52216  1.06113e+22
2.63946  1.05002e+22
2.75677  1.03913e+22
2.87407  1.02843e+22
2.99137  1.01787e+22
3.10868  1.00743e+22
3.22599  9.97082e+21
3.34329  9.86888e+21
3.4606  9.76899e+21
3.5779  9.67229e+21
3.69521  9.58006e+21
3.81251  9.49436e+21
3.92982  9.41613e+21
4.04712  9.34761e+21
4.16443  9.29016e+21
4.28173  9.24469e+21
4.39903  9.21193e+21
4.51634  9.19193e+21
4.63364  9.18419e+21
4.75095  9.18688e+21
4.86825  9.19827e+21
4.98556  9.21582e+21
5.10286  9.23652e+21
5.22017  9.25702e+21
5.33748  9.27421e+21
5.45478  9.28495e+21
5.57209  9.28665e+21
5.68939  9.27671e+21
5.8067  9.25403e+21
5.924  9.21724e+21
6.0413  9.16657e+21
6.15861  9.10207e+21
6.27591  9.02463e+21
6.39322  8.93593e+21
6.51052  8.83727e+21
6.62783  8.73032e+21
6.74514  8.61701e+21
6.86244  8.49893e+21
6.97975  8.37713e+21
7.09705  8.25318e+21
7.21436  8.12743e+21
7.33166  8.00052e+21
7.44897  7.87297e+21
7.56627  7.74488e+21
7.68358  7.61631e+21
7.80088  7.48751e+21
7.91819  7.35847e+21
8.03549  7.2298e+21
8.1528  7.10168e+21
8.2701  6.97388e+21
8.38741  6.84729e+21
8.50471  6.72198e+21
8.62202  6.59808e+21
8.73932  6.47553e+21
8.85662  6.35453e+21
8.97393  6.23473e+21
9.09123  6.11567e+21
9.20854  5.99731e+21
9.32584  5.87917e+21
9.44315  5.7604e+21
9.56045  5.64101e+21
9.67776  5.52082e+21
9.79506  5.3994e+21
9.91237  5.27724e+21
10.0297  5.15477e+21
10.147  5.03262e+21
10.2643  4.91178e+21
10.3816  4.79323e+21
10.4989  4.67852e+21
10.6162  4.56864e+21
10.7335  4.46506e+21
10.8508  4.36888e+21
10.9681  4.2807e+21
11.0854  4.20142e+21
11.2027  4.13105e+21
11.32  4.06936e+21
11.4373  4.01598e+21
11.5546  3.97014e+21
11.6719  3.93067e+21
11.7893  3.89669e+21
11.9066  3.86643e+21
12.0239  3.83807e+21
12.1412  3.81061e+21
12.2585  3.78205e+21
12.3758  3.75091e+21
12.4931  3.71564e+21
12.6104  3.67491e+21
12.7277  3.62765e+21
12.845  3.5729e+21
12.9623  3.50945e+21
13.0796  3.4374e+21
13.1969  3.35591e+21
13.3142  3.26554e+21
13.4315  3.16622e+21
13.5488  3.05889e+21
13.6661  2.94449e+21
13.7834  2.82439e+21
13.9007  2.70021e+21
14.018  2.57395e+21
14.1354  2.44741e+21
14.2527  2.32287e+21
14.37  2.20241e+21
14.4873  2.08777e+21
14.6046  1.98087e+21
14.7219  1.88302e+21
14.8392  1.79526e+21
14.9565  1.71793e+21
15.0738  1.65102e+21
15.1911  1.59402e+21
15.3084  1.54565e+21
15.4257  1.50441e+21
15.543  1.46845e+21
15.6603  1.43565e+21
15.7776  1.40399e+21
15.8949  1.37134e+21
16.0122  1.33624e+21
16.1295  1.29736e+21
16.2468  1.25421e+21
16.3641  1.20678e+21
16.4815  1.15562e+21
16.5988  1.10172e+21
16.7161  1.04629e+21
16.8334  9.91102e+20
16.9507  9.37429e+20
17.068  8.86799e+20
17.1853  8.403e+20
17.3026  7.9872e+20
17.4199  7.62398e+20
17.5372  7.31282e+20
17.6545  7.04941e+20
17.7718  6.82633e+20
17.8891  6.63177e+20
18.0064  6.45544e+20
18.1237  6.284e+20
18.241  6.10598e+20
18.3583  5.91326e+20
18.4756  5.69984e+20
18.5929  5.46315e+20
18.7102  5.2049e+20
18.8275  4.93091e+20
18.9449  4.64843e+20
19.0622  4.36669e+20
19.1795  4.09509e+20
19.2968  3.84228e+20
19.4141  3.61531e+20
19.5314  3.41913e+20
19.6487  3.25556e+20
19.766  3.1247e+20
19.8833  3.02436e+20
20.0006  2.95023e+20
20.1179  2.89721e+20
20.2352  2.85903e+20
20.3525  2.82913e+20
20.4698  2.80105e+20
20.5871  2.76879e+20
20.7044  2.7275e+20
20.8217  2.67448e+20
20.939  2.60886e+20
21.0563  2.53193e+20
21.1736  2.44679e+20
21.291  2.35732e+20
21.4083  2.26858e+20
21.5256  2.18483e+20
21.6429  2.10875e+20
21.7602  2.04215e+20
21.8775  1.9847e+20
21.9948  1.93464e+20
22.1121  1.88965e+20
22.2294  1.84681e+20
22.3467  1.80409e+20
22.464  1.76039e+20
22.5813  1.71547e+20
22.6986  1.67042e+20
22.8159  1.62754e+20
22.9332  1.58892e+20
23.0505  1.55759e+20
23.1678  1.53564e+20
23.2851  1.52544e+20
23.4024  1.52874e+20
23.5198  1.54581e+20
23.6371  1.578e+20
23.7544  1.62454e+20
23.8717  1.68485e+20
23.989  1.75789e+20
24.1063  1.84117e+20
24.2236  1.93287e+20
24.3409  2.03039e+20
24.4582  2.13081e+20
24.5755  2.23293e+20
24.6928  2.33413e+20
24.8101  2.43339e+20
24.9274  2.52913e+20
25.0447  2.6213e+20
25.162  2.70904e+20
25.2793  2.79156e+20
25.3966  2.86765e+20
25.5139  2.93728e+20
25.6312  3.00026e+20
25.7485  3.05696e+20
25.8658  3.10817e+20
25.9832  3.15523e+20
26.1005  3.19956e+20
26.2178  3.24399e+20
26.3351  3.29012e+20
26.4524  3.33887e+20
26.5697  3.39233e+20
26.687  3.45037e+20
26.8043  3.51295e+20
26.9216  3.58045e+20
27.0389  3.64961e+20
27.1562  3.72046e+20
27.2735  3.78987e+20
27.3908  3.85558e+20
27.5081  3.91351e+20
27.6254  3.96098e+20
27.7427  3.99434e+20
27.86  4.00996e+20
27.9773  4.00629e+20
28.0946  3.98268e+20
28.212  3.93856e+20
28.3293  3.87607e+20
28.4466  3.79812e+20
28.5639  3.70799e+20
28.6812  3.61092e+20
28.7985  3.51133e+20
28.9158  3.41382e+20
29.0331  3.3222e+20
29.1504  3.23979e+20
29.2677  3.17002e+20
29.385  3.1136e+20
29.5023  3.07232e+20
29.6196  3.0459e+20
29.7369  3.0348e+20
29.8542  3.03772e+20
29.9715  3.05259e+20
30.0888  3.07853e+20
30.2061  3.11202e+20
30.3234  3.15114e+20
30.4407  3.19333e+20
30.558  3.23449e+20
30.6754  3.27246e+20
30.7927  3.3014e+20
30.91  3.319e+20
31.0273  3.32093e+20
31.1446  3.30371e+20
31.2619  3.26385e+20
31.3792  3.20002e+20
31.4965  3.11208e+20
31.6138  3.00099e+20
31.7311  2.86957e+20
31.8484  2.72273e+20
31.9657  2.56642e+20
32.083  2.40629e+20
32.2003  2.24856e+20
32.3176  2.09942e+20
32.4349  1.96315e+20
32.5522  1.84394e+20
32.6695  1.74327e+20
32.7868  1.66212e+20
32.9042  1.59974e+20
33.0215  1.5536e+20
33.1388  1.52121e+20
33.2561  1.49774e+20
33.3734  1.47993e+20
33.4907  1.46326e+20
33.608  1.44508e+20
33.7253  1.42363e+20
33.8426  1.39754e+20
33.9599  1.36814e+20
34.0772  1.33671e+20
34.1945  1.30597e+20
34.3118  1.27862e+20
34.4291  1.25709e+20
34.5464  1.24318e+20
34.6637  1.23801e+20
34.781  1.24245e+20
34.8983  1.25614e+20
35.0156  1.27862e+20
35.1329  1.30903e+20
35.2503  1.34675e+20
35.3676  1.39093e+20
35.4849  1.43948e+20
35.6022  1.49097e+20
35.7195  1.54381e+20
35.8368  1.59621e+20
35.9541  1.64574e+20
36.0714  1.69308e+20
36.1887  1.7383e+20
36.306  1.78265e+20
36.4233  1.82892e+20
36.5406  1.87981e+20
36.6579  1.93721e+20
36.7752  2.00087e+20
36.8925  2.06844e+20
37.0098  2.13518e+20
37.1271  2.19232e+20
37.2444  2.23187e+20
37.3617  2.24362e+20
37.479  2.21953e+20
37.5964  2.15469e+20
37.7137  2.0483e+20
37.831  1.90368e+20
37.9483  1.72808e+20
38.0656  1.53179e+20
38.1829  1.32727e+20
38.3002  1.12661e+20
38.4175  9.41587e+19
38.5348  7.81555e+19
38.6521  6.53065e+19
38.7694  5.61001e+19
38.8867  5.07176e+19
39.004  4.9157e+19
39.1213  5.119e+19
39.2386  5.64457e+19
39.3559  6.43919e+19
39.4732  7.42959e+19
39.5905  8.53547e+19
39.7078  9.66425e+19
39.8251  1.07249e+20
39.9425  1.16417e+20
40.0598  1.23513e+20
40.1771  1.28297e+20
40.2944  1.30684e+20
40.4117  1.30969e+20
40.529  1.29655e+20
40.6463  1.27405e+20
40.7636  1.24904e+20
40.8809  1.22662e+20
40.9982  1.21154e+20
41.1155  1.20565e+20
41.2328  1.20798e+20
41.3501  1.21547e+20
41.4674  1.22404e+20
41.5847  1.22817e+20
41.702  1.22173e+20
41.8193  1.2006e+20
41.9366  1.1609e+20
42.0539  1.10168e+20
42.1712  1.02374e+20
42.2885  9.30617e+19
42.4059  8.28539e+19
42.5232  7.24229e+19
42.6405  6.26126e+19
42.7578  5.404e+19
42.8751  4.72752e+19
42.9924  4.25718e+19
43.1097  3.98534e+19
43.227  3.87967e+19
43.3443  3.88655e+19
43.4616  3.94478e+19
43.5789  3.99625e+19
43.6962  3.99658e+19
43.8135  3.92689e+19
43.9308  3.78529e+19
44.0481  3.59141e+19
44.1654  3.37199e+19
44.2827  3.15656e+19
44.4  2.96557e+19
44.5173  2.80945e+19
44.6347  2.6901e+19
44.752  2.60243e+19
44.8693  2.54496e+19
44.9866  2.52052e+19
45.1039  2.54151e+19
45.2212  2.62584e+19
45.3385  2.7943e+19
45.4558  3.05925e+19
45.5731  3.42249e+19
45.6904  3.86808e+19
45.8077  4.36083e+19
45.925  4.85845e+19
46.0423  5.31229e+19
46.1596  5.68249e+19
46.2769  5.93688e+19
46.3942  6.06752e+19
46.5115  6.08441e+19
46.6288  6.00535e+19
46.7461  5.86288e+19
46.8634  5.6862e+19
46.9808  5.49464e+19
47.0981  5.30172e+19
47.2154  5.1061e+19
47.3327  4.90393e+19
47.45  4.67959e+19
47.5673  4.42628e+19
47.6846  4.14269e+19
47.8019  3.8238e+19
47.9192  3.48359e+19
48.0365  3.13523e+19
48.1538  2.79678e+19
48.2711  2.49001e+19
48.3884  2.23119e+19
48.5057  2.03698e+19
48.623  1.91723e+19
48.7403  1.87851e+19
48.8576  1.91647e+19
48.9749  2.02333e+19
49.0922  2.18447e+19
49.2095  2.37912e+19
49.3269  2.58151e+19
49.4442  2.77088e+19
49.5615  2.92337e+19
49.6788  3.02648e+19
49.7961  3.07253e+19
49.9134  3.06362e+19
50.0307  3.007e+19
50.148  2.91696e+19
50.2653  2.81125e+19
50.3826  2.70682e+19
50.4999  2.62178e+19
50.6172  2.5692e+19
50.7345  2.56035e+19
