#S 1 spectral density
#N 2
#UFWHM 12.9036
#L  abscissas [um]  spectral density
-58.5938  1.4545e+19
-58.4764  1.01728e+19
-58.3591  6.20073e+18
-58.2418  3.14347e+18
-58.1245  1.2841e+18
-58.0072  6.65669e+17
-57.8899  1.08912e+18
-57.7726  2.21647e+18
-57.6553  3.64954e+18
-57.538  5.03804e+18
-57.4207  6.13507e+18
-57.3034  6.80638e+18
-57.1861  7.04023e+18
-57.0688  6.9152e+18
-56.9515  6.55318e+18
-56.8342  6.08818e+18
-56.7169  5.68508e+18
-56.5996  5.52317e+18
-56.4823  5.79243e+18
-56.365  6.67518e+18
-56.2477  8.33945e+18
-56.1303  1.08478e+19
-56.013  1.41574e+19
-55.8957  1.8038e+19
-55.7784  2.21244e+19
-55.6611  2.59053e+19
-55.5438  2.88227e+19
-55.4265  3.04658e+19
-55.3092  3.04892e+19
-55.1919  2.88274e+19
-55.0746  2.56945e+19
-54.9573  2.1471e+19
-54.84  1.67647e+19
-54.7227  1.21497e+19
-54.6054  8.20911e+18
-54.4881  5.3318e+18
-54.3708  3.734e+18
-54.2535  3.44622e+18
-54.1362  4.33825e+18
-54.0189  6.19812e+18
-53.9016  8.76183e+18
-53.7842  1.17666e+19
-53.6669  1.50219e+19
-53.5496  1.83369e+19
-53.4323  2.15619e+19
-53.315  2.45548e+19
-53.1977  2.71654e+19
-53.0804  2.92229e+19
-52.9631  3.05661e+19
-52.8458  3.10578e+19
-52.7285  3.05575e+19
-52.6112  2.90413e+19
-52.4939  2.65075e+19
-52.3766  2.31023e+19
-52.2593  1.90375e+19
-52.142  1.46608e+19
-52.0247  1.03817e+19
-51.9074  6.6622e+18
-51.7901  3.96752e+18
-51.6728  2.68353e+18
-51.5555  3.07071e+18
-51.4381  5.19096e+18
-51.3208  8.87947e+18
-51.2035  1.37393e+19
-51.0862  1.92108e+19
-50.9689  2.45918e+19
-50.8516  2.9191e+19
-50.7343  3.24237e+19
-50.617  3.38689e+19
-50.4997  3.3379e+19
-50.3824  3.1063e+19
-50.2651  2.72451e+19
-50.1478  2.24637e+19
-50.0305  1.7297e+19
-49.9132  1.23241e+19
-49.7959  8.04398e+18
-49.6786  4.80278e+18
-49.5613  2.7943e+18
-49.444  2.04037e+18
-49.3267  2.40905e+18
-49.2094  3.66284e+18
-49.092  5.49167e+18
-48.9747  7.57897e+18
-48.8574  9.61332e+18
-48.7401  1.13532e+19
-48.6228  1.26111e+19
-48.5055  1.33224e+19
-48.3882  1.34855e+19
-48.2709  1.31611e+19
-48.1536  1.24731e+19
-48.0363  1.15279e+19
-47.919  1.04458e+19
-47.8017  9.30198e+18
-47.6844  8.16505e+18
-47.5671  7.07934e+18
-47.4498  6.09946e+18
-47.3325  5.2938e+18
-47.2152  4.73674e+18
-47.0979  4.49892e+18
-46.9806  4.6031e+18
-46.8633  5.02168e+18
-46.7459  5.65991e+18
-46.6286  6.35955e+18
-46.5113  6.95885e+18
-46.394  7.34212e+18
-46.2767  7.50894e+18
-46.1594  7.60179e+18
-46.0421  7.93309e+18
-45.9248  8.89912e+18
-45.8075  1.09177e+19
-45.6902  1.42909e+19
-45.5729  1.90688e+19
-45.4556  2.50767e+19
-45.3383  3.17324e+19
-45.221  3.83338e+19
-45.1037  4.40058e+19
-44.9864  4.7937e+19
-44.8691  4.95948e+19
-44.7518  4.87855e+19
-44.6345  4.56437e+19
-44.5172  4.06611e+19
-44.3998  3.45667e+19
-44.2825  2.81169e+19
-44.1652  2.20297e+19
-44.0479  1.67737e+19
-43.9306  1.26252e+19
-43.8133  9.59033e+18
-43.696  7.52344e+18
-43.5787  6.22379e+18
-43.4614  5.49895e+18
-43.3441  5.21985e+18
-43.2268  5.35984e+18
-43.1095  5.96677e+18
-42.9922  7.11895e+18
-42.8749  8.86675e+18
-42.7576  1.12186e+19
-42.6403  1.41101e+19
-42.523  1.74394e+19
-42.4057  2.10557e+19
-42.2884  2.47883e+19
-42.171  2.84616e+19
-42.0537  3.19718e+19
-41.9364  3.5122e+19
-41.8191  3.77314e+19
-41.7018  3.96023e+19
-41.5845  4.05133e+19
-41.4672  4.03034e+19
-41.3499  3.88312e+19
-41.2326  3.60896e+19
-41.1153  3.22037e+19
-40.998  2.74263e+19
-40.8807  2.21356e+19
-40.7634  1.67545e+19
-40.6461  1.17615e+19
-40.5288  7.54421e+18
-40.4115  4.44661e+18
-40.2942  2.70732e+18
-40.1769  2.43364e+18
-40.0596  3.63498e+18
-39.9423  6.21003e+18
-39.825  9.93533e+18
-39.7076  1.4482e+19
-39.5903  1.94024e+19
-39.473  2.41866e+19
-39.3557  2.824e+19
-39.2384  3.10363e+19
-39.1211  3.21404e+19
-39.0038  3.13081e+19
-38.8865  2.85888e+19
-38.7692  2.43336e+19
-38.6519  1.90941e+19
-38.5346  1.36073e+19
-38.4173  8.61402e+18
-38.3  4.75751e+18
-38.1827  2.42939e+18
-38.0654  1.71277e+18
-37.9481  2.40224e+18
-37.8308  4.0652e+18
-37.7135  6.16249e+18
-37.5962  8.195e+18
-37.4789  9.81884e+18
-37.3615  1.09208e+19
-37.2442  1.1625e+19
-37.1269  1.2171e+19
-37.0096  1.28914e+19
-36.8923  1.40139e+19
-36.775  1.56246e+19
-36.6577  1.76014e+19
-36.5404  1.96045e+19
-36.4231  2.12339e+19
-36.3058  2.20906e+19
-36.1885  2.19009e+19
-36.0712  2.06057e+19
-35.9539  1.83957e+19
-35.8366  1.56848e+19
-35.7193  1.30546e+19
-35.602  1.10487e+19
-35.4847  1.01704e+19
-35.3674  1.07271e+19
-35.2501  1.27936e+19
-35.1328  1.62155e+19
-35.0154  2.06865e+19
-34.8981  2.5798e+19
-34.7808  3.1144e+19
-34.6635  3.63264e+19
-34.5462  4.11077e+19
-34.4289  4.53804e+19
-34.3116  4.90728e+19
-34.1943  5.22196e+19
-34.077  5.49119e+19
-33.9597  5.72072e+19
-33.8424  5.91334e+19
-33.7251  6.06926e+19
-33.6078  6.18361e+19
-33.4905  6.24885e+19
-33.3732  6.25315e+19
-33.2559  6.1859e+19
-33.1386  6.0361e+19
-33.0213  5.79847e+19
-32.904  5.47502e+19
-32.7867  5.07461e+19
-32.6693  4.61198e+19
-32.552  4.11206e+19
-32.4347  3.60344e+19
-32.3174  3.12117e+19
-32.2001  2.69382e+19
-32.0828  2.34618e+19
-31.9655  2.09604e+19
-31.8482  1.95367e+19
-31.7309  1.92015e+19
-31.6136  1.99099e+19
-31.4963  2.15933e+19
-31.379  2.41713e+19
-31.2617  2.75708e+19
-31.1444  3.17107e+19
-31.0271  3.6494e+19
-30.9098  4.18422e+19
-30.7925  4.75094e+19
-30.6752  5.32658e+19
-30.5579  5.87693e+19
-30.4406  6.36314e+19
-30.3232  6.75049e+19
-30.2059  6.99846e+19
-30.0886  7.08112e+19
-29.9713  6.98659e+19
-29.854  6.71044e+19
-29.7367  6.26508e+19
-29.6194  5.68162e+19
-29.5021  5.00161e+19
-29.3848  4.27396e+19
-29.2675  3.55311e+19
-29.1502  2.89218e+19
-29.0329  2.33925e+19
-28.9156  1.92737e+19
-28.7983  1.67281e+19
-28.681  1.57559e+19
-28.5637  1.61302e+19
-28.4464  1.74936e+19
-28.3291  1.9375e+19
-28.2118  2.12835e+19
-28.0944  2.27904e+19
-27.9771  2.36031e+19
-27.8598  2.35892e+19
-27.7425  2.28454e+19
-27.6252  2.15995e+19
-27.5079  2.02462e+19
-27.3906  1.92267e+19
-27.2733  1.89953e+19
-27.156  1.99403e+19
-27.0387  2.23525e+19
-26.9214  2.64044e+19
-26.8041  3.21317e+19
-26.6868  3.94252e+19
-26.5695  4.80239e+19
-26.4522  5.7544e+19
-26.3349  6.75447e+19
-26.2176  7.74403e+19
-26.1003  8.66634e+19
-25.983  9.46038e+19
-25.8657  1.00744e+20
-25.7483  1.04732e+20
-25.631  1.0639e+20
-25.5137  1.05813e+20
-25.3964  1.03253e+20
-25.2791  9.92075e+19
-25.1618  9.43123e+19
-25.0445  8.92712e+19
-24.9272  8.47664e+19
-24.8099  8.138e+19
-24.6926  7.95838e+19
-24.5753  7.97038e+19
-24.458  8.17552e+19
-24.3407  8.57032e+19
-24.2234  9.12702e+19
-24.1061  9.81001e+19
-23.9888  1.05724e+20
-23.8715  1.13663e+20
-23.7542  1.21481e+20
-23.6369  1.28871e+20
-23.5196  1.3566e+20
-23.4023  1.41767e+20
-23.2849  1.47359e+20
-23.1676  1.52703e+20
-23.0503  1.58056e+20
-22.933  1.63822e+20
-22.8157  1.70118e+20
-22.6984  1.77017e+20
-22.5811  1.84435e+20
-22.4638  1.92112e+20
-22.3465  1.99723e+20
-22.2292  2.06903e+20
-22.1119  2.13326e+20
-21.9946  2.18699e+20
-21.8773  2.22928e+20
-21.76  2.25977e+20
-21.6427  2.27826e+20
-21.5254  2.28522e+20
-21.4081  2.28169e+20
-21.2908  2.26816e+20
-21.1735  2.24515e+20
-21.0561  2.21355e+20
-20.9388  2.17349e+20
-20.8215  2.12688e+20
-20.7042  2.07502e+20
-20.5869  2.02017e+20
-20.4696  1.96372e+20
-20.3523  1.90774e+20
-20.235  1.85313e+20
-20.1177  1.80167e+20
-20.0004  1.75394e+20
-19.8831  1.71001e+20
-19.7658  1.67241e+20
-19.6485  1.64266e+20
-19.5312  1.6238e+20
-19.4139  1.61886e+20
-19.2966  1.63198e+20
-19.1793  1.66668e+20
-19.062  1.72662e+20
-18.9447  1.81496e+20
-18.8274  1.93496e+20
-18.71  2.08862e+20
-18.5927  2.27872e+20
-18.4754  2.50729e+20
-18.3581  2.77443e+20
-18.2408  3.081e+20
-18.1235  3.4234e+20
-18.0062  3.7967e+20
-17.8889  4.19241e+20
-17.7716  4.59693e+20
-17.6543  4.99824e+20
-17.537  5.37812e+20
-17.4197  5.72267e+20
-17.3024  6.01631e+20
-17.1851  6.25004e+20
-17.0678  6.4183e+20
-16.9505  6.52059e+20
-16.8332  6.56331e+20
-16.7159  6.55832e+20
-16.5986  6.52204e+20
-16.4813  6.47386e+20
-16.364  6.43527e+20
-16.2466  6.42746e+20
-16.1293  6.46664e+20
-16.012  6.57189e+20
-15.8947  6.7519e+20
-15.7774  7.01266e+20
-15.6601  7.35326e+20
-15.5428  7.76766e+20
-15.4255  8.24283e+20
-15.3082  8.76466e+20
-15.1909  9.31197e+20
-15.0736  9.86684e+20
-14.9563  1.04085e+21
-14.839  1.09215e+21
-14.7217  1.13894e+21
-14.6044  1.18051e+21
-14.4871  1.21626e+21
-14.3698  1.24632e+21
-14.2525  1.271e+21
-14.1352  1.29102e+21
-14.0178  1.30736e+21
-13.9005  1.32118e+21
-13.7832  1.33354e+21
-13.6659  1.34552e+21
-13.5486  1.35822e+21
-13.4313  1.37252e+21
-13.314  1.38892e+21
-13.1967  1.4079e+21
-13.0794  1.42992e+21
-12.9621  1.45492e+21
-12.8448  1.48291e+21
-12.7275  1.51378e+21
-12.6102  1.5475e+21
-12.4929  1.58392e+21
-12.3756  1.62295e+21
-12.2583  1.66473e+21
-12.141  1.70944e+21
-12.0237  1.75739e+21
-11.9064  1.80878e+21
-11.7891  1.86407e+21
-11.6718  1.92363e+21
-11.5544  1.98767e+21
-11.4371  2.0562e+21
-11.3198  2.12932e+21
-11.2025  2.20672e+21
-11.0852  2.28829e+21
-10.9679  2.3738e+21
-10.8506  2.46312e+21
-10.7333  2.55625e+21
-10.616  2.65369e+21
-10.4987  2.7562e+21
-10.3814  2.86463e+21
-10.2641  2.9803e+21
-10.1468  3.10517e+21
-10.0295  3.24062e+21
-9.91217  3.38818e+21
-9.79487  3.54952e+21
-9.67756  3.72523e+21
-9.56026  3.91557e+21
-9.44295  4.11968e+21
-9.32565  4.33657e+21
-9.20834  4.56374e+21
-9.09104  4.79832e+21
-8.97373  5.03672e+21
-8.85643  5.27559e+21
-8.73913  5.51071e+21
-8.62182  5.73851e+21
-8.50452  5.95567e+21
-8.38721  6.15985e+21
-8.26991  6.3484e+21
-8.1526  6.52044e+21
-8.03529  6.67491e+21
-7.91799  6.81201e+21
-7.80069  6.93245e+21
-7.68338  7.03698e+21
-7.56608  7.12736e+21
-7.44877  7.20558e+21
-7.33146  7.27356e+21
-7.21416  7.33344e+21
-7.09685  7.38749e+21
-6.97955  7.43808e+21
-6.86224  7.48745e+21
-6.74494  7.53808e+21
-6.62763  7.59157e+21
-6.51033  7.65056e+21
-6.39302  7.71705e+21
-6.27572  7.7932e+21
-6.15842  7.88113e+21
-6.04111  7.98284e+21
-5.92381  8.10012e+21
-5.8065  8.23461e+21
-5.68919  8.3873e+21
-5.57189  8.55876e+21
-5.45458  8.749e+21
-5.33728  8.9576e+21
-5.21997  9.18281e+21
-5.10267  9.423e+21
-4.98536  9.67545e+21
-4.86806  9.93698e+21
-4.75075  1.02044e+22
-4.63345  1.04744e+22
-4.51614  1.07436e+22
-4.39884  1.1009e+22
-4.28154  1.12685e+22
-4.16423  1.15208e+22
-4.04692  1.17646e+22
-3.92962  1.20005e+22
-3.81231  1.22295e+22
-3.69501  1.24527e+22
-3.5777  1.2672e+22
-3.4604  1.28893e+22
-3.34309  1.31056e+22
-3.22579  1.33217e+22
-3.10849  1.35382e+22
-2.99118  1.37536e+22
-2.87387  1.39664e+22
-2.75657  1.41742e+22
-2.63926  1.43736e+22
-2.52196  1.4561e+22
-2.40465  1.47328e+22
-2.28735  1.48851e+22
-2.17005  1.50151e+22
-2.05274  1.51207e+22
-1.93544  1.52001e+22
-1.81813  1.52533e+22
-1.70083  1.52811e+22
-1.58352  1.52852e+22
-1.46622  1.52685e+22
-1.34891  1.52341e+22
-1.2316  1.51861e+22
-1.1143  1.51282e+22
-0.996995  1.50646e+22
-0.87969  1.49992e+22
-0.762385  1.49342e+22
-0.64508  1.48738e+22
-0.527775  1.48199e+22
-0.41047  1.47745e+22
-0.293165  1.4739e+22
-0.17586  1.47148e+22
-0.058555  1.47026e+22
0.05875  1.47027e+22
0.176055  1.4715e+22
0.29336  1.47392e+22
0.410665  1.47748e+22
0.52797  1.482e+22
0.645275  1.48737e+22
0.76258  1.49338e+22
0.879885  1.49981e+22
0.99719  1.50633e+22
1.1145  1.51263e+22
1.2318  1.51832e+22
1.3491  1.52303e+22
1.46641  1.52635e+22
1.58371  1.52789e+22
1.70102  1.52733e+22
1.81832  1.5244e+22
1.93563  1.51892e+22
2.05294  1.5108e+22
2.17024  1.50009e+22
2.28754  1.48693e+22
2.40485  1.47151e+22
2.52216  1.45417e+22
2.63946  1.43526e+22
2.75677  1.41515e+22
2.87407  1.39422e+22
2.99137  1.37278e+22
3.10868  1.35109e+22
3.22599  1.32932e+22
3.34329  1.30758e+22
3.4606  1.28585e+22
3.5779  1.26403e+22
3.69521  1.24202e+22
3.81251  1.21964e+22
3.92982  1.19667e+22
4.04712  1.17302e+22
4.16443  1.14861e+22
4.28173  1.12337e+22
4.39903  1.09739e+22
4.51634  1.07083e+22
4.63364  1.04392e+22
4.75095  1.01693e+22
4.86825  9.90192e+21
4.98556  9.64038e+21
5.10286  9.3883e+21
5.22017  9.14807e+21
5.33748  8.92309e+21
5.45478  8.7148e+21
5.57209  8.52493e+21
5.68939  8.35371e+21
5.8067  8.20136e+21
5.924  8.06728e+21
6.0413  7.95052e+21
6.15861  7.84933e+21
6.27591  7.76173e+21
6.39322  7.68615e+21
6.51052  7.62012e+21
6.62783  7.56148e+21
6.74514  7.50812e+21
6.86244  7.4579e+21
6.97975  7.40846e+21
7.09705  7.35782e+21
7.21436  7.30352e+21
7.33166  7.24311e+21
7.44897  7.17478e+21
7.56627  7.0961e+21
7.68358  7.00501e+21
7.80088  6.89984e+21
7.91819  6.77885e+21
8.03549  6.64128e+21
8.1528  6.48652e+21
8.2701  6.31429e+21
8.38741  6.12561e+21
8.50471  5.92164e+21
8.62202  5.70489e+21
8.73932  5.47746e+21
8.85662  5.24311e+21
8.97393  5.00518e+21
9.09123  4.76759e+21
9.20854  4.53404e+21
9.32584  4.30796e+21
9.44315  4.0921e+21
9.56045  3.88874e+21
9.67776  3.69946e+21
9.79506  3.5245e+21
9.91237  3.36398e+21
10.0297  3.21702e+21
10.147  3.08228e+21
10.2643  2.95811e+21
10.3816  2.84291e+21
10.4989  2.73504e+21
10.6162  2.6332e+21
10.7335  2.53627e+21
10.8508  2.4437e+21
10.9681  2.35499e+21
11.0854  2.2702e+21
11.2027  2.18931e+21
11.32  2.11257e+21
11.4373  2.04014e+21
11.5546  1.97218e+21
11.6719  1.9087e+21
11.7893  1.84975e+21
11.9066  1.79497e+21
12.0239  1.74391e+21
12.1412  1.69656e+21
12.2585  1.65226e+21
12.3758  1.61092e+21
12.4931  1.5723e+21
12.6104  1.53633e+21
12.7277  1.50305e+21
12.845  1.47255e+21
12.9623  1.44488e+21
13.0796  1.42038e+21
13.1969  1.3987e+21
13.3142  1.3801e+21
13.4315  1.364e+21
13.5488  1.35e+21
13.6661  1.33755e+21
13.7834  1.32572e+21
13.9007  1.31356e+21
14.018  1.29988e+21
14.1354  1.28367e+21
14.2527  1.2638e+21
14.37  1.23929e+21
14.4873  1.20941e+21
14.6046  1.17374e+21
14.7219  1.13236e+21
14.8392  1.08575e+21
14.9565  1.03473e+21
15.0738  9.80828e+20
15.1911  9.25632e+20
15.3084  8.71143e+20
15.4257  8.19261e+20
15.543  7.72006e+20
15.6603  7.30858e+20
15.7776  6.9704e+20
15.8949  6.71166e+20
16.0122  6.5338e+20
16.1295  6.43006e+20
16.2468  6.3903e+20
16.3641  6.39923e+20
16.4815  6.43739e+20
16.5988  6.48479e+20
16.7161  6.52021e+20
16.8334  6.52411e+20
16.9507  6.4802e+20
17.068  6.37766e+20
17.1853  6.20952e+20
17.3026  5.97677e+20
17.4199  5.68358e+20
17.5372  5.34041e+20
17.6545  4.96264e+20
17.7718  4.56469e+20
17.8891  4.1621e+20
18.0064  3.77037e+20
18.1237  3.4007e+20
18.241  3.06126e+20
18.3583  2.75788e+20
18.4756  2.49351e+20
18.5929  2.26791e+20
18.7102  2.07975e+20
18.8275  1.9283e+20
18.9449  1.81034e+20
19.0622  1.72324e+20
19.1795  1.6648e+20
19.2968  1.63081e+20
19.4141  1.61845e+20
19.5314  1.62345e+20
19.6487  1.64212e+20
19.766  1.67169e+20
19.8833  1.70837e+20
20.0006  1.7513e+20
20.1179  1.79851e+20
20.2352  1.84948e+20
20.3525  1.90319e+20
20.4698  1.95846e+20
20.5871  2.01451e+20
20.7044  2.06958e+20
20.8217  2.12172e+20
20.939  2.16902e+20
21.0563  2.20928e+20
21.1736  2.24172e+20
21.291  2.26541e+20
21.4083  2.27988e+20
21.5256  2.28361e+20
21.6429  2.27733e+20
21.7602  2.25947e+20
21.8775  2.22947e+20
21.9948  2.18724e+20
22.1121  2.13359e+20
22.2294  2.06931e+20
22.3467  1.99814e+20
22.464  1.92208e+20
22.5813  1.84545e+20
22.6986  1.77189e+20
22.8159  1.70339e+20
22.9332  1.64102e+20
23.0505  1.58406e+20
23.1678  1.53048e+20
23.2851  1.47726e+20
23.4024  1.42103e+20
23.5198  1.35978e+20
23.6371  1.29143e+20
23.7544  1.21695e+20
23.8717  1.13801e+20
23.989  1.05809e+20
24.1063  9.81374e+19
24.2236  9.12743e+19
24.3409  8.56821e+19
24.4582  8.17417e+19
24.5755  7.96872e+19
24.6928  7.96147e+19
24.8101  8.14266e+19
24.9274  8.4817e+19
25.0447  8.9339e+19
25.162  9.43642e+19
25.2793  9.92286e+19
25.3966  1.03185e+20
25.5139  1.05651e+20
25.6312  1.06118e+20
25.7485  1.04344e+20
25.8658  1.00279e+20
25.9832  9.4026e+19
26.1005  8.6063e+19
26.2178  7.68487e+19
26.3351  6.69567e+19
26.4524  5.69934e+19
26.5697  4.75328e+19
26.687  3.90233e+19
26.8043  3.18416e+19
26.9216  2.62187e+19
27.0389  2.22388e+19
27.1562  1.98952e+19
27.2735  1.90058e+19
27.3908  1.92717e+19
27.5081  2.03125e+19
27.6254  2.1672e+19
27.7427  2.29081e+19
27.86  2.36449e+19
27.9773  2.36392e+19
28.0946  2.28175e+19
28.212  2.12968e+19
28.3293  1.93947e+19
28.4466  1.75277e+19
28.5639  1.61968e+19
28.6812  1.58741e+19
28.7985  1.69153e+19
28.9158  1.95278e+19
29.0331  2.37256e+19
29.1504  2.93268e+19
29.2677  3.59958e+19
29.385  4.32514e+19
29.5023  5.05648e+19
29.6196  5.73522e+19
29.7369  6.31559e+19
29.8542  6.75711e+19
29.9715  7.02937e+19
30.0888  7.11883e+19
30.2061  7.02662e+19
30.3234  6.77119e+19
30.4407  6.38023e+19
30.558  5.88882e+19
30.6754  5.33574e+19
30.7927  4.75847e+19
30.91  4.18996e+19
31.0273  3.65851e+19
31.1446  3.17771e+19
31.2619  2.76517e+19
31.3792  2.42584e+19
31.4965  2.1697e+19
31.6138  2.00379e+19
31.7311  1.93471e+19
31.8484  1.96993e+19
31.9657  2.11472e+19
32.083  2.36624e+19
32.2003  2.71549e+19
32.3176  3.14547e+19
32.4349  3.62896e+19
32.5522  4.13806e+19
32.6695  4.63764e+19
32.7868  5.10053e+19
32.9042  5.50134e+19
33.0215  5.82201e+19
33.1388  6.05954e+19
33.2561  6.20652e+19
33.3734  6.27354e+19
33.4907  6.26555e+19
33.608  6.19779e+19
33.7253  6.08236e+19
33.8426  5.92152e+19
33.9599  5.72673e+19
34.0772  5.493e+19
34.1945  5.21954e+19
34.3118  4.90046e+19
34.4291  4.52841e+19
34.5464  4.09938e+19
34.6637  3.61663e+19
34.781  3.09658e+19
34.8983  2.56384e+19
35.0156  2.05439e+19
35.1329  1.61036e+19
35.2503  1.27211e+19
35.3676  1.07097e+19
35.4849  1.02031e+19
35.6022  1.11159e+19
35.7195  1.31327e+19
35.8368  1.57702e+19
35.9541  1.8448e+19
36.0714  2.06265e+19
36.1887  2.18588e+19
36.306  2.20007e+19
36.4233  2.111e+19
36.5406  1.94488e+19
36.6579  1.7414e+19
36.7752  1.54462e+19
36.8925  1.38411e+19
37.0098  1.27197e+19
37.1271  1.20162e+19
37.2444  1.14671e+19
37.3617  1.07685e+19
37.479  9.66508e+18
37.5964  8.04592e+18
37.7137  6.02218e+18
37.831  3.94951e+18
37.9483  2.328e+18
38.0656  1.68749e+18
38.1829  2.46673e+18
38.3002  4.86126e+18
38.4175  8.7805e+18
38.5348  1.38154e+19
38.6521  1.93262e+19
38.7694  2.45731e+19
38.8867  2.88104e+19
39.004  3.14709e+19
39.1213  3.22205e+19
39.2386  3.10461e+19
39.3559  2.81868e+19
39.4732  2.40775e+19
39.5905  1.92632e+19
39.7078  1.43152e+19
39.8251  9.76954e+18
39.9425  6.07217e+18
40.0598  3.551e+18
40.1771  2.41421e+18
40.2944  2.75929e+18
40.4117  4.57365e+18
40.529  7.73003e+18
40.6463  1.2001e+19
40.7636  1.70331e+19
40.8809  2.24056e+19
40.9982  2.76867e+19
41.1155  3.2421e+19
41.2328  3.62591e+19
41.3501  3.89273e+19
41.4674  4.03397e+19
41.5847  4.04971e+19
41.702  3.95263e+19
41.8193  3.76285e+19
41.9366  3.49928e+19
42.0539  3.18416e+19
42.1712  2.83528e+19
42.2885  2.46768e+19
42.4059  2.09677e+19
42.5232  1.73688e+19
42.6405  1.40618e+19
42.7578  1.11711e+19
42.8751  8.8193e+18
42.9924  7.07524e+18
43.1097  5.92926e+18
43.227  5.32045e+18
43.3443  5.18398e+18
43.4616  5.47915e+18
43.5789  6.22747e+18
43.6962  7.55404e+18
43.8135  9.64538e+18
43.9308  1.27333e+19
44.0481  1.6933e+19
44.1654  2.22102e+19
44.2827  2.83205e+19
44.4  3.47526e+19
44.5173  4.08074e+19
44.6347  4.57137e+19
44.752  4.87864e+19
44.8693  4.95061e+19
44.9866  4.7747e+19
45.1039  4.37202e+19
45.2212  3.80092e+19
45.3385  3.1406e+19
45.4558  2.47604e+19
45.5731  1.88245e+19
45.6904  1.40962e+19
45.8077  1.08088e+19
45.925  8.85482e+18
46.0423  7.93885e+18
46.1596  7.63144e+18
46.2769  7.54652e+18
46.3942  7.3674e+18
46.5115  6.9706e+18
46.6288  6.34899e+18
46.7461  5.63269e+18
46.8634  4.98617e+18
46.9808  4.55761e+18
47.0981  4.45666e+18
47.2154  4.70251e+18
47.3327  5.27123e+18
47.45  6.07666e+18
47.5673  7.05396e+18
47.6846  8.14601e+18
47.8019  9.28665e+18
47.9192  1.04194e+19
48.0365  1.14927e+19
48.1538  1.2417e+19
48.2711  1.30997e+19
48.3884  1.3391e+19
48.5057  1.32178e+19
48.623  1.24764e+19
48.7403  1.11892e+19
48.8576  9.45481e+18
48.9749  7.42668e+18
49.0922  5.36273e+18
49.2095  3.56537e+18
49.3269  2.35563e+18
49.4442  2.03238e+18
49.5615  2.8321e+18
49.6788  4.87108e+18
49.7961  8.1352e+18
49.9134  1.2418e+19
50.0307  1.73803e+19
50.148  2.25438e+19
50.2653  2.72978e+19
50.3826  3.10607e+19
50.4999  3.33462e+19
50.6172  3.37945e+19
50.7345  3.23116e+19
50.8518  2.90429e+19
50.9691  2.44313e+19
