#S 1 spectral density
#N 2
#UFWHM 11.7305
#L  abscissas [um]  spectral density
-58.5938  2.27656e+19
-58.4764  2.54078e+19
-58.3591  2.77898e+19
-58.2418  2.96284e+19
-58.1245  3.06426e+19
-58.0072  3.04705e+19
-57.8899  2.88847e+19
-57.7726  2.58496e+19
-57.6553  2.15652e+19
-57.538  1.65195e+19
-57.4207  1.14078e+19
-57.3034  6.97578e+18
-57.1861  3.91912e+18
-57.0688  2.69827e+18
-56.9515  3.46716e+18
-56.8342  6.01785e+18
-56.7169  9.84498e+18
-56.5996  1.42733e+19
-56.4823  1.85471e+19
-56.365  2.2008e+19
-56.2477  2.42315e+19
-56.1303  2.49787e+19
-56.013  2.42653e+19
-55.8957  2.23117e+19
-55.7784  1.94431e+19
-55.6611  1.60341e+19
-55.5438  1.24524e+19
-55.4265  9.01465e+18
-55.3092  6.01955e+18
-55.1919  3.70502e+18
-55.0746  2.25658e+18
-54.9573  1.81598e+18
-54.84  2.44021e+18
-54.7227  4.09296e+18
-54.6054  6.65321e+18
-54.4881  9.8968e+18
-54.3708  1.35327e+19
-54.2535  1.72258e+19
-54.1362  2.06671e+19
-54.0189  2.3593e+19
-53.9016  2.58345e+19
-53.7842  2.72874e+19
-53.6669  2.796e+19
-53.5496  2.78488e+19
-53.4323  2.7055e+19
-53.315  2.56241e+19
-53.1977  2.365e+19
-53.0804  2.12632e+19
-52.9631  1.85628e+19
-52.8458  1.57154e+19
-52.7285  1.29181e+19
-52.6112  1.03558e+19
-52.4939  8.19791e+18
-52.3766  6.58574e+18
-52.2593  5.57647e+18
-52.142  5.1662e+18
-52.0247  5.26735e+18
-51.9074  5.7565e+18
-51.7901  6.48889e+18
-51.6728  7.32067e+18
-51.5555  8.15731e+18
-51.4381  8.95016e+18
-51.3208  9.68765e+18
-51.2035  1.04321e+19
-51.0862  1.12687e+19
-50.9689  1.23225e+19
-50.8516  1.37244e+19
-50.7343  1.55799e+19
-50.617  1.79799e+19
-50.4997  2.09646e+19
-50.3824  2.445e+19
-50.2651  2.83078e+19
-50.1478  3.22303e+19
-50.0305  3.59188e+19
-49.9132  3.88929e+19
-49.7959  4.07805e+19
-49.6786  4.1254e+19
-49.5613  4.01253e+19
-49.444  3.73625e+19
-49.3267  3.31713e+19
-49.2094  2.78948e+19
-49.092  2.20366e+19
-48.9747  1.61501e+19
-48.8574  1.08205e+19
-48.7401  6.53669e+18
-48.6228  3.66654e+18
-48.5055  2.42094e+18
-48.3882  2.82332e+18
-48.2709  4.73679e+18
-48.1536  7.87068e+18
-48.0363  1.18359e+19
-47.919  1.61771e+19
-47.8017  2.04223e+19
-47.6844  2.41764e+19
-47.5671  2.71386e+19
-47.4498  2.91666e+19
-47.3325  3.02059e+19
-47.2152  3.04169e+19
-47.0979  2.99527e+19
-46.9806  2.90557e+19
-46.8633  2.78781e+19
-46.7459  2.65213e+19
-46.6286  2.49808e+19
-46.5113  2.31662e+19
-46.394  2.10261e+19
-46.2767  1.85008e+19
-46.1594  1.5678e+19
-46.0421  1.27916e+19
-45.9248  1.01514e+19
-45.8075  8.12245e+18
-45.6902  7.02753e+18
-45.5729  7.02281e+18
-45.4556  8.07551e+18
-45.3383  9.92398e+18
-45.221  1.21129e+19
-45.1037  1.4151e+19
-44.9864  1.55911e+19
-44.8691  1.61465e+19
-44.7518  1.57894e+19
-44.6345  1.47454e+19
-44.5172  1.33924e+19
-44.3998  1.22091e+19
-44.2825  1.16049e+19
-44.1652  1.18419e+19
-44.0479  1.29363e+19
-43.9306  1.47188e+19
-43.8133  1.68442e+19
-43.696  1.89685e+19
-43.5787  2.0822e+19
-43.4614  2.22881e+19
-43.3441  2.34309e+19
-43.2268  2.44988e+19
-43.1095  2.57724e+19
-42.9922  2.75221e+19
-42.8749  2.98905e+19
-42.7576  3.28326e+19
-42.6403  3.60579e+19
-42.523  3.92129e+19
-42.4057  4.17935e+19
-42.2884  4.33668e+19
-42.171  4.35976e+19
-42.0537  4.23954e+19
-41.9364  3.98111e+19
-41.8191  3.61109e+19
-41.7018  3.17376e+19
-41.5845  2.7175e+19
-41.4672  2.29457e+19
-41.3499  1.94908e+19
-41.2326  1.71456e+19
-41.1153  1.60769e+19
-40.998  1.62663e+19
-40.8807  1.75291e+19
-40.7634  1.94825e+19
-40.6461  2.17108e+19
-40.5288  2.36995e+19
-40.4115  2.50675e+19
-40.2942  2.55776e+19
-40.1769  2.51694e+19
-40.0596  2.40502e+19
-39.9423  2.26364e+19
-39.825  2.14346e+19
-39.7076  2.09571e+19
-39.5903  2.16213e+19
-39.473  2.35928e+19
-39.3557  2.6745e+19
-39.2384  3.07248e+19
-39.1211  3.49526e+19
-39.0038  3.87872e+19
-38.8865  4.16683e+19
-38.7692  4.3266e+19
-38.6519  4.34324e+19
-38.5346  4.23245e+19
-38.4173  4.02619e+19
-38.3  3.7694e+19
-38.1827  3.49887e+19
-38.0654  3.2398e+19
-37.9481  3.00277e+19
-37.8308  2.77765e+19
-37.7135  2.54996e+19
-37.5962  2.30045e+19
-37.4789  2.02176e+19
-37.3615  1.72418e+19
-37.2442  1.43411e+19
-37.1269  1.18977e+19
-37.0096  1.03484e+19
-36.8923  1.00558e+19
-36.775  1.12195e+19
-36.6577  1.38002e+19
-36.5404  1.75446e+19
-36.4231  2.19903e+19
-36.3058  2.65732e+19
-36.1885  3.07372e+19
-36.0712  3.40275e+19
-35.9539  3.61205e+19
-35.8366  3.69091e+19
-35.7193  3.64193e+19
-35.602  3.48411e+19
-35.4847  3.24707e+19
-35.3674  2.96088e+19
-35.2501  2.65957e+19
-35.1328  2.37565e+19
-35.0154  2.14075e+19
-34.8981  1.9815e+19
-34.7808  1.92283e+19
-34.6635  1.97933e+19
-34.5462  2.15616e+19
-34.4289  2.44791e+19
-34.3116  2.82797e+19
-34.1943  3.25694e+19
-34.077  3.68781e+19
-33.9597  4.06392e+19
-33.8424  4.33574e+19
-33.7251  4.45935e+19
-33.6078  4.41631e+19
-33.4905  4.20391e+19
-33.3732  3.84263e+19
-33.2559  3.37209e+19
-33.1386  2.84363e+19
-33.0213  2.31625e+19
-32.904  1.84829e+19
-32.7867  1.48764e+19
-32.6693  1.27289e+19
-32.552  1.22732e+19
-32.4347  1.35865e+19
-32.3174  1.66178e+19
-32.2001  2.11559e+19
-32.0828  2.69075e+19
-31.9655  3.34818e+19
-31.8482  4.04896e+19
-31.7309  4.75242e+19
-31.6136  5.42201e+19
-31.4963  6.02773e+19
-31.379  6.546e+19
-31.2617  6.96621e+19
-31.1444  7.28056e+19
-31.0271  7.4851e+19
-30.9098  7.59141e+19
-30.7925  7.59442e+19
-30.6752  7.50754e+19
-30.5579  7.33618e+19
-30.4406  7.0906e+19
-30.3232  6.7883e+19
-30.2059  6.43923e+19
-30.0886  6.06368e+19
-29.9713  5.68321e+19
-29.854  5.31176e+19
-29.7367  4.95865e+19
-29.6194  4.63513e+19
-29.5021  4.34161e+19
-29.3848  4.07609e+19
-29.2675  3.8363e+19
-29.1502  3.62258e+19
-29.0329  3.44085e+19
-28.9156  3.30298e+19
-28.7983  3.22415e+19
-28.681  3.22831e+19
-28.5637  3.33504e+19
-28.4464  3.56581e+19
-28.3291  3.93166e+19
-28.2118  4.43333e+19
-28.0944  5.06333e+19
-27.9771  5.80019e+19
-27.8598  6.60891e+19
-27.7425  7.45143e+19
-27.6252  8.26778e+19
-27.5079  9.00839e+19
-27.3906  9.61311e+19
-27.2733  1.00333e+20
-27.156  1.02329e+20
-27.0387  1.01846e+20
-26.9214  9.89363e+19
-26.8041  9.38191e+19
-26.6868  8.69382e+19
-26.5695  7.88209e+19
-26.4522  7.01275e+19
-26.3349  6.15432e+19
-26.2176  5.35583e+19
-26.1003  4.65974e+19
-25.983  4.08186e+19
-25.8657  3.62106e+19
-25.7483  3.26414e+19
-25.631  2.98585e+19
-25.5137  2.76177e+19
-25.3964  2.56605e+19
-25.2791  2.3846e+19
-25.1618  2.21168e+19
-25.0445  2.05442e+19
-24.9272  1.92965e+19
-24.8099  1.86542e+19
-24.6926  1.89626e+19
-24.5753  2.0636e+19
-24.458  2.4078e+19
-24.3407  2.97014e+19
-24.2234  3.78162e+19
-24.1061  4.86609e+19
-23.9888  6.22743e+19
-23.8715  7.85235e+19
-23.7542  9.70729e+19
-23.6369  1.17446e+20
-23.5196  1.39015e+20
-23.4023  1.61012e+20
-23.2849  1.82689e+20
-23.1676  2.03345e+20
-23.0503  2.22263e+20
-22.933  2.38964e+20
-22.8157  2.52969e+20
-22.6984  2.6399e+20
-22.5811  2.71916e+20
-22.4638  2.76844e+20
-22.3465  2.78984e+20
-22.2292  2.78837e+20
-22.1119  2.76961e+20
-21.9946  2.74008e+20
-21.8773  2.70659e+20
-21.76  2.67551e+20
-21.6427  2.65107e+20
-21.5254  2.63546e+20
-21.4081  2.62923e+20
-21.2908  2.63111e+20
-21.1735  2.63832e+20
-21.0561  2.64831e+20
-20.9388  2.658e+20
-20.8215  2.666e+20
-20.7042  2.6725e+20
-20.5869  2.67843e+20
-20.4696  2.68523e+20
-20.3523  2.69432e+20
-20.235  2.70666e+20
-20.1177  2.7229e+20
-20.0004  2.74223e+20
-19.8831  2.76152e+20
-19.7658  2.78093e+20
-19.6485  2.7978e+20
-19.5312  2.81155e+20
-19.4139  2.82164e+20
-19.2966  2.82935e+20
-19.1793  2.83598e+20
-19.062  2.84379e+20
-18.9447  2.85518e+20
-18.8274  2.87323e+20
-18.71  2.89989e+20
-18.5927  2.93846e+20
-18.4754  2.9917e+20
-18.3581  3.06088e+20
-18.2408  3.1492e+20
-18.1235  3.25665e+20
-18.0062  3.38364e+20
-17.8889  3.5287e+20
-17.7716  3.68785e+20
-17.6543  3.85949e+20
-17.537  4.0374e+20
-17.4197  4.21848e+20
-17.3024  4.39844e+20
-17.1851  4.57493e+20
-17.0678  4.74635e+20
-16.9505  4.91207e+20
-16.8332  5.07291e+20
-16.7159  5.23058e+20
-16.5986  5.38786e+20
-16.4813  5.54848e+20
-16.364  5.71667e+20
-16.2466  5.89812e+20
-16.1293  6.09647e+20
-16.012  6.32174e+20
-15.8947  6.57918e+20
-15.7774  6.87689e+20
-15.6601  7.22067e+20
-15.5428  7.6155e+20
-15.4255  8.06234e+20
-15.3082  8.56161e+20
-15.1909  9.10691e+20
-15.0736  9.69168e+20
-14.9563  1.03041e+21
-14.839  1.09325e+21
-14.7217  1.15598e+21
-14.6044  1.21743e+21
-14.4871  1.27607e+21
-14.3698  1.33081e+21
-14.2525  1.38052e+21
-14.1352  1.42449e+21
-14.0178  1.46223e+21
-13.9005  1.49358e+21
-13.7832  1.51857e+21
-13.6659  1.53736e+21
-13.5486  1.55061e+21
-13.4313  1.55895e+21
-13.314  1.56308e+21
-13.1967  1.56381e+21
-13.0794  1.56222e+21
-12.9621  1.55905e+21
-12.8448  1.5553e+21
-12.7275  1.55176e+21
-12.6102  1.54944e+21
-12.4929  1.54907e+21
-12.3756  1.55154e+21
-12.2583  1.55777e+21
-12.141  1.56876e+21
-12.0237  1.58551e+21
-11.9064  1.6091e+21
-11.7891  1.64078e+21
-11.6718  1.68183e+21
-11.5544  1.73347e+21
-11.4371  1.79673e+21
-11.3198  1.87256e+21
-11.2025  1.96147e+21
-11.0852  2.06373e+21
-10.9679  2.17906e+21
-10.8506  2.30652e+21
-10.7333  2.4446e+21
-10.616  2.59142e+21
-10.4987  2.74485e+21
-10.3814  2.90192e+21
-10.2641  3.05996e+21
-10.1468  3.21672e+21
-10.0295  3.36992e+21
-9.91217  3.51784e+21
-9.79487  3.65999e+21
-9.67756  3.79631e+21
-9.56026  3.92753e+21
-9.44295  4.05518e+21
-9.32565  4.18174e+21
-9.20834  4.30938e+21
-9.09104  4.44089e+21
-8.97373  4.57847e+21
-8.85643  4.7245e+21
-8.73913  4.87989e+21
-8.62182  5.04546e+21
-8.50452  5.22067e+21
-8.38721  5.40479e+21
-8.26991  5.59528e+21
-8.1526  5.79008e+21
-8.03529  5.98586e+21
-7.91799  6.17983e+21
-7.80069  6.36904e+21
-7.68338  6.55083e+21
-7.56608  6.72368e+21
-7.44877  6.88662e+21
-7.33146  7.03935e+21
-7.21416  7.18253e+21
-7.09685  7.31766e+21
-6.97955  7.44666e+21
-6.86224  7.57189e+21
-6.74494  7.69613e+21
-6.62763  7.82112e+21
-6.51033  7.94958e+21
-6.39302  8.0834e+21
-6.27572  8.22397e+21
-6.15842  8.37246e+21
-6.04111  8.52952e+21
-5.92381  8.69529e+21
-5.8065  8.87007e+21
-5.68919  9.05331e+21
-5.57189  9.24455e+21
-5.45458  9.44325e+21
-5.33728  9.64887e+21
-5.21997  9.86031e+21
-5.10267  1.00771e+22
-4.98536  1.0298e+22
-4.86806  1.05217e+22
-4.75075  1.07468e+22
-4.63345  1.09716e+22
-4.51614  1.11939e+22
-4.39884  1.1411e+22
-4.28154  1.16206e+22
-4.16423  1.18201e+22
-4.04692  1.20062e+22
-3.92962  1.2177e+22
-3.81231  1.23308e+22
-3.69501  1.2466e+22
-3.5777  1.25827e+22
-3.4604  1.26813e+22
-3.34309  1.27632e+22
-3.22579  1.28309e+22
-3.10849  1.28882e+22
-2.99118  1.29388e+22
-2.87387  1.29879e+22
-2.75657  1.30405e+22
-2.63926  1.31017e+22
-2.52196  1.31764e+22
-2.40465  1.32691e+22
-2.28735  1.33829e+22
-2.17005  1.35207e+22
-2.05274  1.36841e+22
-1.93544  1.38728e+22
-1.81813  1.40864e+22
-1.70083  1.43226e+22
-1.58352  1.45783e+22
-1.46622  1.48497e+22
-1.34891  1.51317e+22
-1.2316  1.54191e+22
-1.1143  1.5706e+22
-0.996995  1.59865e+22
-0.87969  1.62547e+22
-0.762385  1.65037e+22
-0.64508  1.67289e+22
-0.527775  1.69248e+22
-0.41047  1.70866e+22
-0.293165  1.72109e+22
-0.17586  1.7295e+22
-0.058555  1.73369e+22
0.05875  1.73355e+22
0.176055  1.7291e+22
0.29336  1.72043e+22
0.410665  1.70776e+22
0.52797  1.69133e+22
0.645275  1.67154e+22
0.76258  1.64884e+22
0.879885  1.62379e+22
0.99719  1.59687e+22
1.1145  1.56873e+22
1.2318  1.53996e+22
1.3491  1.51118e+22
1.46641  1.48294e+22
1.58371  1.45579e+22
1.70102  1.43021e+22
1.81832  1.40658e+22
1.93563  1.38521e+22
2.05294  1.36632e+22
2.17024  1.35e+22
2.28754  1.33623e+22
2.40485  1.32481e+22
2.52216  1.31555e+22
2.63946  1.30806e+22
2.75677  1.3019e+22
2.87407  1.29661e+22
2.99137  1.29165e+22
3.10868  1.28653e+22
3.22599  1.28074e+22
3.34329  1.2739e+22
3.4606  1.26565e+22
3.5779  1.25572e+22
3.69521  1.24397e+22
3.81251  1.23036e+22
3.92982  1.21488e+22
4.04712  1.19769e+22
4.16443  1.17899e+22
4.28173  1.15895e+22
4.39903  1.13789e+22
4.51634  1.11609e+22
4.63364  1.0938e+22
4.75095  1.07125e+22
4.86825  1.04868e+22
4.98556  1.02627e+22
5.10286  1.00418e+22
5.22017  9.82476e+21
5.33748  9.61347e+21
5.45478  9.40817e+21
5.57209  9.20996e+21
5.68939  9.01915e+21
5.8067  8.83647e+21
5.924  8.66223e+21
6.0413  8.49705e+21
6.15861  8.34047e+21
6.27591  8.19223e+21
6.39322  8.052e+21
6.51052  7.91829e+21
6.62783  7.78958e+21
6.74514  7.66419e+21
6.86244  7.54002e+21
6.97975  7.41425e+21
7.09705  7.28485e+21
7.21436  7.14936e+21
7.33166  7.00561e+21
7.44897  6.85276e+21
7.56627  6.68982e+21
7.68358  6.5169e+21
7.80088  6.33513e+21
7.91819  6.14618e+21
8.03549  5.95265e+21
8.1528  5.75749e+21
8.2701  5.56325e+21
8.38741  5.37325e+21
8.50471  5.18982e+21
8.62202  5.0153e+21
8.73932  4.85022e+21
8.85662  4.69535e+21
8.97393  4.54989e+21
9.09123  4.41265e+21
9.20854  4.28157e+21
9.32584  4.15431e+21
9.44315  4.02813e+21
9.56045  3.90067e+21
9.67776  3.76995e+21
9.79506  3.6341e+21
9.91237  3.49255e+21
10.0297  3.34528e+21
10.147  3.19303e+21
10.2643  3.03729e+21
10.3816  2.88014e+21
10.4989  2.72416e+21
10.6162  2.57197e+21
10.7335  2.42615e+21
10.8508  2.28916e+21
10.9681  2.16274e+21
11.0854  2.04852e+21
11.2027  1.94716e+21
11.32  1.859e+21
11.4373  1.78389e+21
11.5546  1.72118e+21
11.6719  1.67001e+21
11.7893  1.62944e+21
11.9066  1.5981e+21
12.0239  1.57465e+21
12.1412  1.5583e+21
12.2585  1.5475e+21
12.3758  1.54148e+21
12.4931  1.53919e+21
12.6104  1.53972e+21
12.7277  1.54218e+21
12.845  1.54579e+21
12.9623  1.54958e+21
13.0796  1.55289e+21
13.1969  1.55446e+21
13.3142  1.5538e+21
13.4315  1.54968e+21
13.5488  1.54136e+21
13.6661  1.52813e+21
13.7834  1.50932e+21
13.9007  1.48443e+21
14.018  1.4532e+21
14.1354  1.41558e+21
14.2527  1.37184e+21
14.37  1.3224e+21
14.4873  1.26797e+21
14.6046  1.2096e+21
14.7219  1.14849e+21
14.8392  1.08608e+21
14.9565  1.02366e+21
15.0738  9.62796e+20
15.1911  9.047e+20
15.3084  8.5047e+20
15.4257  8.00845e+20
15.543  7.56419e+20
15.6603  7.17242e+20
15.7776  6.83134e+20
15.8949  6.53589e+20
16.0122  6.28116e+20
16.1295  6.05847e+20
16.2468  5.86119e+20
16.3641  5.68266e+20
16.4815  5.51642e+20
16.5988  5.35772e+20
16.7161  5.20185e+20
16.8334  5.04581e+20
16.9507  4.88614e+20
17.068  4.72185e+20
17.1853  4.55181e+20
17.3026  4.37671e+20
17.4199  4.19729e+20
17.5372  4.01696e+20
17.6545  3.84017e+20
17.7718  3.67066e+20
17.8891  3.51204e+20
18.0064  3.36937e+20
18.1237  3.24479e+20
18.241  3.13907e+20
18.3583  3.05305e+20
18.4756  2.98601e+20
18.5929  2.93553e+20
18.7102  2.89836e+20
18.8275  2.87368e+20
18.9449  2.85758e+20
19.0622  2.84733e+20
19.1795  2.84088e+20
19.2968  2.83457e+20
19.4141  2.82748e+20
19.5314  2.81742e+20
19.6487  2.80332e+20
19.766  2.78657e+20
19.8833  2.76645e+20
20.0006  2.74628e+20
20.1179  2.72683e+20
20.2352  2.7105e+20
20.3525  2.69741e+20
20.4698  2.68744e+20
20.5871  2.67973e+20
20.7044  2.67321e+20
20.8217  2.66603e+20
20.939  2.65708e+20
21.0563  2.64624e+20
21.1736  2.63522e+20
21.291  2.62701e+20
21.4083  2.62454e+20
21.5256  2.62963e+20
21.6429  2.64476e+20
21.7602  2.6691e+20
21.8775  2.70007e+20
21.9948  2.73328e+20
22.1121  2.76277e+20
22.2294  2.78116e+20
22.3467  2.7831e+20
22.464  2.76092e+20
22.5813  2.71141e+20
22.6986  2.63171e+20
22.8159  2.52143e+20
22.9332  2.38134e+20
23.0505  2.21442e+20
23.1678  2.02492e+20
23.2851  1.81868e+20
23.4024  1.60206e+20
23.5198  1.38289e+20
23.6371  1.16791e+20
23.7544  9.65037e+19
23.8717  7.80525e+19
23.989  6.19123e+19
24.1063  4.84086e+19
24.2236  3.76573e+19
24.3409  2.96159e+19
24.4582  2.40711e+19
24.5755  2.06658e+19
24.6928  1.90284e+19
24.8101  1.87321e+19
24.9274  1.93764e+19
25.0447  2.06134e+19
25.162  2.21732e+19
25.2793  2.38879e+19
25.3966  2.56945e+19
25.5139  2.7649e+19
25.6312  2.99069e+19
25.7485  3.27117e+19
25.8658  3.63359e+19
25.9832  4.09786e+19
26.1005  4.68514e+19
26.2178  5.39086e+19
26.3351  6.19389e+19
26.4524  7.05891e+19
26.5697  7.93037e+19
26.687  8.74254e+19
26.8043  9.43232e+19
26.9216  9.93878e+19
27.0389  1.02219e+20
27.1562  1.02612e+20
27.2735  1.00538e+20
27.3908  9.62278e+19
27.5081  9.01104e+19
27.6254  8.26426e+19
27.7427  7.44322e+19
27.86  6.60124e+19
27.9773  5.79218e+19
28.0946  5.05944e+19
28.212  4.43266e+19
28.3293  3.937e+19
28.4466  3.57653e+19
28.5639  3.35224e+19
28.6812  3.25052e+19
28.7985  3.25101e+19
28.9158  3.33275e+19
29.0331  3.47308e+19
29.1504  3.65622e+19
29.2677  3.8698e+19
29.385  4.10944e+19
29.5023  4.37439e+19
29.6196  4.6663e+19
29.7369  4.98778e+19
29.8542  5.33874e+19
29.9715  5.71065e+19
30.0888  6.09179e+19
30.2061  6.4632e+19
30.3234  6.81077e+19
30.4407  7.1156e+19
30.558  7.35813e+19
30.6754  7.52968e+19
30.7927  7.61244e+19
30.91  7.60351e+19
31.0273  7.4973e+19
31.1446  7.28277e+19
31.2619  6.96279e+19
31.3792  6.53602e+19
31.4965  6.0114e+19
31.6138  5.40264e+19
31.7311  4.72925e+19
31.8484  4.02409e+19
31.9657  3.3252e+19
32.083  2.66977e+19
32.2003  2.09948e+19
32.3176  1.65092e+19
32.4349  1.35331e+19
32.5522  1.22615e+19
32.6695  1.27512e+19
32.7868  1.49212e+19
32.9042  1.85282e+19
33.0215  2.31951e+19
33.1388  2.8425e+19
33.2561  3.36515e+19
33.3734  3.82862e+19
33.4907  4.18262e+19
33.608  4.38928e+19
33.7253  4.42826e+19
33.8426  4.30077e+19
33.9599  4.02986e+19
34.0772  3.65589e+19
34.1945  3.23015e+19
34.3118  2.80735e+19
34.4291  2.4356e+19
34.5464  2.15264e+19
34.6637  1.98232e+19
34.781  1.93302e+19
34.8983  1.99811e+19
35.0156  2.1616e+19
35.1329  2.4003e+19
35.2503  2.6852e+19
35.3676  2.98817e+19
35.4849  3.27217e+19
35.6022  3.50702e+19
35.7195  3.66017e+19
35.8368  3.70507e+19
35.9541  3.6212e+19
36.0714  3.40489e+19
36.1887  3.07254e+19
36.306  2.65103e+19
36.4233  2.18835e+19
36.5406  1.74162e+19
36.6579  1.36726e+19
36.7752  1.10905e+19
36.8925  9.94007e+18
37.0098  1.02457e+19
37.1271  1.18116e+19
37.2444  1.42672e+19
37.3617  1.71931e+19
37.479  2.01943e+19
37.5964  2.30059e+19
37.7137  2.55469e+19
37.831  2.78564e+19
37.9483  3.01597e+19
38.0656  3.2557e+19
38.1829  3.51789e+19
38.3002  3.78939e+19
38.4175  4.04663e+19
38.5348  4.24958e+19
38.6521  4.35633e+19
38.7694  4.33558e+19
38.8867  4.17176e+19
39.004  3.87807e+19
39.1213  3.49013e+19
39.2386  3.06647e+19
39.3559  2.67065e+19
39.4732  2.35851e+19
39.5905  2.1673e+19
39.7078  2.1061e+19
39.8251  2.15717e+19
39.9425  2.28116e+19
40.0598  2.42411e+19
40.1771  2.53566e+19
40.2944  2.57459e+19
40.4117  2.52172e+19
40.529  2.38059e+19
40.6463  2.17887e+19
40.7636  1.95594e+19
40.8809  1.75801e+19
40.9982  1.63475e+19
41.1155  1.61825e+19
41.2328  1.72915e+19
41.3501  1.96708e+19
41.4674  2.31673e+19
41.5847  2.74223e+19
41.702  3.19904e+19
41.8193  3.63578e+19
41.9366  4.00114e+19
42.0539  4.2542e+19
42.1712  4.36902e+19
42.2885  4.33913e+19
42.4059  4.17523e+19
42.5232  3.91144e+19
42.6405  3.59197e+19
42.7578  3.26659e+19
42.8751  2.97273e+19
42.9924  2.73756e+19
43.1097  2.56321e+19
43.227  2.43932e+19
43.3443  2.33516e+19
43.4616  2.22149e+19
43.5789  2.07481e+19
43.6962  1.89017e+19
43.8135  1.67633e+19
43.9308  1.46395e+19
44.0481  1.28674e+19
44.1654  1.17826e+19
44.2827  1.15559e+19
44.4  1.21609e+19
44.5173  1.33405e+19
44.6347  1.46869e+19
44.752  1.57246e+19
44.8693  1.60613e+19
44.9866  1.54713e+19
45.1039  1.40309e+19
45.2212  1.19815e+19
45.3385  9.79561e+18
45.4558  7.99313e+18
45.5731  6.98875e+18
45.6904  7.03764e+18
45.8077  8.19722e+18
45.925  1.02686e+19
46.0423  1.29487e+19
46.1596  1.58604e+19
46.2769  1.86819e+19
46.3942  2.12237e+19
46.5115  2.33583e+19
46.6288  2.51606e+19
46.7461  2.66803e+19
46.8634  2.801e+19
46.9808  2.91657e+19
47.0981  3.00234e+19
47.2154  3.0422e+19
47.3327  3.01546e+19
47.45  2.90406e+19
47.5673  2.69675e+19
47.6846  2.39686e+19
47.8019  2.01821e+19
47.9192  1.59402e+19
48.0365  1.16265e+19
48.1538  7.70416e+18
48.2711  4.62641e+18
48.3884  2.78185e+18
48.5057  2.44796e+18
48.623  3.76341e+18
48.7403  6.68525e+18
48.8576  1.10201e+19
48.9749  1.63856e+19
49.0922  2.22874e+19
49.2095  2.81382e+19
49.3269  3.34157e+19
49.4442  3.75836e+19
49.5615  4.03126e+19
49.6788  4.13884e+19
49.7961  4.08786e+19
49.9134  3.8913e+19
50.0307  3.58846e+19
50.148  3.21984e+19
50.2653  2.82373e+19
50.3826  2.43742e+19
50.4999  2.08735e+19
50.6172  1.78951e+19
50.7345  1.55e+19
50.8518  1.36454e+19
