#S 1 spectral density
#N 2
#UFWHM 36.8338
#L  abscissas [um]  spectral density
-58.5938  2.57039e+20
-58.4764  2.4366e+20
-58.3591  2.30631e+20
-58.2418  2.18939e+20
-58.1245  2.09359e+20
-58.0072  2.02422e+20
-57.8899  1.98318e+20
-57.7726  1.97159e+20
-57.6553  1.98876e+20
-57.538  2.03305e+20
-57.4207  2.10229e+20
-57.3034  2.19418e+20
-57.1861  2.30532e+20
-57.0688  2.43047e+20
-56.9515  2.56409e+20
-56.8342  2.69952e+20
-56.7169  2.83024e+20
-56.5996  2.9496e+20
-56.4823  3.05325e+20
-56.365  3.13856e+20
-56.2477  3.20372e+20
-56.1303  3.25037e+20
-56.013  3.27984e+20
-55.8957  3.29409e+20
-55.7784  3.29334e+20
-55.6611  3.27849e+20
-55.5438  3.24904e+20
-55.4265  3.20306e+20
-55.3092  3.14005e+20
-55.1919  3.06002e+20
-55.0746  2.96399e+20
-54.9573  2.85536e+20
-54.84  2.73823e+20
-54.7227  2.61749e+20
-54.6054  2.49921e+20
-54.4881  2.38884e+20
-54.3708  2.29209e+20
-54.2535  2.21224e+20
-54.1362  2.15312e+20
-54.0189  2.11774e+20
-53.9016  2.10765e+20
-53.7842  2.12355e+20
-53.6669  2.16594e+20
-53.5496  2.23205e+20
-53.4323  2.31874e+20
-53.315  2.42069e+20
-53.1977  2.53132e+20
-53.0804  2.64378e+20
-52.9631  2.74954e+20
-52.8458  2.84116e+20
-52.7285  2.91222e+20
-52.6112  2.95792e+20
-52.4939  2.97551e+20
-52.3766  2.96496e+20
-52.2593  2.92791e+20
-52.142  2.86924e+20
-52.0247  2.79521e+20
-51.9074  2.71253e+20
-51.7901  2.62987e+20
-51.6728  2.55542e+20
-51.5555  2.49513e+20
-51.4381  2.45445e+20
-51.3208  2.43677e+20
-51.2035  2.4409e+20
-51.0862  2.4654e+20
-50.9689  2.50426e+20
-50.8516  2.55106e+20
-50.7343  2.59884e+20
-50.617  2.63989e+20
-50.4997  2.66743e+20
-50.3824  2.67644e+20
-50.2651  2.66284e+20
-50.1478  2.62617e+20
-50.0305  2.56585e+20
-49.9132  2.48565e+20
-49.7959  2.38826e+20
-49.6786  2.27898e+20
-49.5613  2.16435e+20
-49.444  2.051e+20
-49.3267  1.94479e+20
-49.2094  1.85229e+20
-49.092  1.77931e+20
-48.9747  1.72912e+20
-48.8574  1.70358e+20
-48.7401  1.70382e+20
-48.6228  1.72734e+20
-48.5055  1.77237e+20
-48.3882  1.83389e+20
-48.2709  1.90701e+20
-48.1536  1.9854e+20
-48.0363  2.06307e+20
-47.919  2.13365e+20
-47.8017  2.19194e+20
-47.6844  2.23327e+20
-47.5671  2.25578e+20
-47.4498  2.25801e+20
-47.3325  2.24102e+20
-47.2152  2.20793e+20
-47.0979  2.16204e+20
-46.9806  2.10841e+20
-46.8633  2.05163e+20
-46.7459  1.99432e+20
-46.6286  1.93894e+20
-46.5113  1.88621e+20
-46.394  1.83724e+20
-46.2767  1.79053e+20
-46.1594  1.74584e+20
-46.0421  1.70415e+20
-45.9248  1.66612e+20
-45.8075  1.63265e+20
-45.6902  1.60517e+20
-45.5729  1.58325e+20
-45.4556  1.5664e+20
-45.3383  1.5522e+20
-45.221  1.53848e+20
-45.1037  1.52207e+20
-44.9864  1.50094e+20
-44.8691  1.47653e+20
-44.7518  1.45181e+20
-44.6345  1.43117e+20
-44.5172  1.42114e+20
-44.3998  1.42815e+20
-44.2825  1.45608e+20
-44.1652  1.50729e+20
-44.0479  1.57981e+20
-43.9306  1.66849e+20
-43.8133  1.7664e+20
-43.696  1.86377e+20
-43.5787  1.95247e+20
-43.4614  2.02478e+20
-43.3441  2.07607e+20
-43.2268  2.10362e+20
-43.1095  2.10763e+20
-42.9922  2.08985e+20
-42.8749  2.05351e+20
-42.7576  2.0014e+20
-42.6403  1.93671e+20
-42.523  1.86261e+20
-42.4057  1.78169e+20
-42.2884  1.69768e+20
-42.171  1.61411e+20
-42.0537  1.53398e+20
-41.9364  1.4615e+20
-41.8191  1.40006e+20
-41.7018  1.35321e+20
-41.5845  1.3225e+20
-41.4672  1.30887e+20
-41.3499  1.31226e+20
-41.2326  1.33144e+20
-41.1153  1.36421e+20
-40.998  1.40767e+20
-40.8807  1.45832e+20
-40.7634  1.51282e+20
-40.6461  1.56747e+20
-40.5288  1.61928e+20
-40.4115  1.66549e+20
-40.2942  1.70443e+20
-40.1769  1.73623e+20
-40.0596  1.762e+20
-39.9423  1.78415e+20
-39.825  1.8051e+20
-39.7076  1.82714e+20
-39.5903  1.852e+20
-39.473  1.88002e+20
-39.3557  1.90943e+20
-39.2384  1.93785e+20
-39.1211  1.96176e+20
-39.0038  1.97747e+20
-38.8865  1.98351e+20
-38.7692  1.97948e+20
-38.6519  1.96699e+20
-38.5346  1.94921e+20
-38.4173  1.93043e+20
-38.3  1.91454e+20
-38.1827  1.90417e+20
-38.0654  1.90002e+20
-37.9481  1.90098e+20
-37.8308  1.90431e+20
-37.7135  1.9068e+20
-37.5962  1.90615e+20
-37.4789  1.90108e+20
-37.3615  1.89238e+20
-37.2442  1.88368e+20
-37.1269  1.87917e+20
-37.0096  1.88485e+20
-36.8923  1.90477e+20
-36.775  1.94196e+20
-36.6577  1.99706e+20
-36.5404  2.06864e+20
-36.4231  2.15302e+20
-36.3058  2.24576e+20
-36.1885  2.34214e+20
-36.0712  2.43814e+20
-35.9539  2.53165e+20
-35.8366  2.621e+20
-35.7193  2.70634e+20
-35.602  2.78747e+20
-35.4847  2.86609e+20
-35.3674  2.94243e+20
-35.2501  3.01735e+20
-35.1328  3.09034e+20
-35.0154  3.16174e+20
-34.8981  3.23205e+20
-34.7808  3.3025e+20
-34.6635  3.37409e+20
-34.5462  3.44862e+20
-34.4289  3.52822e+20
-34.3116  3.61307e+20
-34.1943  3.7047e+20
-34.077  3.80237e+20
-33.9597  3.90479e+20
-33.8424  4.01035e+20
-33.7251  4.11753e+20
-33.6078  4.22418e+20
-33.4905  4.32958e+20
-33.3732  4.43277e+20
-33.2559  4.53389e+20
-33.1386  4.63292e+20
-33.0213  4.73114e+20
-32.904  4.83012e+20
-32.7867  4.93056e+20
-32.6693  5.03374e+20
-32.552  5.14036e+20
-32.4347  5.25171e+20
-32.3174  5.36868e+20
-32.2001  5.48993e+20
-32.0828  5.61564e+20
-31.9655  5.7428e+20
-31.8482  5.86944e+20
-31.7309  5.99263e+20
-31.6136  6.10832e+20
-31.4963  6.21387e+20
-31.379  6.30523e+20
-31.2617  6.38097e+20
-31.1444  6.43943e+20
-31.0271  6.48076e+20
-30.9098  6.50486e+20
-30.7925  6.51521e+20
-30.6752  6.51513e+20
-30.5579  6.50972e+20
-30.4406  6.50421e+20
-30.3232  6.50451e+20
-30.2059  6.52002e+20
-30.0886  6.55789e+20
-29.9713  6.6251e+20
-29.854  6.72929e+20
-29.7367  6.87607e+20
-29.6194  7.06788e+20
-29.5021  7.30563e+20
-29.3848  7.58806e+20
-29.2675  7.90859e+20
-29.1502  8.25968e+20
-29.0329  8.63054e+20
-28.9156  9.00845e+20
-28.7983  9.38003e+20
-28.681  9.73052e+20
-28.5637  1.00475e+21
-28.4464  1.03179e+21
-28.3291  1.05339e+21
-28.2118  1.06907e+21
-28.0944  1.07865e+21
-27.9771  1.08252e+21
-27.8598  1.08135e+21
-27.7425  1.07657e+21
-27.6252  1.06952e+21
-27.5079  1.06195e+21
-27.3906  1.05564e+21
-27.2733  1.05221e+21
-27.156  1.05315e+21
-27.0387  1.05967e+21
-26.9214  1.0726e+21
-26.8041  1.09229e+21
-26.6868  1.11861e+21
-26.5695  1.15113e+21
-26.4522  1.1887e+21
-26.3349  1.23025e+21
-26.2176  1.27394e+21
-26.1003  1.31824e+21
-25.983  1.36129e+21
-25.8657  1.40156e+21
-25.7483  1.4377e+21
-25.631  1.46865e+21
-25.5137  1.49438e+21
-25.3964  1.51469e+21
-25.2791  1.53014e+21
-25.1618  1.54174e+21
-25.0445  1.55076e+21
-24.9272  1.55845e+21
-24.8099  1.56615e+21
-24.6926  1.57517e+21
-24.5753  1.58645e+21
-24.458  1.60057e+21
-24.3407  1.61774e+21
-24.2234  1.63797e+21
-24.1061  1.66071e+21
-23.9888  1.68514e+21
-23.8715  1.71031e+21
-23.7542  1.73502e+21
-23.6369  1.7583e+21
-23.5196  1.77929e+21
-23.4023  1.7972e+21
-23.2849  1.81205e+21
-23.1676  1.82385e+21
-23.0503  1.83363e+21
-22.933  1.84212e+21
-22.8157  1.85084e+21
-22.6984  1.86129e+21
-22.5811  1.87508e+21
-22.4638  1.89366e+21
-22.3465  1.91823e+21
-22.2292  1.94986e+21
-22.1119  1.98889e+21
-21.9946  2.03523e+21
-21.8773  2.08828e+21
-21.76  2.14661e+21
-21.6427  2.20873e+21
-21.5254  2.2722e+21
-21.4081  2.3346e+21
-21.2908  2.39311e+21
-21.1735  2.44536e+21
-21.0561  2.48916e+21
-20.9388  2.52295e+21
-20.8215  2.54659e+21
-20.7042  2.55968e+21
-20.5869  2.56368e+21
-20.4696  2.56042e+21
-20.3523  2.55237e+21
-20.235  2.54239e+21
-20.1177  2.53352e+21
-20.0004  2.52856e+21
-19.8831  2.53024e+21
-19.7658  2.54015e+21
-19.6485  2.55972e+21
-19.5312  2.58918e+21
-19.4139  2.62835e+21
-19.2966  2.67569e+21
-19.1793  2.72953e+21
-19.062  2.78729e+21
-18.9447  2.84622e+21
-18.8274  2.9032e+21
-18.71  2.95577e+21
-18.5927  3.0016e+21
-18.4754  3.03916e+21
-18.3581  3.0679e+21
-18.2408  3.08775e+21
-18.1235  3.09981e+21
-18.0062  3.10581e+21
-17.8889  3.10814e+21
-17.7716  3.10942e+21
-17.6543  3.1121e+21
-17.537  3.11904e+21
-17.4197  3.13221e+21
-17.3024  3.15323e+21
-17.1851  3.18289e+21
-17.0678  3.22127e+21
-16.9505  3.26802e+21
-16.8332  3.32169e+21
-16.7159  3.38038e+21
-16.5986  3.44166e+21
-16.4813  3.5028e+21
-16.364  3.56123e+21
-16.2466  3.61455e+21
-16.1293  3.66106e+21
-16.012  3.69886e+21
-15.8947  3.72781e+21
-15.7774  3.74792e+21
-15.6601  3.75998e+21
-15.5428  3.76568e+21
-15.4255  3.76677e+21
-15.3082  3.76531e+21
-15.1909  3.76393e+21
-15.0736  3.76414e+21
-14.9563  3.76794e+21
-14.839  3.77641e+21
-14.7217  3.79053e+21
-14.6044  3.81027e+21
-14.4871  3.83544e+21
-14.3698  3.86528e+21
-14.2525  3.89865e+21
-14.1352  3.93392e+21
-14.0178  3.97009e+21
-13.9005  4.0056e+21
-13.7832  4.03931e+21
-13.6659  4.07062e+21
-13.5486  4.09908e+21
-13.4313  4.12485e+21
-13.314  4.14847e+21
-13.1967  4.17112e+21
-13.0794  4.19408e+21
-12.9621  4.21845e+21
-12.8448  4.24591e+21
-12.7275  4.27727e+21
-12.6102  4.31354e+21
-12.4929  4.35479e+21
-12.3756  4.40058e+21
-12.2583  4.45031e+21
-12.141  4.50267e+21
-12.0237  4.55588e+21
-11.9064  4.60788e+21
-11.7891  4.65651e+21
-11.6718  4.69988e+21
-11.5544  4.7365e+21
-11.4371  4.76496e+21
-11.3198  4.78457e+21
-11.2025  4.79555e+21
-11.0852  4.7985e+21
-10.9679  4.79461e+21
-10.8506  4.78594e+21
-10.7333  4.77438e+21
-10.616  4.7622e+21
-10.4987  4.75214e+21
-10.3814  4.74577e+21
-10.2641  4.7452e+21
-10.1468  4.7517e+21
-10.0295  4.7659e+21
-9.91217  4.78808e+21
-9.79487  4.81786e+21
-9.67756  4.85452e+21
-9.56026  4.89667e+21
-9.44295  4.94258e+21
-9.32565  4.99117e+21
-9.20834  5.04031e+21
-9.09104  5.08884e+21
-8.97373  5.13542e+21
-8.85643  5.17906e+21
-8.73913  5.21954e+21
-8.62182  5.25636e+21
-8.50452  5.2899e+21
-8.38721  5.32078e+21
-8.26991  5.34917e+21
-8.1526  5.37594e+21
-8.03529  5.40134e+21
-7.91799  5.42582e+21
-7.80069  5.44942e+21
-7.68338  5.47194e+21
-7.56608  5.49288e+21
-7.44877  5.51215e+21
-7.33146  5.52896e+21
-7.21416  5.54269e+21
-7.09685  5.55305e+21
-6.97955  5.5598e+21
-6.86224  5.56322e+21
-6.74494  5.56328e+21
-6.62763  5.56068e+21
-6.51033  5.55643e+21
-6.39302  5.55166e+21
-6.27572  5.54756e+21
-6.15842  5.54564e+21
-6.04111  5.54706e+21
-5.92381  5.55306e+21
-5.8065  5.56471e+21
-5.68919  5.58235e+21
-5.57189  5.60629e+21
-5.45458  5.63636e+21
-5.33728  5.67164e+21
-5.21997  5.71134e+21
-5.10267  5.7538e+21
-4.98536  5.79783e+21
-4.86806  5.84144e+21
-4.75075  5.88282e+21
-4.63345  5.92086e+21
-4.51614  5.95391e+21
-4.39884  5.981e+21
-4.28154  6.00138e+21
-4.16423  6.01478e+21
-4.04692  6.02148e+21
-3.92962  6.02195e+21
-3.81231  6.01706e+21
-3.69501  6.00806e+21
-3.5777  5.99614e+21
-3.4604  5.98261e+21
-3.34309  5.96861e+21
-3.22579  5.95532e+21
-3.10849  5.94356e+21
-2.99118  5.93381e+21
-2.87387  5.9264e+21
-2.75657  5.9216e+21
-2.63926  5.91891e+21
-2.52196  5.91819e+21
-2.40465  5.91913e+21
-2.28735  5.92111e+21
-2.17005  5.92415e+21
-2.05274  5.92741e+21
-1.93544  5.93137e+21
-1.81813  5.93568e+21
-1.70083  5.94078e+21
-1.58352  5.94671e+21
-1.46622  5.95399e+21
-1.34891  5.9628e+21
-1.2316  5.97344e+21
-1.1143  5.98571e+21
-0.996995  5.99975e+21
-0.87969  6.01485e+21
-0.762385  6.03072e+21
-0.64508  6.04617e+21
-0.527775  6.06081e+21
-0.41047  6.07357e+21
-0.293165  6.08396e+21
-0.17586  6.09106e+21
-0.058555  6.09472e+21
0.05875  6.09465e+21
0.176055  6.09087e+21
0.29336  6.0837e+21
0.410665  6.07326e+21
0.52797  6.06044e+21
0.645275  6.04588e+21
0.76258  6.03049e+21
0.879885  6.01486e+21
0.99719  5.99996e+21
1.1145  5.98635e+21
1.2318  5.97424e+21
1.3491  5.96397e+21
1.46641  5.95551e+21
1.58371  5.94854e+21
1.70102  5.943e+21
1.81832  5.93829e+21
1.93563  5.93431e+21
2.05294  5.93062e+21
2.17024  5.92733e+21
2.28754  5.9247e+21
2.40485  5.92278e+21
2.52216  5.92218e+21
2.63946  5.92283e+21
2.75677  5.92568e+21
2.87407  5.93075e+21
2.99137  5.93831e+21
3.10868  5.94819e+21
3.22599  5.96013e+21
3.34329  5.97361e+21
3.4606  5.98786e+21
3.5779  6.00143e+21
3.69521  6.01367e+21
3.81251  6.02294e+21
3.92982  6.02799e+21
4.04712  6.02763e+21
4.16443  6.02108e+21
4.28173  6.00775e+21
4.39903  5.9874e+21
4.51634  5.96031e+21
4.63364  5.92736e+21
4.75095  5.88926e+21
4.86825  5.84764e+21
4.98556  5.80412e+21
5.10286  5.76003e+21
5.22017  5.71754e+21
5.33748  5.67783e+21
5.45478  5.64262e+21
5.57209  5.61283e+21
5.68939  5.58892e+21
5.8067  5.57167e+21
5.924  5.5604e+21
6.0413  5.55465e+21
6.15861  5.55356e+21
6.27591  5.55599e+21
6.39322  5.56061e+21
6.51052  5.56587e+21
6.62783  5.57052e+21
6.74514  5.57334e+21
6.86244  5.57352e+21
6.97975  5.57043e+21
7.09705  5.56384e+21
7.21436  5.55354e+21
7.33166  5.53964e+21
7.44897  5.52293e+21
7.56627  5.50366e+21
7.68358  5.48244e+21
7.80088  5.45986e+21
7.91819  5.43614e+21
8.03549  5.41162e+21
8.1528  5.3863e+21
8.2701  5.35943e+21
8.38741  5.33111e+21
8.50471  5.30045e+21
8.62202  5.26701e+21
8.73932  5.23039e+21
8.85662  5.19029e+21
8.97393  5.14694e+21
9.09123  5.10063e+21
9.20854  5.05235e+21
9.32584  5.00356e+21
9.44315  4.9553e+21
9.56045  4.90945e+21
9.67776  4.86764e+21
9.79506  4.83109e+21
9.91237  4.80149e+21
10.0297  4.77933e+21
10.147  4.76521e+21
10.2643  4.75889e+21
10.3816  4.75934e+21
10.4989  4.76578e+21
10.6162  4.77592e+21
10.7335  4.78798e+21
10.8508  4.7994e+21
10.9681  4.80811e+21
11.0854  4.8121e+21
11.2027  4.80926e+21
11.32  4.79817e+21
11.4373  4.7784e+21
11.5546  4.74996e+21
11.6719  4.71338e+21
11.7893  4.66999e+21
11.9066  4.62131e+21
12.0239  4.5692e+21
12.1412  4.51608e+21
12.2585  4.46373e+21
12.3758  4.41383e+21
12.4931  4.36795e+21
12.6104  4.32667e+21
12.7277  4.29052e+21
12.845  4.25926e+21
12.9623  4.23184e+21
13.0796  4.20746e+21
13.1969  4.18465e+21
13.3142  4.1621e+21
13.4315  4.13852e+21
13.5488  4.11292e+21
13.6661  4.0847e+21
13.7834  4.05352e+21
13.9007  4.01989e+21
14.018  3.98469e+21
14.1354  3.94867e+21
14.2527  3.91336e+21
14.37  3.88019e+21
14.4873  3.85041e+21
14.6046  3.82532e+21
14.7219  3.80562e+21
14.8392  3.79159e+21
14.9565  3.78303e+21
15.0738  3.7792e+21
15.1911  3.77888e+21
15.3084  3.78034e+21
15.4257  3.7816e+21
15.543  3.78036e+21
15.6603  3.77456e+21
15.7776  3.7624e+21
15.8949  3.74235e+21
16.0122  3.71317e+21
16.1295  3.67513e+21
16.2468  3.62871e+21
16.3641  3.57535e+21
16.4815  3.51695e+21
16.5988  3.45573e+21
16.7161  3.39462e+21
16.8334  3.33613e+21
16.9507  3.28264e+21
17.068  3.236e+21
17.1853  3.19783e+21
17.3026  3.16832e+21
17.4199  3.14758e+21
17.5372  3.13476e+21
17.6545  3.12803e+21
17.7718  3.12537e+21
17.8891  3.12423e+21
18.0064  3.12191e+21
18.1237  3.11584e+21
18.241  3.10365e+21
18.3583  3.08367e+21
18.4756  3.05474e+21
18.5929  3.0169e+21
18.7102  2.97087e+21
18.8275  2.91806e+21
18.9449  2.86087e+21
19.0622  2.80181e+21
19.1795  2.744e+21
19.2968  2.69013e+21
19.4141  2.64277e+21
19.5314  2.60374e+21
19.6487  2.5744e+21
19.766  2.55503e+21
19.8833  2.54523e+21
20.0006  2.54386e+21
20.1179  2.54894e+21
20.2352  2.5579e+21
20.3525  2.56788e+21
20.4698  2.57582e+21
20.5871  2.57903e+21
20.7044  2.57472e+21
20.8217  2.56132e+21
20.939  2.53755e+21
21.0563  2.50319e+21
21.1736  2.45904e+21
21.291  2.40632e+21
21.4083  2.34751e+21
21.5256  2.28491e+21
21.6429  2.22119e+21
21.7602  2.15896e+21
21.8775  2.10047e+21
21.9948  2.04746e+21
22.1121  2.00116e+21
22.2294  1.96231e+21
22.3467  1.93087e+21
22.464  1.90639e+21
22.5813  1.88796e+21
22.6986  1.87425e+21
22.8159  1.86389e+21
22.9332  1.85518e+21
23.0505  1.84664e+21
23.1678  1.83685e+21
23.2851  1.82489e+21
23.4024  1.80996e+21
23.5198  1.79174e+21
23.6371  1.77067e+21
23.7544  1.7471e+21
23.8717  1.7223e+21
23.989  1.69694e+21
24.1063  1.67244e+21
24.2236  1.64967e+21
24.3409  1.62951e+21
24.4582  1.61235e+21
24.5755  1.59829e+21
24.6928  1.58716e+21
24.8101  1.57832e+21
24.9274  1.57066e+21
25.0447  1.56299e+21
25.162  1.55391e+21
25.2793  1.54218e+21
25.3966  1.52648e+21
25.5139  1.50598e+21
25.6312  1.48006e+21
25.7485  1.44858e+21
25.8658  1.41214e+21
25.9832  1.37143e+21
26.1005  1.32814e+21
26.2178  1.28353e+21
26.3351  1.23956e+21
26.4524  1.19793e+21
26.5697  1.16021e+21
26.687  1.12775e+21
26.8043  1.10151e+21
26.9216  1.08195e+21
27.0389  1.06925e+21
27.1562  1.06291e+21
27.2735  1.06219e+21
27.3908  1.06578e+21
27.5081  1.07228e+21
27.6254  1.07994e+21
27.7427  1.08698e+21
27.86  1.09174e+21
27.9773  1.09273e+21
28.0946  1.08868e+21
28.212  1.07877e+21
28.3293  1.06278e+21
28.4466  1.04073e+21
28.5639  1.0133e+21
28.6812  9.81185e+20
28.7985  9.45757e+20
28.9158  9.08283e+20
29.0331  8.70226e+20
29.1504  8.32936e+20
29.2677  7.97638e+20
29.385  7.65487e+20
29.5023  7.37295e+20
29.6196  7.1353e+20
29.7369  6.94377e+20
29.8542  6.79758e+20
29.9715  6.69389e+20
30.0888  6.62737e+20
30.2061  6.59072e+20
30.3234  6.57585e+20
30.4407  6.5749e+20
30.558  6.58038e+20
30.6754  6.58548e+20
30.7927  6.58519e+20
30.91  6.5733e+20
31.0273  6.54764e+20
31.1446  6.50522e+20
31.2619  6.4449e+20
31.3792  6.36809e+20
31.4965  6.27536e+20
31.6138  6.16838e+20
31.7311  6.05188e+20
31.8484  5.92799e+20
31.9657  5.80092e+20
32.083  5.67284e+20
32.2003  5.54719e+20
32.3176  5.42578e+20
32.4349  5.3087e+20
32.5522  5.19693e+20
32.6695  5.08975e+20
32.7868  4.98601e+20
32.9042  4.88498e+20
33.0215  4.78504e+20
33.1388  4.68561e+20
33.2561  4.58529e+20
33.3734  4.48292e+20
33.4907  4.37829e+20
33.608  4.27117e+20
33.7253  4.16298e+20
33.8426  4.05478e+20
33.9599  3.94762e+20
34.0772  3.84417e+20
34.1945  3.74559e+20
34.3118  3.65352e+20
34.4291  3.56738e+20
34.5464  3.48719e+20
34.6637  3.41142e+20
34.781  3.33894e+20
34.8983  3.26773e+20
35.0156  3.19631e+20
35.1329  3.12353e+20
35.2503  3.04911e+20
35.3676  2.97316e+20
35.4849  2.89545e+20
35.6022  2.81495e+20
35.7195  2.73213e+20
35.8368  2.64557e+20
35.9541  2.55462e+20
36.0714  2.46033e+20
36.1887  2.36325e+20
36.306  2.26605e+20
36.4233  2.17327e+20
36.5406  2.08885e+20
36.6579  2.01785e+20
36.7752  1.963e+20
36.8925  1.9265e+20
37.0098  1.90731e+20
37.1271  1.9021e+20
37.2444  1.90663e+20
37.3617  1.91526e+20
37.479  1.92319e+20
37.5964  1.92769e+20
37.7137  1.92717e+20
37.831  1.92331e+20
37.9483  1.91847e+20
38.0656  1.91601e+20
38.1829  1.91852e+20
38.3002  1.92713e+20
38.4175  1.94153e+20
38.5348  1.95869e+20
38.6521  1.97489e+20
38.7694  1.98611e+20
38.8867  1.98914e+20
39.004  1.98247e+20
39.1213  1.96583e+20
39.2386  1.94189e+20
39.3559  1.91351e+20
39.4732  1.88432e+20
39.5905  1.85692e+20
39.7078  1.83257e+20
39.8251  1.81063e+20
39.9425  1.78993e+20
40.0598  1.76804e+20
40.1771  1.74206e+20
40.2944  1.70962e+20
40.4117  1.67014e+20
40.529  1.62347e+20
40.6463  1.57111e+20
40.7636  1.51605e+20
40.8809  1.46126e+20
40.9982  1.41028e+20
41.1155  1.36711e+20
41.2328  1.33462e+20
41.3501  1.31592e+20
41.4674  1.31288e+20
41.5847  1.32706e+20
41.702  1.35844e+20
41.8193  1.4058e+20
41.9366  1.46732e+20
42.0539  1.53969e+20
42.1712  1.61925e+20
42.2885  1.70245e+20
42.4059  1.78504e+20
42.5232  1.86454e+20
42.6405  1.93693e+20
42.7578  1.99997e+20
42.8751  2.05048e+20
42.9924  2.08494e+20
43.1097  2.10113e+20
43.227  2.09569e+20
43.3443  2.06679e+20
43.4616  2.01491e+20
43.5789  1.94198e+20
43.6962  1.85362e+20
43.8135  1.75624e+20
43.9308  1.6596e+20
44.0481  1.57182e+20
44.1654  1.50027e+20
44.2827  1.4505e+20
44.4  1.42374e+20
44.5173  1.41764e+20
44.6347  1.42797e+20
44.752  1.44924e+20
44.8693  1.47395e+20
44.9866  1.49758e+20
45.1039  1.51779e+20
45.2212  1.53358e+20
45.3385  1.54688e+20
45.4558  1.56044e+20
45.5731  1.57707e+20
45.6904  1.59856e+20
45.8077  1.62624e+20
45.925  1.65953e+20
46.0423  1.69791e+20
46.1596  1.73955e+20
46.2769  1.78408e+20
46.3942  1.83132e+20
46.5115  1.88058e+20
46.6288  1.93342e+20
46.7461  1.98877e+20
46.8634  2.04582e+20
46.9808  2.10296e+20
47.0981  2.15584e+20
47.2154  2.20095e+20
47.3327  2.2328e+20
47.45  2.24924e+20
47.5673  2.24624e+20
47.6846  2.22255e+20
47.8019  2.18029e+20
47.9192  2.12175e+20
48.0365  2.05096e+20
48.1538  1.97379e+20
48.2711  1.89578e+20
48.3884  1.8236e+20
48.5057  1.76314e+20
48.623  1.7196e+20
48.7403  1.69715e+20
48.8576  1.69814e+20
48.9749  1.7248e+20
49.0922  1.77611e+20
49.2095  1.85017e+20
49.3269  1.94287e+20
49.4442  2.0496e+20
49.5615  2.16258e+20
49.6788  2.27659e+20
49.7961  2.38487e+20
49.9134  2.48132e+20
50.0307  2.5608e+20
50.148  2.61927e+20
50.2653  2.65528e+20
50.3826  2.66766e+20
50.4999  2.65823e+20
50.6172  2.6302e+20
50.7345  2.58944e+20
50.8518  2.54199e+20
