#S 1 spectral density
#N 2
#UFWHM 13.7247
#L  abscissas [um]  spectral density
-58.5938  9.66525e+18
-58.4764  9.97317e+18
-58.3591  1.00084e+19
-58.2418  9.84102e+18
-58.1245  9.52925e+18
-58.0072  9.10974e+18
-57.8899  8.61527e+18
-57.7726  8.08781e+18
-57.6553  7.61922e+18
-57.538  7.33383e+18
-57.4207  7.37642e+18
-57.3034  7.86801e+18
-57.1861  8.85307e+18
-57.0688  1.02416e+19
-56.9515  1.18322e+19
-56.8342  1.33123e+19
-56.7169  1.43776e+19
-56.5996  1.47195e+19
-56.4823  1.42193e+19
-56.365  1.29109e+19
-56.2477  1.09777e+19
-56.1303  8.77783e+18
-56.013  6.70499e+18
-55.8957  5.09589e+18
-55.7784  4.17092e+18
-55.6611  3.98983e+18
-55.5438  4.44142e+18
-55.4265  5.30344e+18
-55.3092  6.28548e+18
-55.1919  7.12815e+18
-55.0746  7.63362e+18
-54.9573  7.73225e+18
-54.84  7.42299e+18
-54.7227  6.81744e+18
-54.6054  6.02613e+18
-54.4881  5.18543e+18
-54.3708  4.40691e+18
-54.2535  3.76726e+18
-54.1362  3.33316e+18
-54.0189  3.15785e+18
-53.9016  3.29786e+18
-53.7842  3.80143e+18
-53.6669  4.71344e+18
-53.5496  6.04021e+18
-53.4323  7.74068e+18
-53.315  9.71722e+18
-53.1977  1.18165e+19
-53.0804  1.38502e+19
-52.9631  1.56016e+19
-52.8458  1.6868e+19
-52.7285  1.74984e+19
-52.6112  1.73702e+19
-52.4939  1.64659e+19
-52.3766  1.48202e+19
-52.2593  1.25994e+19
-52.142  1.00093e+19
-52.0247  7.3583e+18
-51.9074  4.98093e+18
-51.7901  3.22422e+18
-51.6728  2.39545e+18
-51.5555  2.68489e+18
-51.4381  4.15705e+18
-51.3208  6.6775e+18
-51.2035  9.95775e+18
-51.0862  1.35393e+19
-50.9689  1.6946e+19
-50.8516  1.97099e+19
-50.7343  2.14299e+19
-50.617  2.19473e+19
-50.4997  2.12779e+19
-50.3824  1.96169e+19
-50.2651  1.73759e+19
-50.1478  1.49167e+19
-50.0305  1.26891e+19
-49.9132  1.09568e+19
-49.7959  9.88454e+18
-49.6786  9.47146e+18
-49.5613  9.57119e+18
-49.444  9.95605e+18
-49.3267  1.03776e+19
-49.2094  1.06216e+19
-49.092  1.05541e+19
-48.9747  1.01313e+19
-48.8574  9.42913e+18
-48.7401  8.58441e+18
-48.6228  7.80062e+18
-48.5055  7.27224e+18
-48.3882  7.13333e+18
-48.2709  7.46403e+18
-48.1536  8.2173e+18
-48.0363  9.25526e+18
-47.919  1.03335e+19
-47.8017  1.12065e+19
-47.6844  1.16142e+19
-47.5671  1.13975e+19
-47.4498  1.05183e+19
-47.3325  9.10225e+18
-47.2152  7.38286e+18
-47.0979  5.71039e+18
-46.9806  4.42701e+18
-46.8633  3.80602e+18
-46.7459  3.9697e+18
-46.6286  4.87664e+18
-46.5113  6.31313e+18
-46.394  7.96501e+18
-46.2767  9.47865e+18
-46.1594  1.05688e+19
-46.0421  1.10728e+19
-45.9248  1.09825e+19
-45.8075  1.04065e+19
-45.6902  9.54607e+18
-45.5729  8.60034e+18
-45.4556  7.72931e+18
-45.3383  6.96358e+18
-45.221  6.29578e+18
-45.1037  5.63657e+18
-44.9864  4.92616e+18
-44.8691  4.17653e+18
-44.7518  3.50701e+18
-44.6345  3.10188e+18
-44.5172  3.17357e+18
-44.3998  3.88879e+18
-44.2825  5.28196e+18
-44.1652  7.21525e+18
-44.0479  9.38527e+18
-43.9306  1.13663e+19
-43.8133  1.2734e+19
-43.696  1.31657e+19
-43.5787  1.2513e+19
-43.4614  1.08583e+19
-43.3441  8.52672e+18
-43.2268  5.98304e+18
-43.1095  3.72933e+18
-42.9922  2.19564e+18
-42.8749  1.65196e+18
-42.7576  2.15047e+18
-42.6403  3.55375e+18
-42.523  5.55633e+18
-42.4057  7.81009e+18
-42.2884  9.97412e+18
-42.171  1.18063e+19
-42.0537  1.31481e+19
-41.9364  1.39776e+19
-41.8191  1.43419e+19
-41.7018  1.43282e+19
-41.5845  1.40147e+19
-41.4672  1.34611e+19
-41.3499  1.26932e+19
-41.2326  1.17401e+19
-41.1153  1.06065e+19
-40.998  9.33624e+18
-40.8807  8.00311e+18
-40.7634  6.72755e+18
-40.6461  5.64744e+18
-40.5288  4.94211e+18
-40.4115  4.79815e+18
-40.2942  5.41719e+18
-40.1769  6.9857e+18
-40.0596  9.64352e+18
-39.9423  1.34592e+19
-39.825  1.83809e+19
-39.7076  2.41676e+19
-39.5903  3.04277e+19
-39.473  3.65552e+19
-39.3557  4.19025e+19
-39.2384  4.57636e+19
-39.1211  4.75749e+19
-39.0038  4.70583e+19
-38.8865  4.42721e+19
-38.7692  3.9608e+19
-38.6519  3.39009e+19
-38.5346  2.81063e+19
-38.4173  2.32573e+19
-38.3  2.01746e+19
-38.1827  1.93599e+19
-38.0654  2.08321e+19
-37.9481  2.41687e+19
-37.8308  2.85462e+19
-37.7135  3.29642e+19
-37.5962  3.64056e+19
-37.4789  3.80816e+19
-37.3615  3.75597e+19
-37.2442  3.4806e+19
-37.1269  3.02629e+19
-37.0096  2.45575e+19
-36.8923  1.85353e+19
-36.775  1.29541e+19
-36.6577  8.40386e+18
-36.5404  5.21662e+18
-36.4231  3.44837e+18
-36.3058  2.93581e+18
-36.1885  3.3694e+18
-36.0712  4.39859e+18
-35.9539  5.70742e+18
-35.8366  7.06392e+18
-35.7193  8.32785e+18
-35.602  9.4362e+18
-35.4847  1.03732e+19
-35.3674  1.11198e+19
-35.2501  1.16471e+19
-35.1328  1.19175e+19
-35.0154  1.18752e+19
-34.8981  1.14988e+19
-34.7808  1.07925e+19
-34.6635  9.80897e+18
-34.5462  8.64405e+18
-34.4289  7.42595e+18
-34.3116  6.26597e+18
-34.1943  5.2634e+18
-34.077  4.4765e+18
-33.9597  3.92727e+18
-33.8424  3.59903e+18
-33.7251  3.4636e+18
-33.6078  3.47802e+18
-33.4905  3.60706e+18
-33.3732  3.82089e+18
-33.2559  4.08792e+18
-33.1386  4.37977e+18
-33.0213  4.65534e+18
-32.904  4.88373e+18
-32.7867  5.02294e+18
-32.6693  5.04822e+18
-32.552  4.94307e+18
-32.4347  4.73117e+18
-32.3174  4.44539e+18
-32.2001  4.14064e+18
-32.0828  3.87402e+18
-31.9655  3.69967e+18
-31.8482  3.67844e+18
-31.7309  3.853e+18
-31.6136  4.26036e+18
-31.4963  4.94497e+18
-31.379  5.94024e+18
-31.2617  7.27239e+18
-31.1444  8.9417e+18
-31.0271  1.08934e+19
-30.9098  1.30327e+19
-30.7925  1.52062e+19
-30.6752  1.72277e+19
-30.5579  1.89039e+19
-30.4406  2.00491e+19
-30.3232  2.05554e+19
-30.2059  2.03978e+19
-30.0886  1.96696e+19
-29.9713  1.85729e+19
-29.854  1.73718e+19
-29.7367  1.64241e+19
-29.6194  1.60632e+19
-29.5021  1.66204e+19
-29.3848  1.83205e+19
-29.2675  2.13104e+19
-29.1502  2.56015e+19
-29.0329  3.10982e+19
-28.9156  3.75037e+19
-28.7983  4.44438e+19
-28.681  5.14259e+19
-28.5637  5.78872e+19
-28.4464  6.33006e+19
-28.3291  6.71791e+19
-28.2118  6.9171e+19
-28.0944  6.91893e+19
-27.9771  6.73365e+19
-27.8598  6.39447e+19
-27.7425  5.95667e+19
-27.6252  5.4736e+19
-27.5079  5.01337e+19
-27.3906  4.62448e+19
-27.2733  4.34214e+19
-27.156  4.17652e+19
-27.0387  4.11786e+19
-26.9214  4.13932e+19
-26.8041  4.20125e+19
-26.6868  4.26238e+19
-26.5695  4.2838e+19
-26.4522  4.23893e+19
-26.3349  4.11668e+19
-26.2176  3.91986e+19
-26.1003  3.66563e+19
-25.983  3.38041e+19
-25.8657  3.09874e+19
-25.7483  2.85772e+19
-25.631  2.69217e+19
-25.5137  2.63185e+19
-25.3964  2.69408e+19
-25.2791  2.885e+19
-25.1618  3.19639e+19
-25.0445  3.60578e+19
-24.9272  4.08015e+19
-24.8099  4.57684e+19
-24.6926  5.05542e+19
-24.5753  5.48215e+19
-24.458  5.82452e+19
-24.3407  6.07248e+19
-24.2234  6.22709e+19
-24.1061  6.30093e+19
-23.9888  6.32051e+19
-23.8715  6.31191e+19
-23.7542  6.30889e+19
-23.6369  6.3379e+19
-23.5196  6.42231e+19
-23.4023  6.58086e+19
-23.2849  6.81942e+19
-23.1676  7.13952e+19
-23.0503  7.53178e+19
-22.933  7.97752e+19
-22.8157  8.45113e+19
-22.6984  8.91636e+19
-22.5811  9.33868e+19
-22.4638  9.68706e+19
-22.3465  9.92979e+19
-22.2292  1.00604e+20
-22.1119  1.00785e+20
-21.9946  1.00007e+20
-21.8773  9.85574e+19
-21.76  9.6834e+19
-21.6427  9.52195e+19
-21.5254  9.4062e+19
-21.4081  9.37065e+19
-21.2908  9.44045e+19
-21.1735  9.63334e+19
-21.0561  9.97062e+19
-20.9388  1.0462e+20
-20.8215  1.11316e+20
-20.7042  1.19892e+20
-20.5869  1.30512e+20
-20.4696  1.43166e+20
-20.3523  1.57837e+20
-20.235  1.74261e+20
-20.1177  1.92228e+20
-20.0004  2.11279e+20
-19.8831  2.30932e+20
-19.7658  2.5079e+20
-19.6485  2.70457e+20
-19.5312  2.89541e+20
-19.4139  3.07749e+20
-19.2966  3.24721e+20
-19.1793  3.40116e+20
-19.062  3.53491e+20
-18.9447  3.64411e+20
-18.8274  3.72495e+20
-18.71  3.77217e+20
-18.5927  3.78409e+20
-18.4754  3.76065e+20
-18.3581  3.70311e+20
-18.2408  3.618e+20
-18.1235  3.51199e+20
-18.0062  3.39575e+20
-17.8889  3.2809e+20
-17.7716  3.17833e+20
-17.6543  3.10269e+20
-17.537  3.06414e+20
-17.4197  3.07482e+20
-17.3024  3.14317e+20
-17.1851  3.2774e+20
-17.0678  3.48223e+20
-16.9505  3.75924e+20
-16.8332  4.10658e+20
-16.7159  4.51912e+20
-16.5986  4.98792e+20
-16.4813  5.5004e+20
-16.364  6.0416e+20
-16.2466  6.59488e+20
-16.1293  7.14014e+20
-16.012  7.66355e+20
-15.8947  8.14768e+20
-15.7774  8.58054e+20
-15.6601  8.95246e+20
-15.5428  9.25823e+20
-15.4255  9.49579e+20
-15.3082  9.67004e+20
-15.1909  9.78441e+20
-15.0736  9.85216e+20
-14.9563  9.88502e+20
-14.839  9.89981e+20
-14.7217  9.91097e+20
-14.6044  9.93779e+20
-14.4871  9.994e+20
-14.3698  1.00947e+21
-14.2525  1.02492e+21
-14.1352  1.04644e+21
-14.0178  1.0742e+21
-13.9005  1.10811e+21
-13.7832  1.14765e+21
-13.6659  1.19199e+21
-13.5486  1.24038e+21
-13.4313  1.29201e+21
-13.314  1.34608e+21
-13.1967  1.40202e+21
-13.0794  1.45964e+21
-12.9621  1.51881e+21
-12.8448  1.57978e+21
-12.7275  1.64287e+21
-12.6102  1.70856e+21
-12.4929  1.77718e+21
-12.3756  1.84894e+21
-12.2583  1.92392e+21
-12.141  2.00183e+21
-12.0237  2.08225e+21
-11.9064  2.16443e+21
-11.7891  2.2475e+21
-11.6718  2.33073e+21
-11.5544  2.41327e+21
-11.4371  2.49434e+21
-11.3198  2.57389e+21
-11.2025  2.65185e+21
-11.0852  2.7289e+21
-10.9679  2.80595e+21
-10.8506  2.88433e+21
-10.7333  2.96556e+21
-10.616  3.05135e+21
-10.4987  3.14346e+21
-10.3814  3.243e+21
-10.2641  3.35088e+21
-10.1468  3.46795e+21
-10.0295  3.59362e+21
-9.91217  3.72699e+21
-9.79487  3.86699e+21
-9.67756  4.01153e+21
-9.56026  4.15824e+21
-9.44295  4.30456e+21
-9.32565  4.44851e+21
-9.20834  4.58767e+21
-9.09104  4.72058e+21
-8.97373  4.84621e+21
-8.85643  4.96492e+21
-8.73913  5.07712e+21
-8.62182  5.18441e+21
-8.50452  5.28901e+21
-8.38721  5.39404e+21
-8.26991  5.50203e+21
-8.1526  5.61645e+21
-8.03529  5.73978e+21
-7.91799  5.87475e+21
-7.80069  6.02321e+21
-7.68338  6.18614e+21
-7.56608  6.36453e+21
-7.44877  6.55823e+21
-7.33146  6.76648e+21
-7.21416  6.98796e+21
-7.09685  7.22108e+21
-6.97955  7.46362e+21
-6.86224  7.7132e+21
-6.74494  7.96716e+21
-6.62763  8.22212e+21
-6.51033  8.47532e+21
-6.39302  8.72342e+21
-6.27572  8.96321e+21
-6.15842  9.19187e+21
-6.04111  9.40643e+21
-5.92381  9.60426e+21
-5.8065  9.78363e+21
-5.68919  9.9429e+21
-5.57189  1.00815e+22
-5.45458  1.01995e+22
-5.33728  1.02984e+22
-5.21997  1.03797e+22
-5.10267  1.0447e+22
-4.98536  1.05039e+22
-4.86806  1.05546e+22
-4.75075  1.06043e+22
-4.63345  1.06578e+22
-4.51614  1.07196e+22
-4.39884  1.07938e+22
-4.28154  1.08838e+22
-4.16423  1.09924e+22
-4.04692  1.11199e+22
-3.92962  1.12669e+22
-3.81231  1.14326e+22
-3.69501  1.16146e+22
-3.5777  1.18101e+22
-3.4604  1.20156e+22
-3.34309  1.22269e+22
-3.22579  1.244e+22
-3.10849  1.26513e+22
-2.99118  1.28569e+22
-2.87387  1.30541e+22
-2.75657  1.32406e+22
-2.63926  1.34152e+22
-2.52196  1.35771e+22
-2.40465  1.37263e+22
-2.28735  1.38631e+22
-2.17005  1.39889e+22
-2.05274  1.41049e+22
-1.93544  1.42118e+22
-1.81813  1.43113e+22
-1.70083  1.44044e+22
-1.58352  1.44919e+22
-1.46622  1.45743e+22
-1.34891  1.46519e+22
-1.2316  1.47248e+22
-1.1143  1.47929e+22
-0.996995  1.48557e+22
-0.87969  1.4913e+22
-0.762385  1.49637e+22
-0.64508  1.5008e+22
-0.527775  1.50453e+22
-0.41047  1.50751e+22
-0.293165  1.50971e+22
-0.17586  1.51118e+22
-0.058555  1.51188e+22
0.05875  1.5118e+22
0.176055  1.51096e+22
0.29336  1.50934e+22
0.410665  1.50699e+22
0.52797  1.50385e+22
0.645275  1.49998e+22
0.76258  1.4954e+22
0.879885  1.49018e+22
0.99719  1.48432e+22
1.1145  1.47791e+22
1.2318  1.47097e+22
1.3491  1.46356e+22
1.46641  1.45568e+22
1.58371  1.44732e+22
1.70102  1.43849e+22
1.81832  1.42908e+22
1.93563  1.41906e+22
2.05294  1.40829e+22
2.17024  1.39667e+22
2.28754  1.38407e+22
2.40485  1.37034e+22
2.52216  1.3554e+22
2.63946  1.33921e+22
2.75677  1.32175e+22
2.87407  1.30309e+22
2.99137  1.28337e+22
3.10868  1.2628e+22
3.22599  1.24168e+22
3.34329  1.22036e+22
3.4606  1.19922e+22
3.5779  1.17869e+22
3.69521  1.15914e+22
3.81251  1.14096e+22
3.92982  1.12438e+22
4.04712  1.10965e+22
4.16443  1.09689e+22
4.28173  1.08604e+22
4.39903  1.077e+22
4.51634  1.06955e+22
4.63364  1.06334e+22
4.75095  1.05795e+22
4.86825  1.0529e+22
4.98556  1.04774e+22
5.10286  1.04198e+22
5.22017  1.03511e+22
5.33748  1.02685e+22
5.45478  1.01684e+22
5.57209  1.00489e+22
5.68939  9.90871e+21
5.8067  9.74779e+21
5.924  9.56681e+21
6.0413  9.3676e+21
6.15861  9.15194e+21
6.27591  8.92212e+21
6.39322  8.68151e+21
6.51052  8.43282e+21
6.62783  8.17932e+21
6.74514  7.92423e+21
6.86244  7.67068e+21
6.97975  7.4216e+21
7.09705  7.17983e+21
7.21436  6.94773e+21
7.33166  6.72714e+21
7.44897  6.52022e+21
7.56627  6.32786e+21
7.68358  6.15067e+21
7.80088  5.98877e+21
7.91819  5.84134e+21
8.03549  5.70738e+21
8.1528  5.58492e+21
8.2701  5.47117e+21
8.38741  5.36366e+21
8.50471  5.25913e+21
8.62202  5.15494e+21
8.73932  5.04786e+21
8.85662  4.9361e+21
8.97393  4.81798e+21
9.09123  4.69268e+21
9.20854  4.56036e+21
9.32584  4.42185e+21
9.44315  4.27876e+21
9.56045  4.13303e+21
9.67776  3.98728e+21
9.79506  3.84356e+21
9.91237  3.70443e+21
10.0297  3.57176e+21
10.147  3.44699e+21
10.2643  3.33069e+21
10.3816  3.22332e+21
10.4989  3.12426e+21
10.6162  3.03265e+21
10.7335  2.9471e+21
10.8508  2.86616e+21
10.9681  2.78799e+21
11.0854  2.71127e+21
11.2027  2.63452e+21
11.32  2.5568e+21
11.4373  2.47764e+21
11.5546  2.39682e+21
11.6719  2.31464e+21
11.7893  2.23195e+21
11.9066  2.14929e+21
12.0239  2.06744e+21
12.1412  1.98762e+21
12.2585  1.91009e+21
12.3758  1.83565e+21
12.4931  1.76431e+21
12.6104  1.69614e+21
12.7277  1.63087e+21
12.845  1.56807e+21
12.9623  1.50742e+21
13.0796  1.44868e+21
13.1969  1.39134e+21
13.3142  1.33583e+21
13.4315  1.28214e+21
13.5488  1.23085e+21
13.6661  1.18277e+21
13.7834  1.13872e+21
13.9007  1.09953e+21
14.018  1.06586e+21
14.1354  1.03836e+21
14.2527  1.01709e+21
14.37  1.00182e+21
14.4873  9.91932e+20
14.6046  9.86336e+20
14.7219  9.83738e+20
14.8392  9.82602e+20
14.9565  9.81142e+20
15.0738  9.77923e+20
15.1911  9.71166e+20
15.3084  9.59733e+20
15.4257  9.42471e+20
15.543  9.18848e+20
15.6603  8.88486e+20
15.7776  8.51548e+20
15.8949  8.08568e+20
16.0122  7.60572e+20
16.1295  7.08651e+20
16.2468  6.54434e+20
16.3641  5.99633e+20
16.4815  5.45941e+20
16.5988  4.95116e+20
16.7161  4.48667e+20
16.8334  4.07816e+20
16.9507  3.73448e+20
17.068  3.46141e+20
17.1853  3.26023e+20
17.3026  3.12953e+20
17.4199  3.06369e+20
17.5372  3.0553e+20
17.6545  3.09605e+20
17.7718  3.17367e+20
17.8891  3.2764e+20
18.0064  3.39222e+20
18.1237  3.50859e+20
18.241  3.61343e+20
18.3583  3.69729e+20
18.4756  3.75297e+20
18.5929  3.77459e+20
18.7102  3.75955e+20
18.8275  3.71036e+20
18.9449  3.62788e+20
19.0622  3.51658e+20
19.1795  3.38164e+20
19.2968  3.22686e+20
19.4141  3.05686e+20
19.5314  2.87456e+20
19.6487  2.68359e+20
19.766  2.48792e+20
19.8833  2.28959e+20
20.0006  2.0941e+20
20.1179  1.90515e+20
20.2352  1.7273e+20
20.3525  1.56415e+20
20.4698  1.41881e+20
20.5871  1.29359e+20
20.7044  1.18891e+20
20.8217  1.10446e+20
20.939  1.03896e+20
21.0563  9.90628e+19
21.1736  9.58086e+19
21.291  9.39543e+19
21.4083  9.33674e+19
21.5256  9.37832e+19
21.6429  9.50088e+19
21.7602  9.6691e+19
21.8775  9.84621e+19
21.9948  9.99084e+19
22.1121  1.00709e+20
22.2294  1.00498e+20
22.3467  9.91891e+19
22.464  9.66834e+19
22.5813  9.31693e+19
22.6986  8.89073e+19
22.8159  8.42302e+19
22.9332  7.94942e+19
23.0505  7.50364e+19
23.1678  7.11202e+19
23.2851  6.79286e+19
23.4024  6.55781e+19
23.5198  6.40319e+19
23.6371  6.32106e+19
23.7544  6.29448e+19
23.8717  6.29951e+19
23.989  6.30972e+19
24.1063  6.28989e+19
24.2236  6.21387e+19
24.3409  6.0578e+19
24.4582  5.80668e+19
24.5755  5.4617e+19
24.6928  5.0352e+19
24.8101  4.55534e+19
24.9274  4.05929e+19
25.0447  3.58875e+19
25.162  3.18393e+19
25.2793  2.87862e+19
25.3966  2.69305e+19
25.5139  2.63618e+19
25.6312  2.70147e+19
25.7485  2.87038e+19
25.8658  3.11352e+19
25.9832  3.3943e+19
26.1005  3.67919e+19
26.2178  3.93246e+19
26.3351  4.12582e+19
26.4524  4.24441e+19
26.5697  4.28636e+19
26.687  4.26383e+19
26.8043  4.20406e+19
26.9216  4.14496e+19
27.0389  4.12643e+19
27.1562  4.18997e+19
27.2735  4.36198e+19
27.3908  4.65127e+19
27.5081  5.04628e+19
27.6254  5.51002e+19
27.7427  5.99449e+19
27.86  6.43308e+19
27.9773  6.76754e+19
28.0946  6.94597e+19
28.212  6.93381e+19
28.3293  6.72474e+19
28.4466  6.3283e+19
28.5639  5.77845e+19
28.6812  5.12672e+19
28.7985  4.42573e+19
28.9158  3.73051e+19
29.0331  3.09217e+19
29.1504  2.54693e+19
29.2677  2.12348e+19
29.385  1.83042e+19
29.5023  1.66669e+19
29.6196  1.61534e+19
29.7369  1.65356e+19
29.8542  1.74894e+19
29.9715  1.8657e+19
30.0888  1.97283e+19
30.2061  2.04087e+19
30.3234  2.05143e+19
30.4407  1.99659e+19
30.558  1.87846e+19
30.6754  1.70972e+19
30.7927  1.50563e+19
30.91  1.2882e+19
31.0273  1.07524e+19
31.1446  8.82289e+18
31.2619  7.1728e+18
31.3792  5.85978e+18
31.4965  4.87656e+18
31.6138  4.20214e+18
31.7311  3.80123e+18
31.8484  3.6358e+18
31.9657  3.66376e+18
32.083  3.83439e+18
32.2003  4.0971e+18
32.3176  4.40268e+18
32.4349  4.67904e+18
32.5522  4.89191e+18
32.6695  4.99311e+18
32.7868  4.97376e+18
32.9042  4.83684e+18
33.0215  4.61262e+18
33.1388  4.3415e+18
33.2561  4.06017e+18
33.3734  3.80332e+18
33.4907  3.59734e+18
33.608  3.48064e+18
33.7253  3.48562e+18
33.8426  3.63182e+18
33.9599  3.97892e+18
34.0772  4.54153e+18
34.1945  5.34172e+18
34.3118  6.35492e+18
34.4291  7.523e+18
34.5464  8.74313e+18
34.6637  9.89785e+18
34.781  1.087e+19
34.8983  1.15661e+19
35.0156  1.1931e+19
35.1329  1.19585e+19
35.2503  1.16791e+19
35.3676  1.11392e+19
35.4849  1.03833e+19
35.6022  9.43791e+18
35.7195  8.31497e+18
35.8368  7.04395e+18
35.9541  5.68292e+18
36.0714  4.3759e+18
36.1887  3.36364e+18
36.306  2.95656e+18
36.4233  3.5073e+18
36.5406  5.32614e+18
36.6579  8.5676e+18
36.7752  1.3169e+19
36.8925  1.87815e+19
37.0098  2.48266e+19
37.1271  3.05046e+19
37.2444  3.50431e+19
37.3617  3.77479e+19
37.479  3.82169e+19
37.5964  3.64782e+19
37.7137  3.30003e+19
37.831  2.85518e+19
37.9483  2.41698e+19
38.0656  2.08434e+19
38.1829  1.94044e+19
38.3002  2.02619e+19
38.4175  2.33728e+19
38.5348  2.82598e+19
38.6521  3.40533e+19
38.7694  3.97437e+19
38.8867  4.43509e+19
39.004  4.70867e+19
39.1213  4.75397e+19
39.2386  4.56505e+19
39.3559  4.17321e+19
39.4732  3.63345e+19
39.5905  3.01743e+19
39.7078  2.39209e+19
39.8251  1.81581e+19
39.9425  1.32763e+19
40.0598  9.49785e+18
40.1771  6.88984e+18
40.2944  5.37654e+18
40.4117  4.80167e+18
40.529  4.98354e+18
40.6463  5.71764e+18
40.7636  6.80891e+18
40.8809  8.09616e+18
40.9982  9.41793e+18
41.1155  1.06658e+19
41.2328  1.1769e+19
41.3501  1.26987e+19
41.4674  1.34276e+19
41.5847  1.39448e+19
41.702  1.42318e+19
41.8193  1.4216e+19
41.9366  1.38341e+19
42.0539  1.29944e+19
42.1712  1.16448e+19
42.2885  9.81825e+18
42.4059  7.66643e+18
42.5232  5.44074e+18
42.6405  3.47175e+18
42.7578  2.1175e+18
42.8751  1.66921e+18
42.9924  2.26638e+18
43.1097  3.84823e+18
43.227  6.13625e+18
43.3443  8.70104e+18
43.4616  1.10252e+19
43.5789  1.26586e+19
43.6962  1.32799e+19
43.8135  1.28149e+19
43.9308  1.1399e+19
44.0481  9.37804e+18
44.1654  7.18318e+18
44.2827  5.23962e+18
44.4  3.85067e+18
44.5173  3.14774e+18
44.6347  3.09081e+18
44.752  3.52045e+18
44.8693  4.21049e+18
44.9866  4.96781e+18
45.1039  5.69147e+18
45.2212  6.36308e+18
45.3385  7.04693e+18
45.4558  7.81308e+18
45.5731  8.69673e+18
45.6904  9.63344e+18
45.8077  1.0479e+19
45.925  1.10316e+19
46.0423  1.10957e+19
46.1596  1.05642e+19
46.2769  9.44016e+18
46.3942  7.91541e+18
46.5115  6.26075e+18
46.6288  4.83709e+18
46.7461  3.95563e+18
46.8634  3.82239e+18
46.9808  4.47909e+18
47.0981  5.78318e+18
47.2154  7.46655e+18
47.3327  9.17158e+18
47.45  1.05807e+19
47.5673  1.14365e+19
47.6846  1.16165e+19
47.8019  1.11868e+19
47.9192  1.03055e+19
48.0365  9.21905e+18
48.1538  8.20004e+18
48.2711  7.46068e+18
48.3884  7.15448e+18
48.5057  7.30718e+18
48.623  7.86121e+18
48.7403  8.65073e+18
48.8576  9.4894e+18
48.9749  1.01917e+19
49.0922  1.06025e+19
49.2095  1.06603e+19
49.3269  1.04135e+19
49.4442  9.9896e+18
49.5615  9.61094e+18
49.6788  9.52244e+18
49.7961  9.95491e+18
49.9134  1.10402e+19
50.0307  1.27832e+19
50.148  1.50232e+19
50.2653  1.7466e+19
50.3826  1.97166e+19
50.4999  2.13284e+19
50.6172  2.19662e+19
50.7345  2.14131e+19
50.8518  1.96515e+19
