#S 1 spectral density
#N 2
#UFWHM 8.79788
#L  abscissas [um]  spectral density
-58.5938  1.20262e+19
-58.4764  1.09202e+19
-58.3591  1.01778e+19
-58.2418  9.86374e+18
-58.1245  1.00551e+19
-58.0072  1.0877e+19
-57.8899  1.24297e+19
-57.7726  1.47703e+19
-57.6553  1.78115e+19
-57.538  2.12966e+19
-57.4207  2.48249e+19
-57.3034  2.78792e+19
-57.1861  3.00189e+19
-57.0688  3.10007e+19
-56.9515  3.09964e+19
-56.8342  3.05631e+19
-56.7169  3.07197e+19
-56.5996  3.26668e+19
-56.4823  3.75976e+19
-56.365  4.63287e+19
-56.2477  5.90233e+19
-56.1303  7.51213e+19
-56.013  9.3288e+19
-55.8957  1.11681e+20
-55.7784  1.28264e+20
-55.6611  1.41196e+20
-55.5438  1.49301e+20
-55.4265  1.52161e+20
-55.3092  1.50083e+20
-55.1919  1.44152e+20
-55.0746  1.357e+20
-54.9573  1.26013e+20
-54.84  1.16158e+20
-54.7227  1.06599e+20
-54.6054  9.74548e+19
-54.4881  8.84097e+19
-54.3708  7.91219e+19
-54.2535  6.94157e+19
-54.1362  5.9495e+19
-54.0189  4.9936e+19
-53.9016  4.16169e+19
-53.7842  3.55087e+19
-53.6669  3.23246e+19
-53.5496  3.2462e+19
-53.4323  3.57264e+19
-53.315  4.14512e+19
-53.1977  4.85723e+19
-53.0804  5.58644e+19
-52.9631  6.22867e+19
-52.8458  6.7039e+19
-52.7285  6.96872e+19
-52.6112  7.0336e+19
-52.4939  6.92913e+19
-52.3766  6.70966e+19
-52.2593  6.42245e+19
-52.142  6.1105e+19
-52.0247  5.79948e+19
-51.9074  5.49958e+19
-51.7901  5.21149e+19
-51.6728  4.9282e+19
-51.5555  4.64357e+19
-51.4381  4.35777e+19
-51.3208  4.06444e+19
-51.2035  3.75692e+19
-51.0862  3.43085e+19
-50.9689  3.07551e+19
-50.8516  2.68722e+19
-50.7343  2.27196e+19
-50.617  1.84868e+19
-50.4997  1.45229e+19
-50.3824  1.12582e+19
-50.2651  9.11631e+18
-50.1478  8.36414e+18
-50.0305  9.01061e+18
-49.9132  1.07519e+19
-49.7959  1.29915e+19
-49.6786  1.50194e+19
-49.5613  1.61602e+19
-49.444  1.60187e+19
-49.3267  1.46605e+19
-49.2094  1.26163e+19
-49.092  1.08066e+19
-48.9747  1.03073e+19
-48.8574  1.20409e+19
-48.7401  1.64802e+19
-48.6228  2.34571e+19
-48.5055  3.20967e+19
-48.3882  4.10216e+19
-48.2709  4.85956e+19
-48.1536  5.33333e+19
-48.0363  5.42689e+19
-47.919  5.11934e+19
-47.8017  4.46775e+19
-47.6844  3.59475e+19
-47.5671  2.65929e+19
-47.4498  1.81532e+19
-47.3325  1.177e+19
-47.2152  7.98074e+18
-47.0979  6.66812e+18
-46.9806  7.15689e+18
-46.8633  8.49989e+18
-46.7459  9.7769e+18
-46.6286  1.03341e+19
-46.5113  9.96498e+18
-46.394  8.87467e+18
-46.2767  7.61466e+18
-46.1594  6.79065e+18
-46.0421  6.92747e+18
-45.9248  8.27146e+18
-45.8075  1.07471e+19
-45.6902  1.40161e+19
-45.5729  1.76179e+19
-45.4556  2.11458e+19
-45.3383  2.44005e+19
-45.221  2.74873e+19
-45.1037  3.07868e+19
-44.9864  3.48795e+19
-44.8691  4.0372e+19
-44.7518  4.77312e+19
-44.6345  5.70961e+19
-44.5172  6.82467e+19
-44.3998  8.05609e+19
-44.2825  9.30795e+19
-44.1652  1.04701e+20
-44.0479  1.14265e+20
-43.9306  1.20853e+20
-43.8133  1.23849e+20
-43.696  1.23091e+20
-43.5787  1.18793e+20
-43.4614  1.11556e+20
-43.3441  1.02205e+20
-43.2268  9.17515e+19
-43.1095  8.10506e+19
-42.9922  7.08248e+19
-42.8749  6.1592e+19
-42.7576  5.35575e+19
-42.6403  4.67832e+19
-42.523  4.12384e+19
-42.4057  3.68828e+19
-42.2884  3.37174e+19
-42.171  3.18098e+19
-42.0537  3.12719e+19
-41.9364  3.21454e+19
-41.8191  3.4417e+19
-41.7018  3.78835e+19
-41.5845  4.23192e+19
-41.4672  4.7391e+19
-41.3499  5.28641e+19
-41.2326  5.8611e+19
-41.1153  6.46463e+19
-40.998  7.10976e+19
-40.8807  7.8039e+19
-40.7634  8.53187e+19
-40.6461  9.26026e+19
-40.5288  9.91917e+19
-40.4115  1.04233e+20
-40.2942  1.06866e+20
-40.1769  1.06474e+20
-40.0596  1.03059e+20
-39.9423  9.72155e+19
-39.825  9.01707e+19
-39.7076  8.35361e+19
-39.5903  7.88786e+19
-39.473  7.73219e+19
-39.3557  7.91126e+19
-39.2384  8.35926e+19
-39.1211  8.91633e+19
-39.0038  9.37662e+19
-38.8865  9.53699e+19
-38.7692  9.2577e+19
-38.6519  8.49202e+19
-38.5346  7.32211e+19
-38.4173  5.92739e+19
-38.3  4.55974e+19
-38.1827  3.46382e+19
-38.0654  2.83136e+19
-37.9481  2.75391e+19
-37.8308  3.20233e+19
-37.7135  4.04212e+19
-37.5962  5.07568e+19
-37.4789  6.09005e+19
-37.3615  6.91416e+19
-37.2442  7.45895e+19
-37.1269  7.71546e+19
-37.0096  7.76129e+19
-36.8923  7.70819e+19
-36.775  7.675e+19
-36.6577  7.74398e+19
-36.5404  7.9437e+19
-36.4231  8.22967e+19
-36.3058  8.5144e+19
-36.1885  8.68981e+19
-36.0712  8.6561e+19
-35.9539  8.35131e+19
-35.8366  7.76313e+19
-35.7193  6.93409e+19
-35.602  5.94154e+19
-35.4847  4.89373e+19
-35.3674  3.88677e+19
-35.2501  3.00196e+19
-35.1328  2.28861e+19
-35.0154  1.76342e+19
-34.8981  1.41234e+19
-34.7808  1.20155e+19
-34.6635  1.08988e+19
-34.5462  1.03441e+19
-34.4289  1.00392e+19
-34.3116  9.74818e+18
-34.1943  9.3949e+18
-34.077  8.97164e+18
-33.9597  8.55228e+18
-33.8424  8.21549e+18
-33.7251  8.08584e+18
-33.6078  8.21649e+18
-33.4905  8.65504e+18
-33.3732  9.41302e+18
-33.2559  1.04568e+19
-33.1386  1.17153e+19
-33.0213  1.30848e+19
-32.904  1.44365e+19
-32.7867  1.56174e+19
-32.6693  1.64878e+19
-32.552  1.6945e+19
-32.4347  1.69978e+19
-32.3174  1.68025e+19
-32.2001  1.66893e+19
-32.0828  1.7173e+19
-31.9655  1.88769e+19
-31.8482  2.24346e+19
-31.7309  2.8306e+19
-31.6136  3.6624e+19
-31.4963  4.70306e+19
-31.379  5.86773e+19
-31.2617  7.02305e+19
-31.1444  8.01278e+19
-31.0271  8.6834e+19
-30.9098  8.92369e+19
-30.7925  8.68124e+19
-30.6752  8.00099e+19
-30.5579  7.00704e+19
-30.4406  5.89358e+19
-30.3232  4.8913e+19
-30.2059  4.21388e+19
-30.0886  4.02432e+19
-29.9713  4.39963e+19
-29.854  5.31929e+19
-29.7367  6.66931e+19
-29.6194  8.27522e+19
-29.5021  9.93417e+19
-29.3848  1.146e+20
-29.2675  1.2717e+20
-29.1502  1.36309e+20
-29.0329  1.41964e+20
-28.9156  1.4466e+20
-28.7983  1.45161e+20
-28.681  1.44344e+20
-28.5637  1.42831e+20
-28.4464  1.40984e+20
-28.3291  1.3889e+20
-28.2118  1.36292e+20
-28.0944  1.32954e+20
-27.9771  1.28586e+20
-27.8598  1.23152e+20
-27.7425  1.16752e+20
-27.6252  1.0966e+20
-27.5079  1.02331e+20
-27.3906  9.52762e+19
-27.2733  8.8967e+19
-27.156  8.38611e+19
-27.0387  8.02229e+19
-26.9214  7.82549e+19
-26.8041  7.79635e+19
-26.6868  7.93028e+19
-26.5695  8.20342e+19
-26.4522  8.58386e+19
-26.3349  9.02483e+19
-26.2176  9.47278e+19
-26.1003  9.88042e+19
-25.983  1.02041e+20
-25.8657  1.04206e+20
-25.7483  1.05284e+20
-25.631  1.05499e+20
-25.5137  1.05385e+20
-25.3964  1.05592e+20
-25.2791  1.06771e+20
-25.1618  1.09522e+20
-25.0445  1.14156e+20
-24.9272  1.20723e+20
-24.8099  1.28999e+20
-24.6926  1.38506e+20
-24.5753  1.48637e+20
-24.458  1.58942e+20
-24.3407  1.68992e+20
-24.2234  1.78585e+20
-24.1061  1.87612e+20
-23.9888  1.96001e+20
-23.8715  2.03542e+20
-23.7542  2.09592e+20
-23.6369  2.13426e+20
-23.5196  2.13906e+20
-23.4023  2.09754e+20
-23.2849  2.0016e+20
-23.1676  1.8464e+20
-23.0503  1.63561e+20
-22.933  1.38312e+20
-22.8157  1.10817e+20
-22.6984  8.38349e+19
-22.5811  6.00243e+19
-22.4638  4.16375e+19
-22.3465  3.01529e+19
-22.2292  2.58606e+19
-22.1119  2.79593e+19
-21.9946  3.46868e+19
-21.8773  4.37692e+19
-21.76  5.28484e+19
-21.6427  5.99803e+19
-21.5254  6.39802e+19
-21.4081  6.44625e+19
-21.2908  6.18834e+19
-21.1735  5.71508e+19
-21.0561  5.14324e+19
-20.9388  4.58825e+19
-20.8215  4.13274e+19
-20.7042  3.83096e+19
-20.5869  3.7093e+19
-20.4696  3.78322e+19
-20.3523  4.06855e+19
-20.235  4.59134e+19
-20.1177  5.38338e+19
-20.0004  6.47939e+19
-19.8831  7.89693e+19
-19.7658  9.61685e+19
-19.6485  1.15867e+20
-19.5312  1.37071e+20
-19.4139  1.58572e+20
-19.2966  1.79099e+20
-19.1793  1.97469e+20
-19.062  2.12893e+20
-18.9447  2.25053e+20
-18.8274  2.34043e+20
-18.71  2.40377e+20
-18.5927  2.44785e+20
-18.4754  2.47785e+20
-18.3581  2.4997e+20
-18.2408  2.5137e+20
-18.1235  2.52032e+20
-18.0062  2.51435e+20
-17.8889  2.49232e+20
-17.7716  2.4514e+20
-17.6543  2.38921e+20
-17.537  2.30923e+20
-17.4197  2.21662e+20
-17.3024  2.1203e+20
-17.1851  2.03061e+20
-17.0678  1.95795e+20
-16.9505  1.91062e+20
-16.8332  1.89436e+20
-16.7159  1.90932e+20
-16.5986  1.95272e+20
-16.4813  2.01748e+20
-16.364  2.09419e+20
-16.2466  2.17281e+20
-16.1293  2.24609e+20
-16.012  2.30599e+20
-15.8947  2.35027e+20
-15.7774  2.37942e+20
-15.6601  2.39719e+20
-15.5428  2.41079e+20
-15.4255  2.43113e+20
-15.3082  2.4695e+20
-15.1909  2.54139e+20
-15.0736  2.66096e+20
-14.9563  2.84386e+20
-14.839  3.10271e+20
-14.7217  3.44774e+20
-14.6044  3.88076e+20
-14.4871  4.39659e+20
-14.3698  4.98135e+20
-14.2525  5.61318e+20
-14.1352  6.26492e+20
-14.0178  6.90659e+20
-13.9005  7.51134e+20
-13.7832  8.06042e+20
-13.6659  8.54359e+20
-13.5486  8.96145e+20
-13.4313  9.32688e+20
-13.314  9.65615e+20
-13.1967  9.96946e+20
-13.0794  1.02817e+21
-12.9621  1.06026e+21
-12.8448  1.09307e+21
-12.7275  1.12574e+21
-12.6102  1.15622e+21
-12.4929  1.18246e+21
-12.3756  1.20211e+21
-12.2583  1.2129e+21
-12.141  1.21329e+21
-12.0237  1.20252e+21
-11.9064  1.18038e+21
-11.7891  1.14727e+21
-11.6718  1.10451e+21
-11.5544  1.05385e+21
-11.4371  9.97785e+20
-11.3198  9.39688e+20
-11.2025  8.83081e+20
-11.0852  8.32201e+20
-10.9679  7.91399e+20
-10.8506  7.64659e+20
-10.7333  7.55417e+20
-10.616  7.66197e+20
-10.4987  7.97856e+20
-10.3814  8.50066e+20
-10.2641  9.2097e+20
-10.1468  1.00761e+21
-10.0295  1.10606e+21
-9.91217  1.21246e+21
-9.79487  1.3229e+21
-9.67756  1.43418e+21
-9.56026  1.54405e+21
-9.44295  1.651e+21
-9.32565  1.75502e+21
-9.20834  1.85665e+21
-9.09104  1.9576e+21
-8.97373  2.05966e+21
-8.85643  2.16531e+21
-8.73913  2.27707e+21
-8.62182  2.39737e+21
-8.50452  2.5281e+21
-8.38721  2.67138e+21
-8.26991  2.82836e+21
-8.1526  3.00001e+21
-8.03529  3.18674e+21
-7.91799  3.38845e+21
-7.80069  3.60424e+21
-7.68338  3.8328e+21
-7.56608  4.07213e+21
-7.44877  4.31963e+21
-7.33146  4.57153e+21
-7.21416  4.82386e+21
-7.09685  5.07161e+21
-6.97955  5.30928e+21
-6.86224  5.53071e+21
-6.74494  5.72975e+21
-6.62763  5.9005e+21
-6.51033  6.03762e+21
-6.39302  6.13746e+21
-6.27572  6.19793e+21
-6.15842  6.22012e+21
-6.04111  6.20728e+21
-5.92381  6.16609e+21
-5.8065  6.10629e+21
-5.68919  6.03966e+21
-5.57189  5.97977e+21
-5.45458  5.94083e+21
-5.33728  5.93584e+21
-5.21997  5.97609e+21
-5.10267  6.07001e+21
-4.98536  6.22237e+21
-4.86806  6.43365e+21
-4.75075  6.70091e+21
-4.63345  7.01748e+21
-4.51614  7.37374e+21
-4.39884  7.7584e+21
-4.28154  8.15904e+21
-4.16423  8.56333e+21
-4.04692  8.95893e+21
-3.92962  9.33558e+21
-3.81231  9.68504e+21
-3.69501  1.00013e+22
-3.5777  1.02817e+22
-3.4604  1.05264e+22
-3.34309  1.07382e+22
-3.22579  1.0923e+22
-3.10849  1.10887e+22
-2.99118  1.12434e+22
-2.87387  1.1396e+22
-2.75657  1.15542e+22
-2.63926  1.17239e+22
-2.52196  1.19083e+22
-2.40465  1.21088e+22
-2.28735  1.2324e+22
-2.17005  1.25503e+22
-2.05274  1.27835e+22
-1.93544  1.30183e+22
-1.81813  1.32501e+22
-1.70083  1.34749e+22
-1.58352  1.36899e+22
-1.46622  1.38932e+22
-1.34891  1.40837e+22
-1.2316  1.42619e+22
-1.1143  1.44274e+22
-0.996995  1.45808e+22
-0.87969  1.47219e+22
-0.762385  1.48498e+22
-0.64508  1.4964e+22
-0.527775  1.50628e+22
-0.41047  1.51446e+22
-0.293165  1.52076e+22
-0.17586  1.52506e+22
-0.058555  1.52722e+22
0.05875  1.5272e+22
0.176055  1.52499e+22
0.29336  1.52072e+22
0.410665  1.51442e+22
0.52797  1.50628e+22
0.645275  1.49647e+22
0.76258  1.48517e+22
0.879885  1.47249e+22
0.99719  1.45858e+22
1.1145  1.44343e+22
1.2318  1.42711e+22
1.3491  1.40948e+22
1.46641  1.39066e+22
1.58371  1.37054e+22
1.70102  1.34926e+22
1.81832  1.32697e+22
1.93563  1.30397e+22
2.05294  1.28066e+22
2.17024  1.25752e+22
2.28754  1.23503e+22
2.40485  1.21364e+22
2.52216  1.19369e+22
2.63946  1.17531e+22
2.75677  1.1584e+22
2.87407  1.1426e+22
2.99137  1.1273e+22
3.10868  1.11177e+22
3.22599  1.0951e+22
3.34329  1.0765e+22
3.4606  1.05515e+22
3.5779  1.03052e+22
3.69521  1.00233e+22
3.81251  9.70533e+21
3.92982  9.35437e+21
4.04712  8.97653e+21
4.16443  8.58018e+21
4.28173  8.17556e+21
4.39903  7.77471e+21
4.51634  7.39049e+21
4.63364  7.0349e+21
4.75095  6.71954e+21
4.86825  6.4536e+21
4.98556  6.24367e+21
5.10286  6.09289e+21
5.22017  6.00003e+21
5.33748  5.96096e+21
5.45478  5.9664e+21
5.57209  6.00553e+21
5.68939  6.0648e+21
5.8067  6.13034e+21
5.924  6.18852e+21
6.0413  6.22784e+21
6.15861  6.23844e+21
6.27591  6.21406e+21
6.39322  6.15109e+21
6.51052  6.04902e+21
6.62783  5.90972e+21
6.74514  5.73707e+21
6.86244  5.53655e+21
6.97975  5.31382e+21
7.09705  5.07544e+21
7.21436  4.82733e+21
7.33166  4.57465e+21
7.44897  4.3229e+21
7.56627  4.07581e+21
7.68358  3.83689e+21
7.80088  3.60891e+21
7.91819  3.39364e+21
8.03549  3.19263e+21
8.1528  3.00661e+21
8.2701  2.83539e+21
8.38741  2.67886e+21
8.50471  2.53594e+21
8.62202  2.40555e+21
8.73932  2.28546e+21
8.85662  2.17362e+21
8.97393  2.06781e+21
9.09123  1.96558e+21
9.20854  1.86435e+21
9.32584  1.76219e+21
9.44315  1.65768e+21
9.56045  1.55016e+21
9.67776  1.43981e+21
9.79506  1.32796e+21
9.91237  1.21719e+21
10.0297  1.11046e+21
10.147  1.01175e+21
10.2643  9.25079e+20
10.3816  8.54301e+20
10.4989  8.02206e+20
10.6162  7.70785e+20
10.7335  7.60199e+20
10.8508  7.69532e+20
10.9681  7.96366e+20
11.0854  8.37268e+20
11.2027  8.88073e+20
11.32  9.44575e+20
11.4373  1.00263e+21
11.5546  1.05844e+21
11.6719  1.10892e+21
11.7893  1.15154e+21
11.9066  1.18436e+21
12.0239  1.20649e+21
12.1412  1.21715e+21
12.2585  1.21662e+21
12.3758  1.2058e+21
12.4931  1.18633e+21
12.6104  1.16027e+21
12.7277  1.12993e+21
12.845  1.09752e+21
12.9623  1.06502e+21
13.0796  1.0332e+21
13.1969  1.0021e+21
13.3142  9.70895e+20
13.4315  9.37884e+20
13.5488  9.01091e+20
13.6661  8.58836e+20
13.7834  8.10094e+20
13.9007  7.54622e+20
14.018  6.93543e+20
14.1354  6.28936e+20
14.2527  5.63389e+20
14.37  4.99834e+20
14.4873  4.41176e+20
14.6046  3.89497e+20
14.7219  3.46187e+20
14.8392  3.11693e+20
14.9565  2.85827e+20
15.0738  2.67544e+20
15.1911  2.55587e+20
15.3084  2.48427e+20
15.4257  2.44601e+20
15.543  2.42581e+20
15.6603  2.4117e+20
15.7776  2.39344e+20
15.8949  2.36408e+20
16.0122  2.31907e+20
16.1295  2.25878e+20
16.2468  2.18593e+20
16.3641  2.10693e+20
16.4815  2.03059e+20
16.5988  1.96692e+20
16.7161  1.92493e+20
16.8334  1.91105e+20
16.9507  1.92911e+20
17.068  1.97748e+20
17.1853  2.05091e+20
17.3026  2.14076e+20
17.4199  2.23717e+20
17.5372  2.32967e+20
17.6545  2.40816e+20
17.7718  2.46841e+20
17.8891  2.50838e+20
18.0064  2.52811e+20
18.1237  2.53137e+20
18.241  2.5235e+20
18.3583  2.507e+20
18.4756  2.48322e+20
18.5929  2.45057e+20
18.7102  2.40512e+20
18.8275  2.33902e+20
18.9449  2.24654e+20
19.0622  2.12265e+20
19.1795  1.9663e+20
19.2968  1.78116e+20
19.4141  1.57511e+20
19.5314  1.36008e+20
19.6487  1.14887e+20
19.766  9.53186e+19
19.8833  7.83041e+19
20.0006  6.43114e+19
20.1179  5.35222e+19
20.2352  4.57368e+19
20.3525  4.06552e+19
20.4698  3.79479e+19
20.5871  3.73476e+19
20.7044  3.8686e+19
20.8217  4.18214e+19
20.939  4.64783e+19
21.0563  5.2126e+19
21.1736  5.78737e+19
21.291  6.25789e+19
21.4083  6.50881e+19
21.5256  6.44581e+19
21.6429  6.03037e+19
21.7602  5.30017e+19
21.8775  4.38048e+19
21.9948  3.46873e+19
22.1121  2.79865e+19
22.2294  2.59915e+19
22.3467  3.04285e+19
22.464  4.20549e+19
22.5813  6.05345e+19
22.6986  8.43757e+19
22.8159  1.11257e+20
22.9332  1.38544e+20
23.0505  1.63602e+20
23.1678  1.84342e+20
23.2851  1.99627e+20
23.4024  2.08974e+20
23.5198  2.12915e+20
23.6371  2.12387e+20
23.7544  2.08539e+20
23.8717  2.02499e+20
23.989  1.95048e+20
24.1063  1.86784e+20
24.2236  1.77875e+20
24.3409  1.68383e+20
24.4582  1.58493e+20
24.5755  1.48338e+20
24.6928  1.3836e+20
24.8101  1.29081e+20
24.9274  1.21055e+20
25.0447  1.14736e+20
25.162  1.10344e+20
25.2793  1.07826e+20
25.3966  1.0681e+20
25.5139  1.0674e+20
25.6312  1.06931e+20
25.7485  1.06669e+20
25.8658  1.05535e+20
25.9832  1.03275e+20
26.1005  9.99023e+19
26.2178  9.56776e+19
26.3351  9.10584e+19
26.4524  8.65628e+19
26.5697  8.2693e+19
26.687  7.98969e+19
26.8043  7.85103e+19
26.9216  7.87653e+19
27.0389  8.07449e+19
27.1562  8.43848e+19
27.2735  8.95055e+19
27.3908  9.57693e+19
27.5081  1.02803e+20
27.6254  1.10072e+20
27.7427  1.17123e+20
27.86  1.23446e+20
27.9773  1.28826e+20
28.0946  1.33123e+20
28.212  1.36412e+20
28.3293  1.38984e+20
28.4466  1.41071e+20
28.5639  1.42904e+20
28.6812  1.44417e+20
28.7985  1.45232e+20
28.9158  1.44688e+20
29.0331  1.41914e+20
29.1504  1.36185e+20
29.2677  1.26963e+20
29.385  1.14347e+20
29.5023  9.9028e+19
29.6196  8.24572e+19
29.7369  6.64966e+19
29.8542  5.31506e+19
29.9715  4.41614e+19
30.0888  4.06218e+19
30.2061  4.27154e+19
30.3234  4.96419e+19
30.4407  5.97368e+19
30.558  7.08298e+19
30.6754  8.06735e+19
30.7927  8.72916e+19
30.91  8.94914e+19
31.0273  8.69114e+19
31.1446  8.00046e+19
31.2619  6.9995e+19
31.3792  5.83594e+19
31.4965  4.67283e+19
31.6138  3.63732e+19
31.7311  2.81449e+19
31.8484  2.23509e+19
31.9657  1.88691e+19
32.083  1.72179e+19
32.2003  1.67619e+19
32.3176  1.68798e+19
32.4349  1.70641e+19
32.5522  1.69856e+19
32.6695  1.64991e+19
32.7868  1.56098e+19
32.9042  1.44119e+19
33.0215  1.30487e+19
33.1388  1.1681e+19
33.2561  1.04309e+19
33.3734  9.403e+18
33.4907  8.65666e+18
33.608  8.22481e+18
33.7253  8.11093e+18
33.8426  8.24915e+18
33.9599  8.58292e+18
34.0772  9.00222e+18
34.1945  9.41621e+18
34.3118  9.75925e+18
34.4291  1.00322e+19
34.5464  1.03412e+19
34.6637  1.08916e+19
34.781  1.20392e+19
34.8983  1.41739e+19
35.0156  1.77218e+19
35.1329  2.30296e+19
35.2503  3.02021e+19
35.3676  3.90735e+19
35.4849  4.91497e+19
35.6022  5.95975e+19
35.7195  6.9422e+19
35.8368  7.76291e+19
35.9541  8.3373e+19
36.0714  8.63175e+19
36.1887  8.66022e+19
36.306  8.48236e+19
36.4233  8.1997e+19
36.5406  7.92113e+19
36.6579  7.73623e+19
36.7752  7.67363e+19
36.8925  7.71189e+19
37.0098  7.7657e+19
37.1271  7.7138e+19
37.2444  7.44191e+19
37.3617  6.88031e+19
37.479  6.04036e+19
37.5964  5.01931e+19
37.7137  3.98645e+19
37.831  3.15905e+19
37.9483  2.73198e+19
38.0656  2.83609e+19
38.1829  3.49501e+19
38.3002  4.6127e+19
38.4175  5.994e+19
38.5348  7.38606e+19
38.6521  8.54684e+19
38.7694  9.29525e+19
38.8867  9.55606e+19
39.004  9.37858e+19
39.1213  8.90521e+19
39.2386  8.34367e+19
39.3559  7.90145e+19
39.4732  7.73239e+19
39.5905  7.90196e+19
39.7078  8.37788e+19
39.8251  9.04768e+19
39.9425  9.74976e+19
40.0598  1.03292e+20
40.1771  1.06647e+20
40.2944  1.06935e+20
40.4117  1.04235e+20
40.529  9.91558e+19
40.6463  9.25309e+19
40.7636  8.52598e+19
40.8809  7.79717e+19
40.9982  7.1078e+19
41.1155  6.4656e+19
41.2328  5.86342e+19
41.3501  5.28926e+19
41.4674  4.74344e+19
41.5847  4.23779e+19
41.702  3.79755e+19
41.8193  3.45368e+19
41.9366  3.23106e+19
42.0539  3.14611e+19
42.1712  3.2023e+19
42.2885  3.39205e+19
42.4059  3.70803e+19
42.5232  4.14188e+19
42.6405  4.69527e+19
42.7578  5.3738e+19
42.8751  6.18072e+19
42.9924  7.11128e+19
43.1097  8.14e+19
43.227  9.21784e+19
43.3443  1.02723e+20
43.4616  1.12096e+20
43.5789  1.19326e+20
43.6962  1.23599e+20
43.8135  1.24283e+20
43.9308  1.21166e+20
44.0481  1.14435e+20
44.1654  1.04691e+20
44.2827  9.2994e+19
44.4  8.04056e+19
44.5173  6.80634e+19
44.6347  5.69148e+19
44.752  4.75872e+19
44.8693  4.02804e+19
44.9866  3.48311e+19
45.1039  3.07534e+19
45.2212  2.74507e+19
45.3385  2.43423e+19
45.4558  2.10522e+19
45.5731  1.74942e+19
45.6904  1.38724e+19
45.8077  1.06079e+19
45.925  8.15636e+18
46.0423  6.85168e+18
46.1596  6.75617e+18
46.2769  7.60364e+18
46.3942  8.85882e+18
46.5115  9.91453e+18
46.6288  1.02395e+19
46.7461  9.63829e+18
46.8634  8.34341e+18
46.9808  7.0109e+18
47.0981  6.58188e+18
47.2154  7.99934e+18
47.3327  1.18946e+19
47.45  1.83748e+19
47.5673  2.68752e+19
47.6846  3.62061e+19
47.8019  4.48147e+19
47.9192  5.11812e+19
48.0365  5.40605e+19
48.1538  5.29197e+19
48.2711  4.80077e+19
48.3884  4.03648e+19
48.5057  3.14393e+19
48.623  2.28891e+19
48.7403  1.60756e+19
48.8576  1.18072e+19
48.9749  1.02352e+19
49.0922  1.08446e+19
49.2095  1.27103e+19
49.3269  1.4747e+19
49.4442  1.60451e+19
49.5615  1.61011e+19
49.6788  1.48902e+19
49.7961  1.28255e+19
49.9134  1.05866e+19
50.0307  8.88953e+18
50.148  8.31546e+18
50.2653  9.16054e+18
50.3826  1.14e+19
50.4999  1.47397e+19
50.6172  1.87607e+19
50.7345  2.30187e+19
50.8518  2.71729e+19
