#S 1 spectral density
#N 2
#UFWHM 9.50171
#L  abscissas [um]  spectral density
-58.5938  2.73559e+19
-58.4764  2.11158e+19
-58.3591  1.65594e+19
-58.2418  1.4197e+19
-58.1245  1.41419e+19
-58.0072  1.60969e+19
-57.8899  1.94422e+19
-57.7726  2.33497e+19
-57.6553  2.69581e+19
-57.538  2.95208e+19
-57.4207  3.05662e+19
-57.3034  2.99195e+19
-57.1861  2.76929e+19
-57.0688  2.42728e+19
-56.9515  2.01494e+19
-56.8342  1.589e+19
-56.7169  1.19738e+19
-56.5996  8.75901e+18
-56.4823  6.47423e+18
-56.365  5.20714e+18
-56.2477  4.92552e+18
-56.1303  5.54549e+18
-56.013  6.93005e+18
-55.8957  8.95404e+18
-55.7784  1.1476e+19
-55.6611  1.43667e+19
-55.5438  1.75214e+19
-55.4265  2.07802e+19
-55.3092  2.3985e+19
-55.1919  2.69595e+19
-55.0746  2.94733e+19
-54.9573  3.13231e+19
-54.84  3.22739e+19
-54.7227  3.21402e+19
-54.6054  3.08254e+19
-54.4881  2.8341e+19
-54.3708  2.4831e+19
-54.2535  2.05284e+19
-54.1362  1.58416e+19
-54.0189  1.12273e+19
-53.9016  7.1638e+18
-53.7842  4.10009e+18
-53.6669  2.39545e+18
-53.5496  2.25649e+18
-53.4323  3.74622e+18
-53.315  6.76365e+18
-53.1977  1.1093e+19
-53.0804  1.64116e+19
-52.9631  2.23543e+19
-52.8458  2.85034e+19
-52.7285  3.44633e+19
-52.6112  3.9799e+19
-52.4939  4.41455e+19
-52.3766  4.71302e+19
-52.2593  4.84902e+19
-52.142  4.80267e+19
-52.0247  4.57229e+19
-51.9074  4.1741e+19
-51.7901  3.64761e+19
-51.6728  3.05103e+19
-51.5555  2.45929e+19
-51.4381  1.95259e+19
-51.3208  1.60911e+19
-51.2035  1.49017e+19
-51.0862  1.63029e+19
-50.9689  2.03198e+19
-50.8516  2.66313e+19
-50.7343  3.45278e+19
-50.617  4.31055e+19
-50.4997  5.13395e+19
-50.3824  5.81345e+19
-50.2651  6.27142e+19
-50.1478  6.4388e+19
-50.0305  6.30756e+19
-49.9132  5.88461e+19
-49.7959  5.23133e+19
-49.6786  4.43582e+19
-49.5613  3.59887e+19
-49.444  2.82321e+19
-49.3267  2.20333e+19
-49.2094  1.79926e+19
-49.092  1.64195e+19
-48.9747  1.72403e+19
-48.8574  2.00609e+19
-48.7401  2.42231e+19
-48.6228  2.89757e+19
-48.5055  3.3539e+19
-48.3882  3.72637e+19
-48.2709  3.96819e+19
-48.1536  4.05295e+19
-48.0363  3.97712e+19
-47.919  3.75321e+19
-47.8017  3.40476e+19
-47.6844  2.96437e+19
-47.5671  2.46717e+19
-47.4498  1.95168e+19
-47.3325  1.45735e+19
-47.2152  1.0265e+19
-47.0979  7.00809e+18
-46.9806  5.1953e+18
-46.8633  5.14452e+18
-46.7459  7.02207e+18
-46.6286  1.08293e+19
-46.5113  1.63122e+19
-46.394  2.30266e+19
-46.2767  3.02969e+19
-46.1594  3.73874e+19
-46.0421  4.35378e+19
-45.9248  4.81023e+19
-45.8075  5.06095e+19
-45.6902  5.0855e+19
-45.5729  4.89129e+19
-45.4556  4.51302e+19
-45.3383  3.99683e+19
-45.221  3.40897e+19
-45.1037  2.80901e+19
-44.9864  2.25365e+19
-44.8691  1.79149e+19
-44.7518  1.45161e+19
-44.6345  1.24736e+19
-44.5172  1.18106e+19
-44.3998  1.24032e+19
-44.2825  1.40495e+19
-44.1652  1.64706e+19
-44.0479  1.9407e+19
-43.9306  2.25474e+19
-43.8133  2.56627e+19
-43.696  2.85293e+19
-43.5787  3.0947e+19
-43.4614  3.27463e+19
-43.3441  3.3813e+19
-43.2268  3.4044e+19
-43.1095  3.33899e+19
-42.9922  3.18165e+19
-42.8749  2.9374e+19
-42.7576  2.61635e+19
-42.6403  2.23959e+19
-42.523  1.83076e+19
-42.4057  1.42423e+19
-42.2884  1.05398e+19
-42.171  7.53491e+18
-42.0537  5.55162e+18
-41.9364  4.77568e+18
-41.8191  5.33122e+18
-41.7018  7.20719e+18
-41.5845  1.03274e+19
-41.4672  1.45067e+19
-41.3499  1.95457e+19
-41.2326  2.51779e+19
-41.1153  3.11071e+19
-40.998  3.70362e+19
-40.8807  4.26025e+19
-40.7634  4.7391e+19
-40.6461  5.10249e+19
-40.5288  5.31435e+19
-40.4115  5.34926e+19
-40.2942  5.19368e+19
-40.1769  4.85589e+19
-40.0596  4.36848e+19
-39.9423  3.77576e+19
-39.825  3.13842e+19
-39.7076  2.51882e+19
-39.5903  1.97049e+19
-39.473  1.52989e+19
-39.3557  1.20935e+19
-39.2384  1.00118e+19
-39.1211  8.81023e+18
-39.0038  8.18701e+18
-38.8865  7.87183e+18
-38.7692  7.72439e+18
-38.6519  7.76595e+18
-38.5346  8.15735e+18
-38.4173  9.12921e+18
-38.3  1.08783e+19
-38.1827  1.34724e+19
-38.0654  1.67553e+19
-37.9481  2.03794e+19
-37.8308  2.38291e+19
-37.7135  2.65453e+19
-37.5962  2.8031e+19
-37.4789  2.80344e+19
-37.3615  2.66072e+19
-37.2442  2.411e+19
-37.1269  2.11927e+19
-37.0096  1.86221e+19
-36.8923  1.7193e+19
-36.775  1.75391e+19
-36.6577  1.99954e+19
-36.5404  2.458e+19
-36.4231  3.09711e+19
-36.3058  3.85884e+19
-36.1885  4.66969e+19
-36.0712  5.45231e+19
-35.9539  6.13965e+19
-35.8366  6.67873e+19
-35.7193  7.03598e+19
-35.602  7.20801e+19
-35.4847  7.20547e+19
-35.3674  7.06012e+19
-35.2501  6.81697e+19
-35.1328  6.53126e+19
-35.0154  6.26163e+19
-34.8981  6.05926e+19
-34.7808  5.96975e+19
-34.6635  6.02449e+19
-34.5462  6.2246e+19
-34.4289  6.55877e+19
-34.3116  6.98228e+19
-34.1943  7.43614e+19
-34.077  7.85093e+19
-33.9597  8.15894e+19
-33.8424  8.30091e+19
-33.7251  8.24822e+19
-33.6078  7.99492e+19
-33.4905  7.56457e+19
-33.3732  7.01007e+19
-33.2559  6.39639e+19
-33.1386  5.79258e+19
-33.0213  5.26189e+19
-32.904  4.85154e+19
-32.7867  4.58336e+19
-32.6693  4.45696e+19
-32.552  4.45323e+19
-32.4347  4.53265e+19
-32.3174  4.65797e+19
-32.2001  4.7882e+19
-32.0828  4.89282e+19
-31.9655  4.95805e+19
-31.8482  4.97373e+19
-31.7309  4.94924e+19
-31.6136  4.89787e+19
-31.4963  4.83574e+19
-31.379  4.77891e+19
-31.2617  4.73274e+19
-31.1444  4.70151e+19
-31.0271  4.68057e+19
-30.9098  4.65964e+19
-30.7925  4.62687e+19
-30.6752  4.57284e+19
-30.5579  4.48976e+19
-30.4406  4.38328e+19
-30.3232  4.26055e+19
-30.2059  4.14092e+19
-30.0886  4.03997e+19
-29.9713  3.97554e+19
-29.854  3.96656e+19
-29.7367  4.01495e+19
-29.6194  4.12236e+19
-29.5021  4.27556e+19
-29.3848  4.45975e+19
-29.2675  4.65423e+19
-29.1502  4.83693e+19
-29.0329  4.98386e+19
-28.9156  5.08254e+19
-28.7983  5.11621e+19
-28.681  5.08237e+19
-28.5637  4.97996e+19
-28.4464  4.8125e+19
-28.3291  4.59425e+19
-28.2118  4.34098e+19
-28.0944  4.07445e+19
-27.9771  3.81709e+19
-27.8598  3.59441e+19
-27.7425  3.4271e+19
-27.6252  3.32971e+19
-27.5079  3.30854e+19
-27.3906  3.35756e+19
-27.2733  3.4607e+19
-27.156  3.59608e+19
-27.0387  3.73133e+19
-26.9214  3.8386e+19
-26.8041  3.89118e+19
-26.6868  3.87261e+19
-26.5695  3.77605e+19
-26.4522  3.60772e+19
-26.3349  3.37797e+19
-26.2176  3.10633e+19
-26.1003  2.8133e+19
-25.983  2.52186e+19
-25.8657  2.24875e+19
-25.7483  2.00431e+19
-25.631  1.79348e+19
-25.5137  1.61763e+19
-25.3964  1.4758e+19
-25.2791  1.36863e+19
-25.1618  1.3042e+19
-25.0445  1.298e+19
-24.9272  1.37911e+19
-24.8099  1.58788e+19
-24.6926  1.971e+19
-24.5753  2.57536e+19
-24.458  3.44091e+19
-24.3407  4.58427e+19
-24.2234  5.99141e+19
-24.1061  7.61075e+19
-23.9888  9.35487e+19
-23.8715  1.1101e+20
-23.7542  1.26997e+20
-23.6369  1.40081e+20
-23.5196  1.48962e+20
-23.4023  1.52627e+20
-23.2849  1.50745e+20
-23.1676  1.43385e+20
-23.0503  1.31254e+20
-22.933  1.15559e+20
-22.8157  9.76751e+19
-22.6984  7.92597e+19
-22.5811  6.17763e+19
-22.4638  4.64235e+19
-22.3465  3.41678e+19
-22.2292  2.55036e+19
-22.1119  2.06456e+19
-21.9946  1.95206e+19
-21.8773  2.18391e+19
-21.76  2.71705e+19
-21.6427  3.49701e+19
-21.5254  4.46656e+19
-21.4081  5.55896e+19
-21.2908  6.70982e+19
-21.1735  7.85078e+19
-21.0561  8.91843e+19
-20.9388  9.86384e+19
-20.8215  1.06492e+20
-20.7042  1.12661e+20
-20.5869  1.17289e+20
-20.4696  1.20864e+20
-20.3523  1.2403e+20
-20.235  1.27724e+20
-20.1177  1.32801e+20
-20.0004  1.40166e+20
-19.8831  1.50575e+20
-19.7658  1.64386e+20
-19.6485  1.81707e+20
-19.5312  2.02218e+20
-19.4139  2.25299e+20
-19.2966  2.50025e+20
-19.1793  2.75198e+20
-19.062  2.99559e+20
-18.9447  3.21864e+20
-18.8274  3.40885e+20
-18.71  3.55727e+20
-18.5927  3.65646e+20
-18.4754  3.70074e+20
-18.3581  3.6904e+20
-18.2408  3.62405e+20
-18.1235  3.50724e+20
-18.0062  3.34377e+20
-17.8889  3.14285e+20
-17.7716  2.91426e+20
-17.6543  2.6675e+20
-17.537  2.417e+20
-17.4197  2.17524e+20
-17.3024  1.95679e+20
-17.1851  1.77531e+20
-17.0678  1.64399e+20
-16.9505  1.57426e+20
-16.8332  1.57425e+20
-16.7159  1.64826e+20
-16.5986  1.79676e+20
-16.4813  2.01503e+20
-16.364  2.29424e+20
-16.2466  2.6211e+20
-16.1293  2.97963e+20
-16.012  3.35122e+20
-15.8947  3.7172e+20
-15.7774  4.05886e+20
-15.6601  4.36026e+20
-15.5428  4.60928e+20
-15.4255  4.79917e+20
-15.3082  4.92804e+20
-15.1909  5.00013e+20
-15.0736  5.0266e+20
-14.9563  5.02299e+20
-14.839  5.00782e+20
-14.7217  5.00252e+20
-14.6044  5.02668e+20
-14.4871  5.09578e+20
-14.3698  5.22243e+20
-14.2525  5.41203e+20
-14.1352  5.66397e+20
-14.0178  5.96984e+20
-13.9005  6.31777e+20
-13.7832  6.69226e+20
-13.6659  7.07586e+20
-13.5486  7.45248e+20
-13.4313  7.81e+20
-13.314  8.1385e+20
-13.1967  8.43447e+20
-13.0794  8.69639e+20
-12.9621  8.93223e+20
-12.8448  9.14735e+20
-12.7275  9.35509e+20
-12.6102  9.56404e+20
-12.4929  9.78636e+20
-12.3756  1.00309e+21
-12.2583  1.03029e+21
-12.141  1.06052e+21
-12.0237  1.09388e+21
-11.9064  1.13013e+21
-11.7891  1.16858e+21
-11.6718  1.20872e+21
-11.5544  1.24975e+21
-11.4371  1.29098e+21
-11.3198  1.33211e+21
-11.2025  1.37261e+21
-11.0852  1.4125e+21
-10.9679  1.45201e+21
-10.8506  1.49138e+21
-10.7333  1.53124e+21
-10.616  1.57235e+21
-10.4987  1.61535e+21
-10.3814  1.66104e+21
-10.2641  1.71021e+21
-10.1468  1.76399e+21
-10.0295  1.82293e+21
-9.91217  1.88835e+21
-9.79487  1.9613e+21
-9.67756  2.04287e+21
-9.56026  2.13425e+21
-9.44295  2.23638e+21
-9.32565  2.35043e+21
-9.20834  2.47691e+21
-9.09104  2.61663e+21
-8.97373  2.76969e+21
-8.85643  2.93632e+21
-8.73913  3.11655e+21
-8.62182  3.30992e+21
-8.50452  3.51581e+21
-8.38721  3.73398e+21
-8.26991  3.96334e+21
-8.1526  4.20317e+21
-8.03529  4.45208e+21
-7.91799  4.70895e+21
-7.80069  4.97201e+21
-7.68338  5.23925e+21
-7.56608  5.50885e+21
-7.44877  5.77841e+21
-7.33146  6.04543e+21
-7.21416  6.30744e+21
-7.09685  6.56187e+21
-6.97955  6.80635e+21
-6.86224  7.03851e+21
-6.74494  7.256e+21
-6.62763  7.457e+21
-6.51033  7.63975e+21
-6.39302  7.80278e+21
-6.27572  7.9454e+21
-6.15842  8.06737e+21
-6.04111  8.16877e+21
-5.92381  8.25069e+21
-5.8065  8.31517e+21
-5.68919  8.36454e+21
-5.57189  8.40264e+21
-5.45458  8.43389e+21
-5.33728  8.46316e+21
-5.21997  8.49602e+21
-5.10267  8.53815e+21
-4.98536  8.5952e+21
-4.86806  8.67189e+21
-4.75075  8.77237e+21
-4.63345  8.89962e+21
-4.51614  9.05466e+21
-4.39884  9.23691e+21
-4.28154  9.44409e+21
-4.16423  9.67262e+21
-4.04692  9.91608e+21
-3.92962  1.01682e+22
-3.81231  1.04219e+22
-3.69501  1.06693e+22
-3.5777  1.0904e+22
-3.4604  1.11198e+22
-3.34309  1.13123e+22
-3.22579  1.14788e+22
-3.10849  1.16195e+22
-2.99118  1.17352e+22
-2.87387  1.18303e+22
-2.75657  1.19097e+22
-2.63926  1.19802e+22
-2.52196  1.20492e+22
-2.40465  1.21249e+22
-2.28735  1.22147e+22
-2.17005  1.23259e+22
-2.05274  1.24654e+22
-1.93544  1.26375e+22
-1.81813  1.28463e+22
-1.70083  1.30936e+22
-1.58352  1.33797e+22
-1.46622  1.37028e+22
-1.34891  1.40584e+22
-1.2316  1.44413e+22
-1.1143  1.48433e+22
-0.996995  1.52549e+22
-0.87969  1.56649e+22
-0.762385  1.60611e+22
-0.64508  1.64311e+22
-0.527775  1.67625e+22
-0.41047  1.70437e+22
-0.293165  1.7264e+22
-0.17586  1.74157e+22
-0.058555  1.7493e+22
0.05875  1.74928e+22
0.176055  1.74148e+22
0.29336  1.72632e+22
0.410665  1.70426e+22
0.52797  1.67619e+22
0.645275  1.64313e+22
0.76258  1.60627e+22
0.879885  1.56681e+22
0.99719  1.52605e+22
1.1145  1.48515e+22
1.2318  1.44526e+22
1.3491  1.40727e+22
1.46641  1.37201e+22
1.58371  1.34004e+22
1.70102  1.31175e+22
1.81832  1.2873e+22
1.93563  1.26671e+22
2.05294  1.24975e+22
2.17024  1.23605e+22
2.28754  1.22508e+22
2.40485  1.21622e+22
2.52216  1.20875e+22
2.63946  1.20185e+22
2.75677  1.19477e+22
2.87407  1.18676e+22
2.99137  1.17714e+22
3.10868  1.1654e+22
3.22599  1.15116e+22
3.34329  1.1343e+22
3.4606  1.11482e+22
3.5779  1.09303e+22
3.69521  1.06938e+22
3.81251  1.04444e+22
3.92982  1.01891e+22
4.04712  9.93571e+21
4.16443  9.6914e+21
4.28173  9.46268e+21
4.39903  9.25533e+21
4.51634  9.07341e+21
4.63364  8.91917e+21
4.75095  8.793e+21
4.86825  8.69371e+21
4.98556  8.6183e+21
5.10286  8.56293e+21
5.22017  8.52179e+21
5.33748  8.49024e+21
5.45478  8.46186e+21
5.57209  8.43138e+21
5.68939  8.39364e+21
5.8067  8.34416e+21
5.924  8.27936e+21
6.0413  8.19702e+21
6.15861  8.0949e+21
6.27591  7.97187e+21
6.39322  7.82821e+21
6.51052  7.66387e+21
6.62783  7.47989e+21
6.74514  7.27759e+21
6.86244  7.05893e+21
6.97975  6.8257e+21
7.09705  6.58052e+21
7.21436  6.32548e+21
7.33166  6.06285e+21
7.44897  5.79562e+21
7.56627  5.52599e+21
7.68358  5.25626e+21
7.80088  4.9888e+21
7.91819  4.72565e+21
8.03549  4.46867e+21
8.1528  4.21955e+21
8.2701  3.97933e+21
8.38741  3.7496e+21
8.50471  3.53089e+21
8.62202  3.3246e+21
8.73932  3.13077e+21
8.85662  2.95013e+21
8.97393  2.78303e+21
9.09123  2.62968e+21
9.20854  2.48969e+21
9.32584  2.3629e+21
9.44315  2.24874e+21
9.56045  2.1464e+21
9.67776  2.05498e+21
9.79506  1.97323e+21
9.91237  1.90025e+21
10.0297  1.83471e+21
10.147  1.77555e+21
10.2643  1.72168e+21
10.3816  1.67235e+21
10.4989  1.62642e+21
10.6162  1.58327e+21
10.7335  1.54184e+21
10.8508  1.50158e+21
10.9681  1.46179e+21
11.0854  1.42201e+21
11.2027  1.38165e+21
11.32  1.34073e+21
11.4373  1.29927e+21
11.5546  1.2575e+21
11.6719  1.21607e+21
11.7893  1.17553e+21
11.9066  1.13661e+21
12.0239  1.1001e+21
12.1412  1.06638e+21
12.2585  1.03574e+21
12.3758  1.00827e+21
12.4931  9.83559e+20
12.6104  9.61071e+20
12.7277  9.39821e+20
12.845  9.18676e+20
12.9623  8.96852e+20
13.0796  8.73021e+20
13.1969  8.46355e+20
13.3142  8.16554e+20
13.4315  7.83459e+20
13.5488  7.47448e+20
13.6661  7.09549e+20
13.7834  6.71137e+20
13.9007  6.33629e+20
14.018  5.98832e+20
14.1354  5.68391e+20
14.2527  5.43415e+20
14.37  5.24587e+20
14.4873  5.12206e+20
14.6046  5.05479e+20
14.7219  5.03313e+20
14.8392  5.0396e+20
14.9565  5.05502e+20
15.0738  5.05907e+20
15.1911  5.03159e+20
15.3084  4.95852e+20
15.4257  4.82891e+20
15.543  4.63776e+20
15.6603  4.38655e+20
15.7776  4.0826e+20
15.8949  3.73874e+20
16.0122  3.37056e+20
16.1295  2.99702e+20
16.2468  2.63661e+20
16.3641  2.30835e+20
16.4815  2.02781e+20
16.5988  1.8086e+20
16.7161  1.66e+20
16.8334  1.58566e+20
16.9507  1.58621e+20
17.068  1.65666e+20
17.1853  1.78869e+20
17.3026  1.97078e+20
17.4199  2.19052e+20
17.5372  2.43362e+20
17.6545  2.68443e+20
17.7718  2.93058e+20
17.8891  3.15981e+20
18.0064  3.35955e+20
18.1237  3.52057e+20
18.241  3.63647e+20
18.3583  3.70056e+20
18.4756  3.70911e+20
18.5929  3.6622e+20
18.7102  3.56222e+20
18.8275  3.41208e+20
18.9449  3.22077e+20
19.0622  2.99734e+20
19.1795  2.75376e+20
19.2968  2.50326e+20
19.4141  2.25715e+20
19.5314  2.02775e+20
19.6487  1.82455e+20
19.766  1.65285e+20
19.8833  1.51671e+20
20.0006  1.41398e+20
20.1179  1.34104e+20
20.2352  1.29034e+20
20.3525  1.25344e+20
20.4698  1.22122e+20
20.5871  1.18466e+20
20.7044  1.13688e+20
20.8217  1.07369e+20
20.939  9.93349e+19
21.0563  8.97404e+19
21.1736  7.88948e+19
21.291  6.73501e+19
21.4083  5.57265e+19
21.5256  4.4718e+19
21.6429  3.49836e+19
21.7602  2.71781e+19
21.8775  2.18992e+19
21.9948  1.96753e+19
22.1121  2.09344e+19
22.2294  2.59689e+19
22.3467  3.48462e+19
22.464  4.73265e+19
22.5813  6.28882e+19
22.6986  8.05546e+19
22.8159  9.90622e+19
22.9332  1.1697e+20
23.0505  1.32652e+20
23.1678  1.44656e+20
23.2851  1.51874e+20
23.4024  1.53534e+20
23.5198  1.49573e+20
23.6371  1.40472e+20
23.7544  1.27156e+20
23.8717  1.1099e+20
23.989  9.34089e+19
24.1063  7.59196e+19
24.2236  5.96994e+19
24.3409  4.56633e+19
24.4582  3.42945e+19
24.5755  2.57032e+19
24.6928  1.97172e+19
24.8101  1.59487e+19
24.9274  1.39071e+19
25.0447  1.31324e+19
25.162  1.32276e+19
25.2793  1.39089e+19
25.3966  1.5009e+19
25.5139  1.6467e+19
25.6312  1.82659e+19
25.7485  2.04063e+19
25.8658  2.2878e+19
25.9832  2.5645e+19
26.1005  2.85591e+19
26.2178  3.1466e+19
26.3351  3.41749e+19
26.4524  3.64516e+19
26.5697  3.8104e+19
26.687  3.90204e+19
26.8043  3.91496e+19
26.9216  3.85812e+19
27.0389  3.75035e+19
27.1562  3.6139e+19
27.2735  3.48178e+19
27.3908  3.38016e+19
27.5081  3.33273e+19
27.6254  3.35765e+19
27.7427  3.4559e+19
27.86  3.62509e+19
27.9773  3.84864e+19
28.0946  4.10488e+19
28.212  4.36903e+19
28.3293  4.61935e+19
28.4466  4.83125e+19
28.5639  4.99233e+19
28.6812  5.08868e+19
28.7985  5.11524e+19
28.9158  5.07352e+19
29.0331  4.96834e+19
29.1504  4.81524e+19
29.2677  4.62845e+19
29.385  4.43188e+19
29.5023  4.24498e+19
29.6196  4.09156e+19
29.7369  3.9874e+19
29.8542  3.94269e+19
29.9715  3.95848e+19
30.0888  4.0263e+19
30.2061  4.13445e+19
30.3234  4.26225e+19
30.4407  4.39077e+19
30.558  4.50492e+19
30.6754  4.59212e+19
30.7927  4.65722e+19
30.91  4.69883e+19
31.0273  4.72608e+19
31.1446  4.75209e+19
31.2619  4.7893e+19
31.3792  4.83687e+19
31.4965  4.89586e+19
31.6138  4.9575e+19
31.7311  5.00732e+19
31.8484  5.02722e+19
31.9657  5.00512e+19
32.083  4.93743e+19
32.2003  4.8259e+19
32.3176  4.69084e+19
32.4349  4.56476e+19
32.5522  4.48315e+19
32.6695  4.48737e+19
32.7868  4.61238e+19
32.9042  4.8785e+19
33.0215  5.28462e+19
33.1388  5.80887e+19
33.2561  6.4029e+19
33.3734  7.00733e+19
33.4907  7.54816e+19
33.608  7.96627e+19
33.7253  8.21161e+19
33.8426  8.25634e+19
33.9599  8.11267e+19
34.0772  7.80821e+19
34.1945  7.40019e+19
34.3118  6.95746e+19
34.4291  6.54936e+19
34.5464  6.23107e+19
34.6637  6.04176e+19
34.781  6.00381e+19
34.8983  6.10058e+19
35.0156  6.30775e+19
35.1329  6.58163e+19
35.2503  6.86637e+19
35.3676  7.10503e+19
35.4849  7.24469e+19
35.6022  7.23914e+19
35.7195  7.05957e+19
35.8368  6.6913e+19
35.9541  6.14525e+19
36.0714  5.44998e+19
36.1887  4.6618e+19
36.306  3.84624e+19
36.4233  3.08188e+19
36.5406  2.4411e+19
36.6579  1.98294e+19
36.7752  1.73748e+19
36.8925  1.70343e+19
37.0098  1.84607e+19
37.1271  2.10158e+19
37.2444  2.39338e+19
37.3617  2.6433e+19
37.479  2.78592e+19
37.5964  2.78585e+19
37.7137  2.6402e+19
37.831  2.37185e+19
37.9483  2.03178e+19
38.0656  1.67252e+19
38.1829  1.34761e+19
38.3002  1.09141e+19
38.4175  9.18383e+18
38.5348  8.21601e+18
38.6521  7.82039e+18
38.7694  7.76943e+18
38.8867  7.9116e+18
39.004  8.23491e+18
39.1213  8.88388e+18
39.2386  1.01236e+19
39.3559  1.22625e+19
39.4732  1.55327e+19
39.5905  2.00085e+19
39.7078  2.55447e+19
39.8251  3.17623e+19
39.9425  3.81371e+19
40.0598  4.40478e+19
40.1771  4.89034e+19
40.2944  5.21976e+19
40.4117  5.37067e+19
40.529  5.33003e+19
40.6463  5.10965e+19
40.7636  4.74046e+19
40.8809  4.25655e+19
40.9982  3.69681e+19
41.1155  3.10125e+19
41.2328  2.5053e+19
41.3501  1.94096e+19
41.4674  1.43686e+19
41.5847  1.01947e+19
41.702  7.10348e+18
41.8193  5.26072e+18
41.9366  4.75647e+18
42.0539  5.58818e+18
42.1712  7.63939e+18
42.2885  1.06944e+19
42.4059  1.44487e+19
42.5232  1.85538e+19
42.6405  2.26776e+19
42.7578  2.6461e+19
42.8751  2.96519e+19
42.9924  3.20757e+19
43.1097  3.36199e+19
43.227  3.42282e+19
43.3443  3.39593e+19
43.4616  3.2852e+19
43.5789  3.10119e+19
43.6962  2.85665e+19
43.8135  2.56906e+19
43.9308  2.2544e+19
44.0481  1.93817e+19
44.1654  1.64497e+19
44.2827  1.40369e+19
44.4  1.24287e+19
44.5173  1.1873e+19
44.6347  1.25693e+19
44.752  1.46354e+19
44.8693  1.80522e+19
44.9866  2.26976e+19
45.1039  2.82146e+19
45.2212  3.4185e+19
45.3385  4.00189e+19
45.4558  4.50927e+19
45.5731  4.87917e+19
45.6904  5.06422e+19
45.8077  5.03019e+19
45.925  4.77267e+19
46.0423  4.31211e+19
46.1596  3.69588e+19
46.2769  2.98778e+19
46.3942  2.26662e+19
46.5115  1.60265e+19
46.6288  1.06329e+19
46.7461  6.92673e+18
46.8634  5.14511e+18
46.9808  5.29261e+18
47.0981  7.18458e+18
47.2154  1.05068e+19
47.3327  1.48652e+19
47.45  1.98507e+19
47.5673  2.5036e+19
47.6846  3.0027e+19
47.8019  3.44351e+19
47.9192  3.79125e+19
48.0365  4.01191e+19
48.1538  4.08252e+19
48.2711  3.98894e+19
48.3884  3.73897e+19
48.5057  3.3562e+19
48.623  2.89143e+19
48.7403  2.41077e+19
48.8576  1.99083e+19
48.9749  1.71121e+19
49.0922  1.63495e+19
49.2095  1.80067e+19
49.3269  2.21673e+19
49.4442  2.84882e+19
49.5615  3.63268e+19
49.6788  4.47399e+19
49.7961  5.27155e+19
49.9134  5.91671e+19
50.0307  6.3293e+19
50.148  6.45427e+19
50.2653  6.27118e+19
50.3826  5.8043e+19
50.4999  5.11387e+19
50.6172  4.28804e+19
50.7345  3.43085e+19
50.8518  2.6463e+19
50.9691  2.02304e+19
