#S 1 spectral density
#N 2
#UFWHM 12.5516
#L  abscissas [um]  spectral density
-58.5938  1.60747e+19
-58.4764  2.00149e+19
-58.3591  2.4065e+19
-58.2418  2.76821e+19
-58.1245  3.03219e+19
-58.0072  3.13981e+19
-57.8899  3.05993e+19
-57.7726  2.78557e+19
-57.6553  2.34206e+19
-57.538  1.7903e+19
-57.4207  1.21402e+19
-57.3034  6.9916e+18
-57.1861  3.23921e+18
-57.0688  1.37722e+18
-56.9515  1.52681e+18
-56.8342  3.42416e+18
-56.7169  6.48501e+18
-56.5996  9.97612e+18
-56.4823  1.31321e+19
-56.365  1.53549e+19
-56.2477  1.62876e+19
-56.1303  1.5878e+19
-56.013  1.43018e+19
-55.8957  1.19478e+19
-55.7784  9.23735e+18
-55.6611  6.59477e+18
-55.5438  4.34146e+18
-55.4265  2.63798e+18
-55.3092  1.55319e+18
-55.1919  1.03143e+18
-55.0746  9.65079e+17
-54.9573  1.21161e+18
-54.84  1.63754e+18
-54.7227  2.11153e+18
-54.6054  2.55167e+18
-54.4881  2.89928e+18
-54.3708  3.13989e+18
-54.2535  3.32434e+18
-54.1362  3.55718e+18
-54.0189  3.98261e+18
-53.9016  4.77797e+18
-53.7842  6.09776e+18
-53.6669  8.03595e+18
-53.5496  1.05673e+19
-53.4323  1.35736e+19
-53.315  1.67757e+19
-53.1977  1.98267e+19
-53.0804  2.23748e+19
-52.9631  2.40314e+19
-52.8458  2.45503e+19
-52.7285  2.38402e+19
-52.6112  2.19289e+19
-52.4939  1.90255e+19
-52.3766  1.54699e+19
-52.2593  1.17e+19
-52.142  8.17091e+18
-52.0247  5.32476e+18
-51.9074  3.54134e+18
-51.7901  3.09864e+18
-51.6728  4.14064e+18
-51.5555  6.65767e+18
-51.4381  1.05055e+19
-51.3208  1.53711e+19
-51.2035  2.08631e+19
-51.0862  2.6506e+19
-50.9689  3.18594e+19
-50.8516  3.65285e+19
-50.7343  4.01956e+19
-50.617  4.27227e+19
-50.4997  4.41374e+19
-50.3824  4.45168e+19
-50.2651  4.41097e+19
-50.1478  4.30641e+19
-50.0305  4.16352e+19
-49.9132  3.9839e+19
-49.7959  3.77375e+19
-49.6786  3.52939e+19
-49.5613  3.24209e+19
-49.444  2.90444e+19
-49.3267  2.51648e+19
-49.2094  2.08524e+19
-49.092  1.62742e+19
-48.9747  1.17175e+19
-48.8574  7.53023e+18
-48.7401  4.10191e+18
-48.6228  1.79994e+18
-48.5055  9.44385e+17
-48.3882  1.72479e+18
-48.2709  4.17672e+18
-48.1536  8.14438e+18
-48.0363  1.32976e+19
-47.919  1.91272e+19
-47.8017  2.50177e+19
-47.6844  3.03349e+19
-47.5671  3.45158e+19
-47.4498  3.71682e+19
-47.3325  3.80429e+19
-47.2152  3.72142e+19
-47.0979  3.48866e+19
-46.9806  3.14944e+19
-46.8633  2.74791e+19
-46.7459  2.32446e+19
-46.6286  1.91538e+19
-46.5113  1.53826e+19
-46.394  1.20446e+19
-46.2767  9.10802e+18
-46.1594  6.55236e+18
-46.0421  4.37991e+18
-45.9248  2.60602e+18
-45.8075  1.29337e+18
-45.6902  4.98874e+17
-45.5729  2.26468e+17
-45.4556  4.08502e+17
-45.3383  8.78413e+17
-45.221  1.42225e+18
-45.1037  1.81543e+18
-44.9864  1.90703e+18
-44.8691  1.66901e+18
-44.7518  1.20491e+18
-44.6345  7.42528e+17
-44.5172  5.5757e+17
-44.3998  8.67382e+17
-44.2825  1.76386e+18
-44.1652  3.15317e+18
-44.0479  4.77373e+18
-43.9306  6.24548e+18
-43.8133  7.20127e+18
-43.696  7.37365e+18
-43.5787  6.73875e+18
-43.4614  5.53598e+18
-43.3441  4.2234e+18
-43.2268  3.40486e+18
-43.1095  3.68882e+18
-42.9922  5.52666e+18
-42.8749  9.09729e+18
-42.7576  1.42688e+19
-42.6403  2.05553e+19
-42.523  2.73091e+19
-42.4057  3.37168e+19
-42.2884  3.90772e+19
-42.171  4.28252e+19
-42.0537  4.46802e+19
-41.9364  4.46329e+19
-41.8191  4.28807e+19
-41.7018  3.98938e+19
-41.5845  3.61049e+19
-41.4672  3.20298e+19
-41.3499  2.8043e+19
-41.2326  2.44237e+19
-41.1153  2.12934e+19
-40.998  1.8657e+19
-40.8807  1.64641e+19
-40.7634  1.46246e+19
-40.6461  1.31312e+19
-40.5288  1.20451e+19
-40.4115  1.16056e+19
-40.2942  1.22132e+19
-40.1769  1.43514e+19
-40.0596  1.85583e+19
-39.9423  2.52936e+19
-39.825  3.47802e+19
-39.7076  4.68682e+19
-39.5903  6.10271e+19
-39.473  7.62251e+19
-39.3557  9.10582e+19
-39.2384  1.03954e+20
-39.1211  1.13319e+20
-39.0038  1.17866e+20
-38.8865  1.16838e+20
-38.7692  1.10183e+20
-38.6519  9.85275e+19
-38.5346  8.31464e+19
-38.4173  6.57409e+19
-38.3  4.81853e+19
-38.1827  3.22166e+19
-38.0654  1.91464e+19
-37.9481  9.78742e+18
-37.8308  4.28928e+18
-37.7135  2.27875e+18
-37.5962  2.97226e+18
-37.4789  5.4067e+18
-37.3615  8.616e+18
-37.2442  1.18281e+19
-37.1269  1.44971e+19
-37.0096  1.64186e+19
-36.8923  1.75925e+19
-36.775  1.82045e+19
-36.6577  1.85031e+19
-36.5404  1.87822e+19
-36.4231  1.92272e+19
-36.3058  1.99847e+19
-36.1885  2.11087e+19
-36.0712  2.2608e+19
-35.9539  2.44056e+19
-35.8366  2.6419e+19
-35.7193  2.84831e+19
-35.602  3.03831e+19
-35.4847  3.19397e+19
-35.3674  3.29189e+19
-35.2501  3.31439e+19
-35.1328  3.24981e+19
-35.0154  3.09924e+19
-34.8981  2.87512e+19
-34.7808  2.60185e+19
-34.6635  2.30728e+19
-34.5462  2.02368e+19
-34.4289  1.78037e+19
-34.3116  1.59077e+19
-34.1943  1.45843e+19
-34.077  1.37554e+19
-33.9597  1.32285e+19
-33.8424  1.27935e+19
-33.7251  1.22428e+19
-33.6078  1.14749e+19
-33.4905  1.04729e+19
-33.3732  9.32954e+18
-33.2559  8.22167e+18
-33.1386  7.35119e+18
-33.0213  6.92062e+18
-32.904  7.07917e+18
-32.7867  7.898e+18
-32.6693  9.36308e+18
-32.552  1.14004e+19
-32.4347  1.38703e+19
-32.3174  1.6654e+19
-32.2001  1.96104e+19
-32.0828  2.26514e+19
-31.9655  2.57232e+19
-31.8482  2.88562e+19
-31.7309  3.2106e+19
-31.6136  3.55562e+19
-31.4963  3.93166e+19
-31.379  4.3472e+19
-31.2617  4.80815e+19
-31.1444  5.3104e+19
-31.0271  5.83733e+19
-30.9098  6.37416e+19
-30.7925  6.88041e+19
-30.6752  7.3255e+19
-30.5579  7.67173e+19
-30.4406  7.88818e+19
-30.3232  7.96246e+19
-30.2059  7.88442e+19
-30.0886  7.67156e+19
-29.9713  7.35931e+19
-29.854  6.98766e+19
-29.7367  6.60638e+19
-29.6194  6.27116e+19
-29.5021  6.02989e+19
-29.3848  5.9193e+19
-29.2675  5.96632e+19
-29.1502  6.18074e+19
-29.0329  6.56126e+19
-28.9156  7.08707e+19
-28.7983  7.72354e+19
-28.681  8.43267e+19
-28.5637  9.15745e+19
-28.4464  9.85107e+19
-28.3291  1.04591e+20
-28.2118  1.09369e+20
-28.0944  1.12543e+20
-27.9771  1.13959e+20
-27.8598  1.13582e+20
-27.7425  1.11635e+20
-27.6252  1.08274e+20
-27.5079  1.03916e+20
-27.3906  9.88462e+19
-27.2733  9.33987e+19
-27.156  8.78382e+19
-27.0387  8.23064e+19
-26.9214  7.69678e+19
-26.8041  7.18787e+19
-26.6868  6.70831e+19
-26.5695  6.25478e+19
-26.4522  5.82729e+19
-26.3349  5.428e+19
-26.2176  5.05134e+19
-26.1003  4.7003e+19
-25.983  4.37341e+19
-25.8657  4.07509e+19
-25.7483  3.81909e+19
-25.631  3.62125e+19
-25.5137  3.50896e+19
-25.3964  3.50788e+19
-25.2791  3.64622e+19
-25.1618  3.94752e+19
-25.0445  4.42808e+19
-24.9272  5.08751e+19
-24.8099  5.91863e+19
-24.6926  6.89851e+19
-24.5753  7.99579e+19
-24.458  9.17109e+19
-24.3407  1.03847e+20
-24.2234  1.15949e+20
-24.1061  1.27654e+20
-23.9888  1.38595e+20
-23.8715  1.48462e+20
-23.7542  1.56976e+20
-23.6369  1.63996e+20
-23.5196  1.69443e+20
-23.4023  1.73277e+20
-23.2849  1.75631e+20
-23.1676  1.76758e+20
-23.0503  1.76906e+20
-22.933  1.765e+20
-22.8157  1.75822e+20
-22.6984  1.75168e+20
-22.5811  1.74783e+20
-22.4638  1.7484e+20
-22.3465  1.75411e+20
-22.2292  1.76598e+20
-22.1119  1.78421e+20
-21.9946  1.80879e+20
-21.8773  1.84001e+20
-21.76  1.87822e+20
-21.6427  1.92303e+20
-21.5254  1.97434e+20
-21.4081  2.03257e+20
-21.2908  2.0981e+20
-21.1735  2.17223e+20
-21.0561  2.2572e+20
-20.9388  2.3551e+20
-20.8215  2.46899e+20
-20.7042  2.60177e+20
-20.5869  2.75482e+20
-20.4696  2.92708e+20
-20.3523  3.1151e+20
-20.235  3.31214e+20
-20.1177  3.51002e+20
-20.0004  3.69828e+20
-19.8831  3.86393e+20
-19.7658  3.99998e+20
-19.6485  4.09827e+20
-19.5312  4.15599e+20
-19.4139  4.1732e+20
-19.2966  4.15527e+20
-19.1793  4.10945e+20
-19.062  4.04542e+20
-18.9447  3.97349e+20
-18.8274  3.90427e+20
-18.71  3.84519e+20
-18.5927  3.80351e+20
-18.4754  3.78318e+20
-18.3581  3.78458e+20
-18.2408  3.80798e+20
-18.1235  3.84934e+20
-18.0062  3.90406e+20
-17.8889  3.96647e+20
-17.7716  4.02889e+20
-17.6543  4.08767e+20
-17.537  4.13646e+20
-17.4197  4.17374e+20
-17.3024  4.19839e+20
-17.1851  4.21324e+20
-17.0678  4.22294e+20
-16.9505  4.23365e+20
-16.8332  4.25371e+20
-16.7159  4.29259e+20
-16.5986  4.35996e+20
-16.4813  4.466e+20
-16.364  4.62063e+20
-16.2466  4.83341e+20
-16.1293  5.11043e+20
-16.012  5.46102e+20
-15.8947  5.88748e+20
-15.7774  6.39186e+20
-15.6601  6.97088e+20
-15.5428  7.61743e+20
-15.4255  8.31742e+20
-15.3082  9.05544e+20
-15.1909  9.80825e+20
-15.0736  1.05527e+21
-14.9563  1.12627e+21
-14.839  1.19165e+21
-14.7217  1.24903e+21
-14.6044  1.29713e+21
-14.4871  1.33487e+21
-14.3698  1.36216e+21
-14.2525  1.37931e+21
-14.1352  1.38741e+21
-14.0178  1.38799e+21
-13.9005  1.38293e+21
-13.7832  1.37423e+21
-13.6659  1.36381e+21
-13.5486  1.35374e+21
-13.4313  1.34568e+21
-13.314  1.34099e+21
-13.1967  1.34078e+21
-13.0794  1.34613e+21
-12.9621  1.3576e+21
-12.8448  1.37572e+21
-12.7275  1.40085e+21
-12.6102  1.43339e+21
-12.4929  1.4735e+21
-12.3756  1.52127e+21
-12.2583  1.57679e+21
-12.141  1.63997e+21
-12.0237  1.71052e+21
-11.9064  1.7878e+21
-11.7891  1.8712e+21
-11.6718  1.95985e+21
-11.5544  2.05259e+21
-11.4371  2.14811e+21
-11.3198  2.24516e+21
-11.2025  2.34236e+21
-11.0852  2.43863e+21
-10.9679  2.53301e+21
-10.8506  2.62474e+21
-10.7333  2.71337e+21
-10.616  2.7989e+21
-10.4987  2.88189e+21
-10.3814  2.96272e+21
-10.2641  3.04238e+21
-10.1468  3.12254e+21
-10.0295  3.20449e+21
-9.91217  3.28973e+21
-9.79487  3.38035e+21
-9.67756  3.47768e+21
-9.56026  3.58316e+21
-9.44295  3.69767e+21
-9.32565  3.82229e+21
-9.20834  3.95683e+21
-9.09104  4.10122e+21
-8.97373  4.25457e+21
-8.85643  4.41615e+21
-8.73913  4.58432e+21
-8.62182  4.75765e+21
-8.50452  4.93461e+21
-8.38721  5.11422e+21
-8.26991  5.29477e+21
-8.1526  5.47595e+21
-8.03529  5.65684e+21
-7.91799  5.8376e+21
-7.80069  6.01843e+21
-7.68338  6.19962e+21
-7.56608  6.38203e+21
-7.44877  6.56658e+21
-7.33146  6.75388e+21
-7.21416  6.94447e+21
-7.09685  7.13891e+21
-6.97955  7.33742e+21
-6.86224  7.53978e+21
-6.74494  7.74596e+21
-6.62763  7.95479e+21
-6.51033  8.16601e+21
-6.39302  8.37893e+21
-6.27572  8.59273e+21
-6.15842  8.8069e+21
-6.04111  9.02088e+21
-5.92381  9.2341e+21
-5.8065  9.44623e+21
-5.68919  9.65634e+21
-5.57189  9.86365e+21
-5.45458  1.0067e+22
-5.33728  1.0265e+22
-5.21997  1.04559e+22
-5.10267  1.0638e+22
-4.98536  1.08091e+22
-4.86806  1.09673e+22
-4.75075  1.1111e+22
-4.63345  1.1239e+22
-4.51614  1.13504e+22
-4.39884  1.14452e+22
-4.28154  1.15247e+22
-4.16423  1.15907e+22
-4.04692  1.16454e+22
-3.92962  1.1693e+22
-3.81231  1.17378e+22
-3.69501  1.17843e+22
-3.5777  1.18376e+22
-3.4604  1.19025e+22
-3.34309  1.1983e+22
-3.22579  1.20827e+22
-3.10849  1.22047e+22
-2.99118  1.23502e+22
-2.87387  1.25196e+22
-2.75657  1.27126e+22
-2.63926  1.29271e+22
-2.52196  1.31604e+22
-2.40465  1.34093e+22
-2.28735  1.36695e+22
-2.17005  1.39373e+22
-2.05274  1.42085e+22
-1.93544  1.44789e+22
-1.81813  1.47453e+22
-1.70083  1.50048e+22
-1.58352  1.52548e+22
-1.46622  1.54937e+22
-1.34891  1.57199e+22
-1.2316  1.59325e+22
-1.1143  1.61306e+22
-0.996995  1.63133e+22
-0.87969  1.648e+22
-0.762385  1.66287e+22
-0.64508  1.67596e+22
-0.527775  1.68709e+22
-0.41047  1.69613e+22
-0.293165  1.70299e+22
-0.17586  1.70759e+22
-0.058555  1.70988e+22
0.05875  1.70979e+22
0.176055  1.70735e+22
0.29336  1.70257e+22
0.410665  1.69556e+22
0.52797  1.68634e+22
0.645275  1.67506e+22
0.76258  1.66183e+22
0.879885  1.6468e+22
0.99719  1.63001e+22
1.1145  1.61163e+22
1.2318  1.5917e+22
1.3491  1.57034e+22
1.46641  1.54762e+22
1.58371  1.52363e+22
1.70102  1.49855e+22
1.81832  1.47252e+22
1.93563  1.44582e+22
2.05294  1.41871e+22
2.17024  1.39156e+22
2.28754  1.36476e+22
2.40485  1.33868e+22
2.52216  1.31378e+22
2.63946  1.29043e+22
2.75677  1.26896e+22
2.87407  1.24966e+22
2.99137  1.23269e+22
3.10868  1.21812e+22
3.22599  1.2059e+22
3.34329  1.1959e+22
3.4606  1.18784e+22
3.5779  1.18133e+22
3.69521  1.17597e+22
3.81251  1.1713e+22
3.92982  1.16677e+22
4.04712  1.16195e+22
4.16443  1.15643e+22
4.28173  1.14978e+22
4.39903  1.14176e+22
4.51634  1.13219e+22
4.63364  1.12098e+22
4.75095  1.10808e+22
4.86825  1.09362e+22
4.98556  1.07769e+22
5.10286  1.06049e+22
5.22017  1.04217e+22
5.33748  1.023e+22
5.45478  1.00311e+22
5.57209  9.82712e+21
5.68939  9.61921e+21
5.8067  9.40861e+21
5.924  9.19616e+21
6.0413  8.98288e+21
6.15861  8.76896e+21
6.27591  8.55481e+21
6.39322  8.3414e+21
6.51052  8.12884e+21
6.62783  7.91788e+21
6.74514  7.70935e+21
6.86244  7.50387e+21
6.97975  7.30177e+21
7.09705  7.10366e+21
7.21436  6.90952e+21
7.33166  6.71897e+21
7.44897  6.53204e+21
7.56627  6.34785e+21
7.68358  6.16552e+21
7.80088  5.98453e+21
7.91819  5.8039e+21
8.03549  5.6235e+21
8.1528  5.4431e+21
8.2701  5.26252e+21
8.38741  5.0825e+21
8.50471  4.90372e+21
8.62202  4.72769e+21
8.73932  4.55521e+21
8.85662  4.38812e+21
8.97393  4.22766e+21
9.09123  4.07527e+21
9.20854  3.93192e+21
9.32584  3.79833e+21
9.44315  3.67466e+21
9.56045  3.56071e+21
9.67776  3.45604e+21
9.79506  3.35919e+21
9.91237  3.2691e+21
10.0297  3.1842e+21
10.147  3.10275e+21
10.2643  3.02304e+21
10.3816  2.94361e+21
10.4989  2.86315e+21
10.6162  2.78065e+21
10.7335  2.69547e+21
10.8508  2.60727e+21
10.9681  2.51598e+21
11.0854  2.42225e+21
11.2027  2.32656e+21
11.32  2.22988e+21
11.4373  2.13342e+21
11.5546  2.03843e+21
11.6719  1.94619e+21
11.7893  1.85812e+21
11.9066  1.77519e+21
12.0239  1.69818e+21
12.1412  1.62822e+21
12.2585  1.56543e+21
12.3758  1.51028e+21
12.4931  1.46285e+21
12.6104  1.42308e+21
12.7277  1.39087e+21
12.845  1.36598e+21
12.9623  1.34807e+21
13.0796  1.33692e+21
13.1969  1.33171e+21
13.3142  1.33212e+21
13.4315  1.33694e+21
13.5488  1.34508e+21
13.6661  1.35521e+21
13.7834  1.36557e+21
13.9007  1.37428e+21
14.018  1.37927e+21
14.1354  1.37865e+21
14.2527  1.37056e+21
14.37  1.35345e+21
14.4873  1.32627e+21
14.6046  1.28862e+21
14.7219  1.24075e+21
14.8392  1.18364e+21
14.9565  1.11868e+21
15.0738  1.04811e+21
15.1911  9.74178e+20
15.3084  8.99415e+20
15.4257  8.26132e+20
15.543  7.56622e+20
15.6603  6.92509e+20
15.7776  6.35124e+20
15.8949  5.85128e+20
16.0122  5.42907e+20
16.1295  5.08225e+20
16.2468  4.80715e+20
16.3641  4.59742e+20
16.4815  4.44481e+20
16.5988  4.34043e+20
16.7161  4.27421e+20
16.8334  4.23698e+20
16.9507  4.21775e+20
17.068  4.2084e+20
17.1853  4.20004e+20
17.3026  4.18658e+20
17.4199  4.16263e+20
17.5372  4.12618e+20
17.6545  4.07843e+20
17.7718  4.02165e+20
17.8891  3.9595e+20
18.0064  3.89912e+20
18.1237  3.84596e+20
18.241  3.80568e+20
18.3583  3.78363e+20
18.4756  3.78346e+20
18.5929  3.80544e+20
18.7102  3.84763e+20
18.8275  3.90768e+20
18.9449  3.97801e+20
19.0622  4.0499e+20
19.1795  4.1142e+20
19.2968  4.15912e+20
19.4141  4.17648e+20
19.5314  4.15769e+20
19.6487  4.09801e+20
19.766  3.99851e+20
19.8833  3.86025e+20
20.0006  3.69228e+20
20.1179  3.50313e+20
20.2352  3.30453e+20
20.3525  3.10632e+20
20.4698  2.91748e+20
20.5871  2.74477e+20
20.7044  2.59193e+20
20.8217  2.45949e+20
20.939  2.34589e+20
21.0563  2.24813e+20
21.1736  2.16347e+20
21.291  2.08949e+20
21.4083  2.02431e+20
21.5256  1.96588e+20
21.6429  1.91483e+20
21.7602  1.87033e+20
21.8775  1.83248e+20
21.9948  1.80133e+20
22.1121  1.77715e+20
22.2294  1.75919e+20
22.3467  1.74829e+20
22.464  1.74282e+20
22.5813  1.74298e+20
22.6986  1.74767e+20
22.8159  1.75527e+20
22.9332  1.76323e+20
23.0505  1.76848e+20
23.1678  1.76767e+20
23.2851  1.7574e+20
23.4024  1.73439e+20
23.5198  1.69692e+20
23.6371  1.64289e+20
23.7544  1.57293e+20
23.8717  1.48781e+20
23.989  1.38922e+20
24.1063  1.27981e+20
24.2236  1.1625e+20
24.3409  1.04105e+20
24.4582  9.19738e+19
24.5755  8.01699e+19
24.6928  6.9198e+19
24.8101  5.93974e+19
24.9274  5.11e+19
25.0447  4.45026e+19
25.162  3.97035e+19
25.2793  3.66927e+19
25.3966  3.53027e+19
25.5139  3.53085e+19
25.6312  3.64159e+19
25.7485  3.83542e+19
25.8658  4.09009e+19
25.9832  4.38268e+19
26.1005  4.70921e+19
26.2178  5.0614e+19
26.3351  5.43646e+19
26.4524  5.83803e+19
26.5697  6.26858e+19
26.687  6.72712e+19
26.8043  7.21631e+19
26.9216  7.73367e+19
27.0389  8.27538e+19
27.1562  8.83597e+19
27.2735  9.39989e+19
27.3908  9.94901e+19
27.5081  1.04597e+20
27.6254  1.08962e+20
27.7427  1.12284e+20
27.86  1.14198e+20
27.9773  1.1448e+20
28.0946  1.12992e+20
28.212  1.09696e+20
28.3293  1.04831e+20
28.4466  9.86424e+19
28.5639  9.1645e+19
28.6812  8.43509e+19
28.7985  7.72604e+19
28.9158  7.08961e+19
29.0331  6.56759e+19
29.1504  6.19323e+19
29.2677  5.98381e+19
29.385  5.94231e+19
29.5023  6.0573e+19
29.6196  6.29941e+19
29.7369  6.63327e+19
29.8542  7.01094e+19
29.9715  7.37755e+19
30.0888  7.68588e+19
30.2061  7.88723e+19
30.3234  7.95726e+19
30.4407  7.88153e+19
30.558  7.65928e+19
30.6754  7.31393e+19
30.7927  6.8666e+19
30.91  6.35939e+19
31.0273  5.82894e+19
31.1446  5.30125e+19
31.2619  4.80134e+19
31.3792  4.34099e+19
31.4965  3.92554e+19
31.6138  3.54926e+19
31.7311  3.20196e+19
31.8484  2.87502e+19
31.9657  2.56092e+19
32.083  2.25164e+19
32.2003  1.9471e+19
32.3176  1.65238e+19
32.4349  1.37543e+19
32.5522  1.13001e+19
32.6695  9.28779e+18
32.7868  7.85303e+18
32.9042  7.06183e+18
33.0215  6.92113e+18
33.1388  7.36413e+18
33.2561  8.23488e+18
33.3734  9.335e+18
33.4907  1.04629e+19
33.608  1.14493e+19
33.7253  1.2207e+19
33.8426  1.27521e+19
33.9599  1.32016e+19
34.0772  1.37489e+19
34.1945  1.46077e+19
34.3118  1.59663e+19
34.4291  1.79031e+19
34.5464  2.03769e+19
34.6637  2.32197e+19
34.781  2.61762e+19
34.8983  2.89139e+19
35.0156  3.11403e+19
35.1329  3.26259e+19
35.2503  3.32394e+19
35.3676  3.30119e+19
35.4849  3.20122e+19
35.6022  3.04406e+19
35.7195  2.85177e+19
35.8368  2.64716e+19
35.9541  2.44542e+19
36.0714  2.26485e+19
36.1887  2.11649e+19
36.306  2.00325e+19
36.4233  1.92623e+19
36.5406  1.87958e+19
36.6579  1.85093e+19
36.7752  1.81648e+19
36.8925  1.75151e+19
37.0098  1.63089e+19
37.1271  1.43547e+19
37.2444  1.16514e+19
37.3617  8.43444e+18
37.479  5.24625e+18
37.5964  2.87145e+18
37.7137  2.26314e+18
37.831  4.38524e+18
37.9483  1.00194e+19
38.0656  1.94969e+19
38.1829  3.26741e+19
38.3002  4.8722e+19
38.4175  6.62987e+19
38.5348  8.36691e+19
38.6521  9.89613e+19
38.7694  1.10502e+20
38.8867  1.17005e+20
39.004  1.17855e+20
39.1213  1.1313e+20
39.2386  1.03618e+20
39.3559  9.06456e+19
39.4732  7.57648e+19
39.5905  6.05896e+19
39.7078  4.64708e+19
39.8251  3.44381e+19
39.9425  2.50438e+19
40.0598  1.83968e+19
40.1771  1.42749e+19
40.2944  1.22075e+19
40.4117  1.16574e+19
40.529  1.21195e+19
40.6463  1.32281e+19
40.7636  1.47308e+19
40.8809  1.65577e+19
40.9982  1.87538e+19
41.1155  2.13744e+19
41.2328  2.4497e+19
41.3501  2.81045e+19
41.4674  3.20799e+19
41.5847  3.61283e+19
41.702  3.98855e+19
41.8193  4.2843e+19
41.9366  4.45272e+19
42.0539  4.45191e+19
42.1712  4.26146e+19
42.2885  3.88348e+19
42.4059  3.34438e+19
42.5232  2.70229e+19
42.6405  2.02748e+19
42.7578  1.40231e+19
42.8751  8.90928e+18
42.9924  5.39438e+18
43.1097  3.61489e+18
43.227  3.38149e+18
43.3443  4.23158e+18
43.4616  5.56342e+18
43.5789  6.76665e+18
43.6962  7.38057e+18
43.8135  7.18046e+18
43.9308  6.20849e+18
44.0481  4.71921e+18
44.1654  3.10557e+18
44.2827  1.7251e+18
44.4  8.46586e+17
44.5173  5.58418e+17
44.6347  7.64244e+17
44.752  1.23393e+18
44.8693  1.69758e+18
44.9866  1.93599e+18
45.1039  1.82994e+18
45.2212  1.42738e+18
45.3385  8.78237e+17
45.4558  4.0436e+17
45.5731  2.32059e+17
45.6904  5.17606e+17
45.8077  1.33714e+18
45.925  2.67488e+18
46.0423  4.47847e+18
46.1596  6.68084e+18
46.2769  9.26137e+18
46.3942  1.22356e+19
46.5115  1.56097e+19
46.6288  1.94052e+19
46.7461  2.35095e+19
46.8634  2.77272e+19
46.9808  3.1744e+19
47.0981  3.50898e+19
47.2154  3.73379e+19
47.3327  3.80689e+19
47.45  3.71099e+19
47.5673  3.43992e+19
47.6846  3.01428e+19
47.8019  2.47679e+19
47.9192  1.88802e+19
48.0365  1.30713e+19
48.1538  7.9639e+18
48.2711  4.04822e+18
48.3884  1.66427e+18
48.5057  9.46586e+17
48.623  1.85171e+18
48.7403  4.17818e+18
48.8576  7.62959e+18
48.9749  1.18177e+19
49.0922  1.63641e+19
49.2095  2.09127e+19
49.3269  2.52147e+19
49.4442  2.90682e+19
49.5615  3.24326e+19
49.6788  3.52902e+19
49.7961  3.77451e+19
49.9134  3.98217e+19
50.0307  4.1604e+19
50.148  4.30739e+19
50.2653  4.41021e+19
50.3826  4.45184e+19
50.4999  4.41036e+19
50.6172  4.26692e+19
50.7345  4.01072e+19
50.8518  3.63922e+19
