#S 1 spectral density
#N 2
#UFWHM 13.842
#L  abscissas [um]  spectral density
-58.5938  1.26758e+19
-58.4764  1.33585e+19
-58.3591  1.38092e+19
-58.2418  1.38487e+19
-58.1245  1.32933e+19
-58.0072  1.20747e+19
-57.8899  1.02254e+19
-57.7726  7.97733e+18
-57.6553  5.75539e+18
-57.538  4.09746e+18
-57.4207  3.57869e+18
-57.3034  4.67744e+18
-57.1861  7.64084e+18
-57.0688  1.23861e+19
-56.9515  1.85122e+19
-56.8342  2.52748e+19
-56.7169  3.18238e+19
-56.5996  3.72324e+19
-56.4823  4.07969e+19
-56.365  4.20636e+19
-56.2477  4.09647e+19
-56.1303  3.77675e+19
-56.013  3.30529e+19
-55.8957  2.7507e+19
-55.7784  2.18609e+19
-55.6611  1.67103e+19
-55.5438  1.24778e+19
-55.4265  9.40651e+18
-55.3092  7.51361e+18
-55.1919  6.68203e+18
-55.0746  6.73189e+18
-54.9573  7.41632e+18
-54.84  8.51839e+18
-54.7227  9.81995e+18
-54.6054  1.11455e+19
-54.4881  1.2341e+19
-54.3708  1.3312e+19
-54.2535  1.39594e+19
-54.1362  1.42663e+19
-54.0189  1.42683e+19
-53.9016  1.40398e+19
-53.7842  1.36628e+19
-53.6669  1.32742e+19
-53.5496  1.29482e+19
-53.4323  1.27281e+19
-53.315  1.26248e+19
-53.1977  1.25917e+19
-53.0804  1.25597e+19
-52.9631  1.24819e+19
-52.8458  1.23042e+19
-52.7285  1.19863e+19
-52.6112  1.1542e+19
-52.4939  1.09837e+19
-52.3766  1.03319e+19
-52.2593  9.59437e+18
-52.142  8.78541e+18
-52.0247  7.92567e+18
-51.9074  7.04598e+18
-51.7901  6.2007e+18
-51.6728  5.44315e+18
-51.5555  4.8554e+18
-51.4381  4.4799e+18
-51.3208  4.34015e+18
-51.2035  4.40273e+18
-51.0862  4.5955e+18
-50.9689  4.80146e+18
-50.8516  4.90984e+18
-50.7343  4.8369e+18
-50.617  4.55037e+18
-50.4997  4.06499e+18
-50.3824  3.47331e+18
-50.2651  2.8737e+18
-50.1478  2.3867e+18
-50.0305  2.07316e+18
-49.9132  1.96831e+18
-49.7959  2.03352e+18
-49.6786  2.18766e+18
-49.5613  2.34746e+18
-49.444  2.43764e+18
-49.3267  2.4376e+18
-49.2094  2.37987e+18
-49.092  2.3698e+18
-48.9747  2.55292e+18
-48.8574  3.11342e+18
-48.7401  4.21702e+18
-48.6228  5.98501e+18
-48.5055  8.47996e+18
-48.3882  1.16244e+19
-48.2709  1.52559e+19
-48.1536  1.90964e+19
-48.0363  2.27512e+19
-47.919  2.57824e+19
-47.8017  2.77868e+19
-47.6844  2.84166e+19
-47.5671  2.74825e+19
-47.4498  2.4997e+19
-47.3325  2.12394e+19
-47.2152  1.66447e+19
-47.0979  1.1845e+19
-46.9806  7.46875e+18
-46.8633  4.11134e+18
-46.7459  2.19038e+18
-46.6286  1.88278e+18
-46.5113  3.11903e+18
-46.394  5.62318e+18
-46.2767  8.95518e+18
-46.1594  1.26473e+19
-46.0421  1.62825e+19
-45.9248  1.9531e+19
-45.8075  2.21932e+19
-45.6902  2.4198e+19
-45.5729  2.55234e+19
-45.4556  2.62653e+19
-45.3383  2.6438e+19
-45.221  2.61686e+19
-45.1037  2.55554e+19
-44.9864  2.47698e+19
-44.8691  2.40744e+19
-44.7518  2.3795e+19
-44.6345  2.4218e+19
-44.5172  2.55625e+19
-44.3998  2.79022e+19
-44.2825  3.10585e+19
-44.1652  3.46427e+19
-44.0479  3.80394e+19
-43.9306  4.0582e+19
-43.8133  4.16375e+19
-43.696  4.08434e+19
-43.5787  3.81303e+19
-43.4614  3.37796e+19
-43.3441  2.84321e+19
-43.2268  2.29509e+19
-43.1095  1.81867e+19
-42.9922  1.48715e+19
-42.8749  1.34498e+19
-42.7576  1.3976e+19
-42.6403  1.61559e+19
-42.523  1.93928e+19
-42.4057  2.29583e+19
-42.2884  2.60816e+19
-42.171  2.81656e+19
-42.0537  2.88855e+19
-41.9364  2.81106e+19
-41.8191  2.60582e+19
-41.7018  2.30584e+19
-41.5845  1.96283e+19
-41.4672  1.62415e+19
-41.3499  1.33192e+19
-41.2326  1.1137e+19
-41.1153  9.81476e+18
-40.998  9.31164e+18
-40.8807  9.42161e+18
-40.7634  9.84477e+18
-40.6461  1.02812e+19
-40.5288  1.04457e+19
-40.4115  1.01938e+19
-40.2942  9.52687e+18
-40.1769  8.60711e+18
-40.0596  7.75976e+18
-39.9423  7.36516e+18
-39.825  7.78524e+18
-39.7076  9.2319e+18
-39.5903  1.16916e+19
-39.473  1.4873e+19
-39.3557  1.82668e+19
-39.2384  2.11668e+19
-39.1211  2.29055e+19
-39.0038  2.29661e+19
-38.8865  2.1155e+19
-38.7692  1.76573e+19
-38.6519  1.30941e+19
-38.5346  8.38387e+18
-38.4173  4.58854e+18
-38.3  2.66956e+18
-38.1827  3.30274e+18
-38.0654  6.7053e+18
-37.9481  1.25955e+19
-37.8308  2.02137e+19
-37.7135  2.85141e+19
-37.5962  3.62983e+19
-37.4789  4.24914e+19
-37.3615  4.63462e+19
-37.2442  4.74723e+19
-37.1269  4.59896e+19
-37.0096  4.22948e+19
-36.8923  3.71164e+19
-36.775  3.12502e+19
-36.6577  2.54324e+19
-36.5404  2.02011e+19
-36.4231  1.59211e+19
-36.3058  1.27229e+19
-36.1885  1.05475e+19
-36.0712  9.22988e+18
-35.9539  8.55751e+18
-35.8366  8.32695e+18
-35.7193  8.38159e+18
-35.602  8.59919e+18
-35.4847  8.94264e+18
-35.3674  9.41121e+18
-35.2501  1.00528e+19
-35.1328  1.09683e+19
-35.0154  1.22894e+19
-34.8981  1.41778e+19
-34.7808  1.67799e+19
-34.6635  2.01986e+19
-34.5462  2.44588e+19
-34.4289  2.95066e+19
-34.3116  3.51003e+19
-34.1943  4.09005e+19
-34.077  4.64886e+19
-33.9597  5.13956e+19
-33.8424  5.51937e+19
-33.7251  5.7561e+19
-33.6078  5.8318e+19
-33.4905  5.74582e+19
-33.3732  5.51394e+19
-33.2559  5.1622e+19
-33.1386  4.72559e+19
-33.0213  4.24026e+19
-32.904  3.74312e+19
-32.7867  3.26172e+19
-32.6693  2.8163e+19
-32.552  2.42143e+19
-32.4347  2.0843e+19
-32.3174  1.80976e+19
-32.2001  1.59619e+19
-32.0828  1.44111e+19
-31.9655  1.34001e+19
-31.8482  1.28719e+19
-31.7309  1.27618e+19
-31.6136  1.29961e+19
-31.4963  1.34923e+19
-31.379  1.4159e+19
-31.2617  1.49015e+19
-31.1444  1.56097e+19
-31.0271  1.6172e+19
-30.9098  1.64781e+19
-30.7925  1.64036e+19
-30.6752  1.5888e+19
-30.5579  1.48866e+19
-30.4406  1.3461e+19
-30.3232  1.1745e+19
-30.2059  9.95463e+18
-30.0886  8.3676e+18
-29.9713  7.28578e+18
-29.854  6.99283e+18
-29.7367  7.68515e+18
-29.6194  9.48639e+18
-29.5021  1.23742e+19
-29.3848  1.62158e+19
-29.2675  2.07725e+19
-29.1502  2.57289e+19
-29.0329  3.07617e+19
-28.9156  3.55099e+19
-28.7983  3.96727e+19
-28.681  4.29831e+19
-28.5637  4.52472e+19
-28.4464  4.6357e+19
-28.3291  4.62761e+19
-28.2118  4.50777e+19
-28.0944  4.29677e+19
-27.9771  4.02038e+19
-27.8598  3.71375e+19
-27.7425  3.41548e+19
-27.6252  3.15593e+19
-27.5079  2.96804e+19
-27.3906  2.86814e+19
-27.2733  2.86244e+19
-27.156  2.94073e+19
-27.0387  3.08569e+19
-26.9214  3.27594e+19
-26.8041  3.48789e+19
-26.6868  3.70502e+19
-26.5695  3.91408e+19
-26.4522  4.11534e+19
-26.3349  4.31983e+19
-26.2176  4.53851e+19
-26.1003  4.79304e+19
-25.983  5.0963e+19
-25.8657  5.4603e+19
-25.7483  5.89176e+19
-25.631  6.38767e+19
-25.5137  6.93937e+19
-25.3964  7.52154e+19
-25.2791  8.10632e+19
-25.1618  8.65419e+19
-25.0445  9.12439e+19
-24.9272  9.47519e+19
-24.8099  9.66838e+19
-24.6926  9.68416e+19
-24.5753  9.5234e+19
-24.458  9.19599e+19
-24.3407  8.74852e+19
-24.2234  8.23995e+19
-24.1061  7.74246e+19
-23.9888  7.33347e+19
-23.8715  7.08248e+19
-23.7542  7.04785e+19
-23.6369  7.2668e+19
-23.5196  7.75292e+19
-23.4023  8.49563e+19
-23.2849  9.46267e+19
-23.1676  1.06074e+20
-23.0503  1.1865e+20
-22.933  1.31751e+20
-22.8157  1.44666e+20
-22.6984  1.56765e+20
-22.5811  1.67564e+20
-22.4638  1.76675e+20
-22.3465  1.83924e+20
-22.2292  1.89294e+20
-22.1119  1.92939e+20
-21.9946  1.95077e+20
-21.8773  1.96034e+20
-21.76  1.96098e+20
-21.6427  1.95425e+20
-21.5254  1.94054e+20
-21.4081  1.91975e+20
-21.2908  1.89093e+20
-21.1735  1.85273e+20
-21.0561  1.80522e+20
-20.9388  1.7487e+20
-20.8215  1.68614e+20
-20.7042  1.62144e+20
-20.5869  1.55988e+20
-20.4696  1.50623e+20
-20.3523  1.46571e+20
-20.235  1.4414e+20
-20.1177  1.43611e+20
-20.0004  1.44988e+20
-19.8831  1.48183e+20
-19.7658  1.53104e+20
-19.6485  1.5962e+20
-19.5312  1.67594e+20
-19.4139  1.76969e+20
-19.2966  1.8766e+20
-19.1793  1.99609e+20
-19.062  2.12684e+20
-18.9447  2.26729e+20
-18.8274  2.41559e+20
-18.71  2.5684e+20
-18.5927  2.7238e+20
-18.4754  2.88074e+20
-18.3581  3.03779e+20
-18.2408  3.19754e+20
-18.1235  3.36191e+20
-18.0062  3.53624e+20
-17.8889  3.7261e+20
-17.7716  3.93629e+20
-17.6543  4.17566e+20
-17.537  4.44782e+20
-17.4197  4.75878e+20
-17.3024  5.10984e+20
-17.1851  5.50134e+20
-17.0678  5.92941e+20
-16.9505  6.38636e+20
-16.8332  6.86056e+20
-16.7159  7.33776e+20
-16.5986  7.80074e+20
-16.4813  8.23147e+20
-16.364  8.61191e+20
-16.2466  8.92684e+20
-16.1293  9.1615e+20
-16.012  9.31317e+20
-15.8947  9.37887e+20
-15.7774  9.36451e+20
-15.6601  9.28124e+20
-15.5428  9.14494e+20
-15.4255  8.97399e+20
-15.3082  8.79125e+20
-15.1909  8.61507e+20
-15.0736  8.46838e+20
-14.9563  8.36825e+20
-14.839  8.33088e+20
-14.7217  8.36658e+20
-14.6044  8.48564e+20
-14.4871  8.69152e+20
-14.3698  8.98598e+20
-14.2525  9.36505e+20
-14.1352  9.82193e+20
-14.0178  1.03469e+21
-13.9005  1.0928e+21
-13.7832  1.1551e+21
-13.6659  1.21996e+21
-13.5486  1.28603e+21
-13.4313  1.35194e+21
-13.314  1.41642e+21
-13.1967  1.4785e+21
-13.0794  1.53769e+21
-12.9621  1.59347e+21
-12.8448  1.6458e+21
-12.7275  1.69481e+21
-12.6102  1.74083e+21
-12.4929  1.78421e+21
-12.3756  1.82538e+21
-12.2583  1.86483e+21
-12.141  1.90295e+21
-12.0237  1.94029e+21
-11.9064  1.9773e+21
-11.7891  2.01466e+21
-11.6718  2.05328e+21
-11.5544  2.09424e+21
-11.4371  2.13867e+21
-11.3198  2.18835e+21
-11.2025  2.24488e+21
-11.0852  2.31018e+21
-10.9679  2.3861e+21
-10.8506  2.47422e+21
-10.7333  2.57572e+21
-10.616  2.69144e+21
-10.4987  2.82164e+21
-10.3814  2.96554e+21
-10.2641  3.12194e+21
-10.1468  3.2894e+21
-10.0295  3.46541e+21
-9.91217  3.64733e+21
-9.79487  3.83287e+21
-9.67756  4.01945e+21
-9.56026  4.20483e+21
-9.44295  4.3871e+21
-9.32565  4.5654e+21
-9.20834  4.73872e+21
-9.09104  4.90706e+21
-8.97373  5.07056e+21
-8.85643  5.23016e+21
-8.73913  5.38634e+21
-8.62182  5.54007e+21
-8.50452  5.692e+21
-8.38721  5.84297e+21
-8.26991  5.99271e+21
-8.1526  6.14152e+21
-8.03529  6.28854e+21
-7.91799  6.43339e+21
-7.80069  6.57513e+21
-7.68338  6.71269e+21
-7.56608  6.84587e+21
-7.44877  6.97413e+21
-7.33146  7.09738e+21
-7.21416  7.21586e+21
-7.09685  7.33035e+21
-6.97955  7.44163e+21
-6.86224  7.55101e+21
-6.74494  7.65982e+21
-6.62763  7.76875e+21
-6.51033  7.87913e+21
-6.39302  7.99169e+21
-6.27572  8.107e+21
-6.15842  8.22561e+21
-6.04111  8.34765e+21
-5.92381  8.47306e+21
-5.8065  8.60235e+21
-5.68919  8.7354e+21
-5.57189  8.87285e+21
-5.45458  9.01552e+21
-5.33728  9.16495e+21
-5.21997  9.32229e+21
-5.10267  9.49008e+21
-4.98536  9.67029e+21
-4.86806  9.86512e+21
-4.75075  1.00766e+22
-4.63345  1.03064e+22
-4.51614  1.05551e+22
-4.39884  1.08221e+22
-4.28154  1.11062e+22
-4.16423  1.1405e+22
-4.04692  1.17139e+22
-3.92962  1.20285e+22
-3.81231  1.23434e+22
-3.69501  1.26522e+22
-3.5777  1.29492e+22
-3.4604  1.32285e+22
-3.34309  1.34851e+22
-3.22579  1.37148e+22
-3.10849  1.39152e+22
-2.99118  1.40847e+22
-2.87387  1.42237e+22
-2.75657  1.43335e+22
-2.63926  1.4417e+22
-2.52196  1.44778e+22
-2.40465  1.45202e+22
-2.28735  1.4548e+22
-2.17005  1.4566e+22
-2.05274  1.45783e+22
-1.93544  1.45875e+22
-1.81813  1.4597e+22
-1.70083  1.46083e+22
-1.58352  1.46224e+22
-1.46622  1.46401e+22
-1.34891  1.46608e+22
-1.2316  1.46842e+22
-1.1143  1.47094e+22
-0.996995  1.47352e+22
-0.87969  1.4761e+22
-0.762385  1.47848e+22
-0.64508  1.48067e+22
-0.527775  1.48256e+22
-0.41047  1.48409e+22
-0.293165  1.48523e+22
-0.17586  1.48599e+22
-0.058555  1.48635e+22
0.05875  1.48632e+22
0.176055  1.48588e+22
0.29336  1.48503e+22
0.410665  1.48382e+22
0.52797  1.4822e+22
0.645275  1.48023e+22
0.76258  1.47797e+22
0.879885  1.47551e+22
0.99719  1.47287e+22
1.1145  1.47021e+22
1.2318  1.46762e+22
1.3491  1.4652e+22
1.46641  1.46303e+22
1.58371  1.46118e+22
1.70102  1.45967e+22
1.81832  1.45845e+22
1.93563  1.45739e+22
2.05294  1.45633e+22
2.17024  1.45502e+22
2.28754  1.45311e+22
2.40485  1.45018e+22
2.52216  1.44584e+22
2.63946  1.43965e+22
2.75677  1.43116e+22
2.87407  1.42004e+22
2.99137  1.40601e+22
3.10868  1.38893e+22
3.22599  1.36877e+22
3.34329  1.34567e+22
3.4606  1.31991e+22
3.5779  1.29188e+22
3.69521  1.26209e+22
3.81251  1.23114e+22
3.92982  1.19957e+22
4.04712  1.16805e+22
4.16443  1.13712e+22
4.28173  1.10722e+22
4.39903  1.07878e+22
4.51634  1.05207e+22
4.63364  1.02723e+22
4.75095  1.00427e+22
4.86825  9.83127e+21
4.98556  9.63664e+21
5.10286  9.45695e+21
5.22017  9.2893e+21
5.33748  9.13223e+21
5.45478  8.98321e+21
5.57209  8.84076e+21
5.68939  8.7034e+21
5.8067  8.57034e+21
5.924  8.44101e+21
6.0413  8.3155e+21
6.15861  8.19333e+21
6.27591  8.07437e+21
6.39322  7.95883e+21
6.51052  7.8459e+21
6.62783  7.73514e+21
6.74514  7.62579e+21
6.86244  7.51692e+21
6.97975  7.40722e+21
7.09705  7.29584e+21
7.21436  7.18144e+21
7.33166  7.06288e+21
7.44897  6.93997e+21
7.56627  6.81211e+21
7.68358  6.67932e+21
7.80088  6.54203e+21
7.91819  6.40071e+21
8.03549  6.25642e+21
8.1528  6.1099e+21
8.2701  5.96142e+21
8.38741  5.81197e+21
8.50471  5.66132e+21
8.62202  5.50971e+21
8.73932  5.35605e+21
8.85662  5.20007e+21
8.97393  5.04086e+21
9.09123  4.87752e+21
9.20854  4.70959e+21
9.32584  4.53674e+21
9.44315  4.35903e+21
9.56045  4.17719e+21
9.67776  3.99269e+21
9.79506  3.80693e+21
9.91237  3.6223e+21
10.0297  3.4413e+21
10.147  3.26643e+21
10.2643  3.10006e+21
10.3816  2.94455e+21
10.4989  2.8016e+21
10.6162  2.67231e+21
10.7335  2.55725e+21
10.8508  2.45641e+21
10.9681  2.36883e+21
11.0854  2.29346e+21
11.2027  2.22852e+21
11.32  2.17227e+21
11.4373  2.12292e+21
11.5546  2.07859e+21
11.6719  2.03784e+21
11.7893  1.9995e+21
11.9066  1.96234e+21
12.0239  1.92542e+21
12.1412  1.88845e+21
12.2585  1.85052e+21
12.3758  1.81141e+21
12.4931  1.77053e+21
12.6104  1.72753e+21
12.7277  1.68185e+21
12.845  1.63318e+21
12.9623  1.58117e+21
13.0796  1.52589e+21
13.1969  1.46711e+21
13.3142  1.40553e+21
13.4315  1.34158e+21
13.5488  1.27621e+21
13.6661  1.21071e+21
13.7834  1.14638e+21
13.9007  1.08472e+21
14.018  1.02719e+21
14.1354  9.75248e+20
14.2527  9.30109e+20
14.37  8.92734e+20
14.4873  8.63756e+20
14.6046  8.43475e+20
14.7219  8.31868e+20
14.8392  8.28499e+20
14.9565  8.32421e+20
15.0738  8.42582e+20
15.1911  8.57311e+20
15.3084  8.7487e+20
15.4257  8.93162e+20
15.543  9.10176e+20
15.6603  9.23787e+20
15.7776  9.32067e+20
15.8949  9.33448e+20
16.0122  9.26922e+20
16.1295  9.11799e+20
16.2468  8.88221e+20
16.3641  8.56885e+20
16.4815  8.18936e+20
16.5988  7.75985e+20
16.7161  7.29821e+20
16.8334  6.82269e+20
16.9507  6.34987e+20
17.068  5.89523e+20
17.1853  5.46945e+20
17.3026  5.08057e+20
17.4199  4.73108e+20
17.5372  4.42178e+20
17.6545  4.15144e+20
17.7718  3.91429e+20
17.8891  3.70445e+20
18.0064  3.51646e+20
18.1237  3.34359e+20
18.241  3.17939e+20
18.3583  3.0202e+20
18.4756  2.86332e+20
18.5929  2.70679e+20
18.7102  2.55057e+20
18.8275  2.39802e+20
18.9449  2.24987e+20
19.0622  2.1093e+20
19.1795  1.97883e+20
19.2968  1.85964e+20
19.4141  1.75332e+20
19.5314  1.66023e+20
19.6487  1.58114e+20
19.766  1.51733e+20
19.8833  1.46902e+20
20.0006  1.43849e+20
20.1179  1.42652e+20
20.2352  1.43381e+20
20.3525  1.4594e+20
20.4698  1.50125e+20
20.5871  1.55588e+20
20.7044  1.61867e+20
20.8217  1.68424e+20
20.939  1.74734e+20
21.0563  1.80398e+20
21.1736  1.85168e+20
21.291  1.88993e+20
21.4083  1.91919e+20
21.5256  1.93992e+20
21.6429  1.95405e+20
21.7602  1.9615e+20
21.8775  1.96159e+20
21.9948  1.9524e+20
22.1121  1.93135e+20
22.2294  1.89494e+20
22.3467  1.84173e+20
22.464  1.76888e+20
22.5813  1.67731e+20
22.6986  1.56904e+20
22.8159  1.44756e+20
22.9332  1.31808e+20
23.0505  1.18695e+20
23.1678  1.0608e+20
23.2851  9.46406e+19
23.4024  8.49775e+19
23.5198  7.76089e+19
23.6371  7.27891e+19
23.7544  7.06556e+19
23.8717  7.10469e+19
23.989  7.35949e+19
24.1063  7.7696e+19
24.2236  8.26526e+19
24.3409  8.76965e+19
24.4582  9.20974e+19
24.5755  9.52801e+19
24.6928  9.68149e+19
24.8101  9.65528e+19
24.9274  9.45263e+19
25.0447  9.09689e+19
25.162  8.62401e+19
25.2793  8.07635e+19
25.3966  7.49198e+19
25.5139  6.91282e+19
25.6312  6.36697e+19
25.7485  5.8758e+19
25.8658  5.45115e+19
25.9832  5.08881e+19
26.1005  4.79268e+19
26.2178  4.54307e+19
26.3351  4.32373e+19
26.4524  4.11866e+19
26.5697  3.91502e+19
26.687  3.70267e+19
26.8043  3.4851e+19
26.9216  3.27068e+19
27.0389  3.07737e+19
27.1562  2.93067e+19
27.2735  2.85208e+19
27.3908  2.8595e+19
27.5081  2.9614e+19
27.6254  3.1509e+19
27.7427  3.41192e+19
27.86  3.71271e+19
27.9773  4.01826e+19
28.0946  4.29245e+19
28.212  4.49932e+19
28.3293  4.61369e+19
28.4466  4.61711e+19
28.5639  4.50085e+19
28.6812  4.27078e+19
28.7985  3.93701e+19
28.9158  3.51945e+19
29.0331  3.04555e+19
29.1504  2.54459e+19
29.2677  2.05355e+19
29.385  1.60367e+19
29.5023  1.22619e+19
29.6196  9.43342e+18
29.7369  7.68991e+18
29.8542  7.0447e+18
29.9715  7.38558e+18
30.0888  8.49041e+18
30.2061  1.00934e+19
30.3234  1.18915e+19
30.4407  1.36076e+19
30.558  1.50317e+19
30.6754  1.60165e+19
30.7927  1.65385e+19
30.91  1.66054e+19
31.0273  1.63021e+19
31.1446  1.57178e+19
31.2619  1.50073e+19
31.3792  1.42583e+19
31.4965  1.35874e+19
31.6138  1.30998e+19
31.7311  1.28735e+19
31.8484  1.29896e+19
31.9657  1.35325e+19
32.083  1.45583e+19
32.2003  1.61292e+19
32.3176  1.82854e+19
32.4349  2.10505e+19
32.5522  2.44306e+19
32.6695  2.83809e+19
32.7868  3.28351e+19
32.9042  3.76426e+19
33.0215  4.25827e+19
33.1388  4.73975e+19
33.2561  5.17151e+19
33.3734  5.51927e+19
33.4907  5.74514e+19
33.608  5.82617e+19
33.7253  5.74836e+19
33.8426  5.50672e+19
33.9599  5.127e+19
34.0772  4.63545e+19
34.1945  4.07853e+19
34.3118  3.50101e+19
34.4291  2.94581e+19
34.5464  2.44494e+19
34.6637  2.01994e+19
34.781  1.68031e+19
34.8983  1.42206e+19
35.0156  1.2341e+19
35.1329  1.10148e+19
35.2503  1.00926e+19
35.3676  9.44062e+18
35.4849  8.96354e+18
35.6022  8.60839e+18
35.7195  8.37467e+18
35.8368  8.32022e+18
35.9541  8.54638e+18
36.0714  9.22632e+18
36.1887  1.05496e+19
36.306  1.27392e+19
36.4233  1.59596e+19
36.5406  2.02539e+19
36.6579  2.54768e+19
36.7752  3.13026e+19
36.8925  3.71372e+19
37.0098  4.22627e+19
37.1271  4.58817e+19
37.2444  4.7316e+19
37.3617  4.61309e+19
37.479  4.22334e+19
37.5964  3.59963e+19
37.7137  2.82247e+19
37.831  1.99469e+19
37.9483  1.23892e+19
38.0656  6.56264e+18
38.1829  3.23726e+18
38.3002  2.675e+18
38.4175  4.64403e+18
38.5348  8.4648e+18
38.6521  1.31677e+19
38.7694  1.76861e+19
38.8867  2.11216e+19
39.004  2.28694e+19
39.1213  2.27522e+19
39.2386  2.09685e+19
39.3559  1.80398e+19
39.4732  1.46522e+19
39.5905  1.14942e+19
39.7078  9.08718e+18
39.8251  7.70962e+18
39.9425  7.35424e+18
40.0598  7.79997e+18
40.1771  8.68957e+18
40.2944  9.63114e+18
40.4117  1.03126e+19
40.529  1.05622e+19
40.6463  1.03851e+19
40.7636  9.95438e+18
40.8809  9.5199e+18
40.9982  9.42198e+18
41.1155  9.94708e+18
41.2328  1.1286e+19
41.3501  1.34797e+19
41.4674  1.64161e+19
41.5847  1.98147e+19
41.702  2.32264e+19
41.8193  2.61918e+19
41.9366  2.8214e+19
42.0539  2.89432e+19
42.1712  2.81926e+19
42.2885  2.60478e+19
42.4059  2.29051e+19
42.5232  1.93431e+19
42.6405  1.61513e+19
42.7578  1.4016e+19
42.8751  1.35548e+19
42.9924  1.50708e+19
43.1097  1.84669e+19
43.227  2.3301e+19
43.3443  2.88299e+19
43.4616  3.41669e+19
43.5789  3.84806e+19
43.6962  4.11481e+19
43.8135  4.1865e+19
43.9308  4.07176e+19
44.0481  3.81091e+19
44.1654  3.46371e+19
44.2827  3.10198e+19
44.4  2.78499e+19
44.5173  2.55189e+19
44.6347  2.41872e+19
44.752  2.38062e+19
44.8693  2.41219e+19
44.9866  2.48283e+19
45.1039  2.56273e+19
45.2212  2.62439e+19
45.3385  2.6514e+19
45.4558  2.63193e+19
45.5731  2.55738e+19
45.6904  2.41871e+19
45.8077  2.21594e+19
45.925  1.94557e+19
46.0423  1.61785e+19
46.1596  1.2524e+19
46.2769  8.82036e+18
46.3942  5.51075e+18
46.5115  3.0438e+18
46.6288  1.85563e+18
46.7461  2.21876e+18
46.8634  4.19335e+18
46.9808  7.5807e+18
47.0981  1.19663e+19
47.2154  1.67556e+19
47.3327  2.13115e+19
47.45  2.50075e+19
47.5673  2.74037e+19
47.6846  2.82717e+19
47.8019  2.75958e+19
47.9192  2.55424e+19
48.0365  2.24827e+19
48.1538  1.88377e+19
48.2711  1.50348e+19
48.3884  1.14341e+19
48.5057  8.33687e+18
48.623  5.89169e+18
48.7403  4.15322e+18
48.8576  3.08359e+18
48.9749  2.54838e+18
49.0922  2.37637e+18
49.2095  2.39052e+18
49.3269  2.45072e+18
49.4442  2.4514e+18
49.5615  2.35659e+18
49.6788  2.19191e+18
49.7961  2.03216e+18
49.9134  1.968e+18
50.0307  2.07549e+18
50.148  2.38529e+18
50.2653  2.87552e+18
50.3826  3.47091e+18
50.4999  4.06078e+18
50.6172  4.53354e+18
50.7345  4.81182e+18
50.8518  4.87557e+18
50.9691  4.7547e+18
