#S 1 spectral density
#N 2
#UFWHM 40.001
#L  abscissas [um]  spectral density
-58.5938  2.6515e+20
-58.4764  2.61866e+20
-58.3591  2.57463e+20
-58.2418  2.52529e+20
-58.1245  2.47654e+20
-58.0072  2.4336e+20
-57.8899  2.39872e+20
-57.7726  2.37545e+20
-57.6553  2.36468e+20
-57.538  2.36734e+20
-57.4207  2.3837e+20
-57.3034  2.41245e+20
-57.1861  2.45055e+20
-57.0688  2.49403e+20
-56.9515  2.53605e+20
-56.8342  2.5695e+20
-56.7169  2.58682e+20
-56.5996  2.58062e+20
-56.4823  2.54739e+20
-56.365  2.48551e+20
-56.2477  2.39697e+20
-56.1303  2.28626e+20
-56.013  2.16222e+20
-55.8957  2.03251e+20
-55.7784  1.90641e+20
-55.6611  1.79187e+20
-55.5438  1.69555e+20
-55.4265  1.62245e+20
-55.3092  1.57582e+20
-55.1919  1.55691e+20
-55.0746  1.56601e+20
-54.9573  1.60141e+20
-54.84  1.6607e+20
-54.7227  1.73846e+20
-54.6054  1.82947e+20
-54.4881  1.92619e+20
-54.3708  2.02077e+20
-54.2535  2.10564e+20
-54.1362  2.17445e+20
-54.0189  2.2222e+20
-53.9016  2.24617e+20
-53.7842  2.24751e+20
-53.6669  2.22869e+20
-53.5496  2.19378e+20
-53.4323  2.1492e+20
-53.315  2.10027e+20
-53.1977  2.05383e+20
-53.0804  2.01412e+20
-52.9631  1.98439e+20
-52.8458  1.96625e+20
-52.7285  1.95971e+20
-52.6112  1.96287e+20
-52.4939  1.97248e+20
-52.3766  1.9848e+20
-52.2593  1.99538e+20
-52.142  1.99944e+20
-52.0247  1.99308e+20
-51.9074  1.97348e+20
-51.7901  1.93845e+20
-51.6728  1.88824e+20
-51.5555  1.82427e+20
-51.4381  1.7484e+20
-51.3208  1.66469e+20
-51.2035  1.57639e+20
-51.0862  1.48894e+20
-50.9689  1.40558e+20
-50.8516  1.33046e+20
-50.7343  1.26774e+20
-50.617  1.22066e+20
-50.4997  1.19161e+20
-50.3824  1.18274e+20
-50.2651  1.19401e+20
-50.1478  1.22557e+20
-50.0305  1.27482e+20
-49.9132  1.33877e+20
-49.7959  1.41241e+20
-49.6786  1.48959e+20
-49.5613  1.56564e+20
-49.444  1.63474e+20
-49.3267  1.69139e+20
-49.2094  1.73198e+20
-49.092  1.75435e+20
-48.9747  1.75651e+20
-48.8574  1.73887e+20
-48.7401  1.703e+20
-48.6228  1.65104e+20
-48.5055  1.58733e+20
-48.3882  1.51524e+20
-48.2709  1.43954e+20
-48.1536  1.36396e+20
-48.0363  1.29247e+20
-47.919  1.22731e+20
-47.8017  1.17061e+20
-47.6844  1.12312e+20
-47.5671  1.08594e+20
-47.4498  1.05861e+20
-47.3325  1.04138e+20
-47.2152  1.03435e+20
-47.0979  1.03731e+20
-46.9806  1.05016e+20
-46.8633  1.07224e+20
-46.7459  1.10175e+20
-46.6286  1.13664e+20
-46.5113  1.17419e+20
-46.394  1.21274e+20
-46.2767  1.24971e+20
-46.1594  1.28464e+20
-46.0421  1.31836e+20
-45.9248  1.35261e+20
-45.8075  1.3895e+20
-45.6902  1.43109e+20
-45.5729  1.47766e+20
-45.4556  1.52844e+20
-45.3383  1.58033e+20
-45.221  1.6289e+20
-45.1037  1.66883e+20
-44.9864  1.69512e+20
-44.8691  1.70559e+20
-44.7518  1.69935e+20
-44.6345  1.67841e+20
-44.5172  1.64663e+20
-44.3998  1.60846e+20
-44.2825  1.56854e+20
-44.1652  1.53014e+20
-44.0479  1.49443e+20
-43.9306  1.46069e+20
-43.8133  1.42711e+20
-43.696  1.39114e+20
-43.5787  1.35132e+20
-43.4614  1.30734e+20
-43.3441  1.26096e+20
-43.2268  1.21582e+20
-43.1095  1.17672e+20
-42.9922  1.14829e+20
-42.8749  1.13512e+20
-42.7576  1.13962e+20
-42.6403  1.16259e+20
-42.523  1.20299e+20
-42.4057  1.25827e+20
-42.2884  1.32502e+20
-42.171  1.39975e+20
-42.0537  1.47816e+20
-41.9364  1.55708e+20
-41.8191  1.6336e+20
-41.7018  1.70577e+20
-41.5845  1.77119e+20
-41.4672  1.8284e+20
-41.3499  1.87654e+20
-41.2326  1.91523e+20
-41.1153  1.94433e+20
-40.998  1.96458e+20
-40.8807  1.9768e+20
-40.7634  1.98229e+20
-40.6461  1.98277e+20
-40.5288  1.97985e+20
-40.4115  1.97539e+20
-40.2942  1.97096e+20
-40.1769  1.96974e+20
-40.0596  1.97453e+20
-39.9423  1.98818e+20
-39.825  2.01303e+20
-39.7076  2.05085e+20
-39.5903  2.10158e+20
-39.473  2.16397e+20
-39.3557  2.23464e+20
-39.2384  2.30922e+20
-39.1211  2.38347e+20
-39.0038  2.45294e+20
-38.8865  2.51559e+20
-38.7692  2.57128e+20
-38.6519  2.62178e+20
-38.5346  2.67157e+20
-38.4173  2.72532e+20
-38.3  2.78764e+20
-38.1827  2.86164e+20
-38.0654  2.9483e+20
-37.9481  3.04514e+20
-37.8308  3.14856e+20
-37.7135  3.25297e+20
-37.5962  3.35397e+20
-37.4789  3.44731e+20
-37.3615  3.53006e+20
-37.2442  3.60229e+20
-37.1269  3.66552e+20
-37.0096  3.72303e+20
-36.8923  3.77669e+20
-36.775  3.82848e+20
-36.6577  3.87916e+20
-36.5404  3.92789e+20
-36.4231  3.97379e+20
-36.3058  4.0149e+20
-36.1885  4.05017e+20
-36.0712  4.08017e+20
-35.9539  4.10715e+20
-35.8366  4.13408e+20
-35.7193  4.16469e+20
-35.602  4.20204e+20
-35.4847  4.25058e+20
-35.3674  4.31235e+20
-35.2501  4.38831e+20
-35.1328  4.47759e+20
-35.0154  4.57874e+20
-34.8981  4.69048e+20
-34.7808  4.81071e+20
-34.6635  4.93716e+20
-34.5462  5.06885e+20
-34.4289  5.20454e+20
-34.3116  5.3415e+20
-34.1943  5.47945e+20
-34.077  5.61643e+20
-33.9597  5.74988e+20
-33.8424  5.87864e+20
-33.7251  6.00159e+20
-33.6078  6.11761e+20
-33.4905  6.22697e+20
-33.3732  6.32968e+20
-33.2559  6.42704e+20
-33.1386  6.51972e+20
-33.0213  6.60898e+20
-32.904  6.69651e+20
-32.7867  6.78266e+20
-32.6693  6.86768e+20
-32.552  6.95215e+20
-32.4347  7.03724e+20
-32.3174  7.1235e+20
-32.2001  7.21186e+20
-32.0828  7.30378e+20
-31.9655  7.40055e+20
-31.8482  7.50439e+20
-31.7309  7.61775e+20
-31.6136  7.74331e+20
-31.4963  7.88438e+20
-31.379  8.04294e+20
-31.2617  8.22278e+20
-31.1444  8.42548e+20
-31.0271  8.6526e+20
-30.9098  8.9025e+20
-30.7925  9.17373e+20
-30.6752  9.46141e+20
-30.5579  9.75969e+20
-30.4406  1.00595e+21
-30.3232  1.03498e+21
-30.2059  1.06239e+21
-30.0886  1.08698e+21
-29.9713  1.10793e+21
-29.854  1.12456e+21
-29.7367  1.13641e+21
-29.6194  1.14314e+21
-29.5021  1.14503e+21
-29.3848  1.14254e+21
-29.2675  1.13636e+21
-29.1502  1.12761e+21
-29.0329  1.11757e+21
-28.9156  1.10773e+21
-28.7983  1.09971e+21
-28.681  1.09485e+21
-28.5637  1.09472e+21
-28.4464  1.10018e+21
-28.3291  1.11221e+21
-28.2118  1.13108e+21
-28.0944  1.15671e+21
-27.9771  1.18866e+21
-27.8598  1.22582e+21
-27.7425  1.26724e+21
-27.6252  1.31108e+21
-27.5079  1.35557e+21
-27.3906  1.39895e+21
-27.2733  1.43934e+21
-27.156  1.4751e+21
-27.0387  1.5049e+21
-26.9214  1.52798e+21
-26.8041  1.54396e+21
-26.6868  1.55305e+21
-26.5695  1.556e+21
-26.4522  1.55395e+21
-26.3349  1.54873e+21
-26.2176  1.54204e+21
-26.1003  1.5358e+21
-25.983  1.53188e+21
-25.8657  1.53187e+21
-25.7483  1.53705e+21
-25.631  1.54816e+21
-25.5137  1.56612e+21
-25.3964  1.59048e+21
-25.2791  1.62087e+21
-25.1618  1.65639e+21
-25.0445  1.69578e+21
-24.9272  1.73748e+21
-24.8099  1.77988e+21
-24.6926  1.82148e+21
-24.5753  1.86095e+21
-24.458  1.89717e+21
-24.3407  1.92955e+21
-24.2234  1.95805e+21
-24.1061  1.98298e+21
-23.9888  2.00499e+21
-23.8715  2.02536e+21
-23.7542  2.0451e+21
-23.6369  2.0657e+21
-23.5196  2.0882e+21
-23.4023  2.11346e+21
-23.2849  2.14214e+21
-23.1676  2.17415e+21
-23.0503  2.20941e+21
-22.933  2.2466e+21
-22.8157  2.28464e+21
-22.6984  2.32174e+21
-22.5811  2.35622e+21
-22.4638  2.38626e+21
-22.3465  2.41026e+21
-22.2292  2.42743e+21
-22.1119  2.43727e+21
-21.9946  2.43997e+21
-21.8773  2.43651e+21
-21.76  2.42834e+21
-21.6427  2.41779e+21
-21.5254  2.40707e+21
-21.4081  2.39869e+21
-21.2908  2.39481e+21
-21.1735  2.39739e+21
-21.0561  2.40805e+21
-20.9388  2.42762e+21
-20.8215  2.45679e+21
-20.7042  2.49466e+21
-20.5869  2.54054e+21
-20.4696  2.59263e+21
-20.3523  2.64879e+21
-20.235  2.70654e+21
-20.1177  2.76301e+21
-20.0004  2.81557e+21
-19.8831  2.86209e+21
-19.7658  2.90039e+21
-19.6485  2.92948e+21
-19.5312  2.94897e+21
-19.4139  2.95942e+21
-19.2966  2.96205e+21
-19.1793  2.9589e+21
-19.062  2.95239e+21
-18.9447  2.94519e+21
-18.8274  2.93989e+21
-18.71  2.93903e+21
-18.5927  2.94474e+21
-18.4754  2.95844e+21
-18.3581  2.98113e+21
-18.2408  3.01258e+21
-18.1235  3.05226e+21
-18.0062  3.09853e+21
-17.8889  3.14943e+21
-17.7716  3.20248e+21
-17.6543  3.2546e+21
-17.537  3.30355e+21
-17.4197  3.34659e+21
-17.3024  3.3819e+21
-17.1851  3.40827e+21
-17.0678  3.42525e+21
-16.9505  3.43343e+21
-16.8332  3.43421e+21
-16.7159  3.42944e+21
-16.5986  3.42137e+21
-16.4813  3.41261e+21
-16.364  3.40587e+21
-16.2466  3.40357e+21
-16.1293  3.40791e+21
-16.012  3.41986e+21
-15.8947  3.44069e+21
-15.7774  3.47025e+21
-15.6601  3.50795e+21
-15.5428  3.55267e+21
-15.4255  3.6026e+21
-15.3082  3.65534e+21
-15.1909  3.70931e+21
-15.0736  3.76165e+21
-14.9563  3.81079e+21
-14.839  3.85505e+21
-14.7217  3.89366e+21
-14.6044  3.92628e+21
-14.4871  3.95317e+21
-14.3698  3.97538e+21
-14.2525  3.99405e+21
-14.1352  4.01045e+21
-14.0178  4.02638e+21
-13.9005  4.04306e+21
-13.7832  4.06155e+21
-13.6659  4.08252e+21
-13.5486  4.106e+21
-13.4313  4.13176e+21
-13.314  4.15897e+21
-13.1967  4.18653e+21
-13.0794  4.21333e+21
-12.9621  4.23772e+21
-12.8448  4.25873e+21
-12.7275  4.27535e+21
-12.6102  4.28707e+21
-12.4929  4.29362e+21
-12.3756  4.29544e+21
-12.2583  4.29348e+21
-12.141  4.28933e+21
-12.0237  4.28453e+21
-11.9064  4.28094e+21
-11.7891  4.2804e+21
-11.6718  4.28488e+21
-11.5544  4.29592e+21
-11.4371  4.31462e+21
-11.3198  4.3413e+21
-11.2025  4.37612e+21
-11.0852  4.41843e+21
-10.9679  4.46691e+21
-10.8506  4.52014e+21
-10.7333  4.57588e+21
-10.616  4.63188e+21
-10.4987  4.68618e+21
-10.3814  4.73634e+21
-10.2641  4.78086e+21
-10.1468  4.81816e+21
-10.0295  4.84757e+21
-9.91217  4.86883e+21
-9.79487  4.88204e+21
-9.67756  4.88845e+21
-9.56026  4.88884e+21
-9.44295  4.88471e+21
-9.32565  4.87804e+21
-9.20834  4.8701e+21
-9.09104  4.86245e+21
-8.97373  4.8563e+21
-8.85643  4.85242e+21
-8.73913  4.85149e+21
-8.62182  4.85375e+21
-8.50452  4.85912e+21
-8.38721  4.86747e+21
-8.26991  4.87807e+21
-8.1526  4.89063e+21
-8.03529  4.90446e+21
-7.91799  4.91932e+21
-7.80069  4.93464e+21
-7.68338  4.95037e+21
-7.56608  4.96661e+21
-7.44877  4.98377e+21
-7.33146  5.0021e+21
-7.21416  5.02223e+21
-7.09685  5.04456e+21
-6.97955  5.06934e+21
-6.86224  5.09718e+21
-6.74494  5.12735e+21
-6.62763  5.15979e+21
-6.51033  5.19359e+21
-6.39302  5.2278e+21
-6.27572  5.26093e+21
-6.15842  5.29204e+21
-6.04111  5.31933e+21
-5.92381  5.34163e+21
-5.8065  5.3582e+21
-5.68919  5.36826e+21
-5.57189  5.37152e+21
-5.45458  5.36847e+21
-5.33728  5.3595e+21
-5.21997  5.34602e+21
-5.10267  5.32923e+21
-4.98536  5.31106e+21
-4.86806  5.29305e+21
-4.75075  5.27693e+21
-4.63345  5.26445e+21
-4.51614  5.25656e+21
-4.39884  5.25426e+21
-4.28154  5.25781e+21
-4.16423  5.26719e+21
-4.04692  5.28201e+21
-3.92962  5.30133e+21
-3.81231  5.32437e+21
-3.69501  5.34994e+21
-3.5777  5.37686e+21
-3.4604  5.40394e+21
-3.34309  5.43013e+21
-3.22579  5.45484e+21
-3.10849  5.47729e+21
-2.99118  5.49727e+21
-2.87387  5.51455e+21
-2.75657  5.52952e+21
-2.63926  5.54207e+21
-2.52196  5.55266e+21
-2.40465  5.56179e+21
-2.28735  5.56938e+21
-2.17005  5.57616e+21
-2.05274  5.58159e+21
-1.93544  5.58609e+21
-1.81813  5.58948e+21
-1.70083  5.59168e+21
-1.58352  5.59237e+21
-1.46622  5.59157e+21
-1.34891  5.58908e+21
-1.2316  5.58498e+21
-1.1143  5.57925e+21
-0.996995  5.57211e+21
-0.87969  5.56388e+21
-0.762385  5.55491e+21
-0.64508  5.54561e+21
-0.527775  5.53659e+21
-0.41047  5.52844e+21
-0.293165  5.52176e+21
-0.17586  5.51699e+21
-0.058555  5.51457e+21
0.05875  5.51483e+21
0.176055  5.5175e+21
0.29336  5.52272e+21
0.410665  5.52966e+21
0.52797  5.53814e+21
0.645275  5.54743e+21
0.76258  5.55689e+21
0.879885  5.5661e+21
0.99719  5.57436e+21
1.1145  5.58168e+21
1.2318  5.58739e+21
1.3491  5.59145e+21
1.46641  5.59383e+21
1.58371  5.59458e+21
1.70102  5.59396e+21
1.81832  5.59177e+21
1.93563  5.58853e+21
2.05294  5.58397e+21
2.17024  5.57847e+21
2.28754  5.572e+21
2.40485  5.56439e+21
2.52216  5.55565e+21
2.63946  5.54504e+21
2.75677  5.53268e+21
2.87407  5.51797e+21
2.99137  5.50082e+21
3.10868  5.48098e+21
3.22599  5.45864e+21
3.34329  5.43408e+21
3.4606  5.40799e+21
3.5779  5.38089e+21
3.69521  5.35411e+21
3.81251  5.3286e+21
3.92982  5.30573e+21
4.04712  5.28639e+21
4.16443  5.27176e+21
4.28173  5.26259e+21
4.39903  5.25925e+21
4.51634  5.26182e+21
4.63364  5.27002e+21
4.75095  5.28285e+21
4.86825  5.29924e+21
4.98556  5.31765e+21
5.10286  5.33609e+21
5.22017  5.35317e+21
5.33748  5.36695e+21
5.45478  5.37611e+21
5.57209  5.3794e+21
5.68939  5.37606e+21
5.8067  5.36619e+21
5.924  5.34956e+21
6.0413  5.32706e+21
6.15861  5.29952e+21
6.27591  5.2684e+21
6.39322  5.23515e+21
6.51052  5.2009e+21
6.62783  5.16695e+21
6.74514  5.13434e+21
6.86244  5.10403e+21
6.97975  5.07643e+21
7.09705  5.05164e+21
7.21436  5.02954e+21
7.33166  5.00954e+21
7.44897  4.99156e+21
7.56627  4.97473e+21
7.68358  4.95871e+21
7.80088  4.9433e+21
7.91819  4.9282e+21
8.03549  4.91376e+21
8.1528  4.90028e+21
8.2701  4.88776e+21
8.38741  4.8773e+21
8.50471  4.86913e+21
8.62202  4.86381e+21
8.73932  4.86145e+21
8.85662  4.86234e+21
8.97393  4.86616e+21
9.09123  4.87219e+21
9.20854  4.87967e+21
9.32584  4.88761e+21
9.44315  4.89423e+21
9.56045  4.89819e+21
9.67776  4.89782e+21
9.79506  4.89141e+21
9.91237  4.87822e+21
10.0297  4.85705e+21
10.147  4.8279e+21
10.2643  4.79069e+21
10.3816  4.74632e+21
10.4989  4.69638e+21
10.6162  4.64228e+21
10.7335  4.58637e+21
10.8508  4.5307e+21
10.9681  4.47776e+21
11.0854  4.42956e+21
11.2027  4.38752e+21
11.32  4.35276e+21
11.4373  4.32614e+21
11.5546  4.30763e+21
11.6719  4.29683e+21
11.7893  4.29259e+21
11.9066  4.2932e+21
12.0239  4.29691e+21
12.1412  4.3021e+21
12.2585  4.30649e+21
12.3758  4.30842e+21
12.4931  4.30676e+21
12.6104  4.30022e+21
12.7277  4.28873e+21
12.845  4.27235e+21
12.9623  4.25122e+21
13.0796  4.22687e+21
13.1969  4.20013e+21
13.3142  4.17249e+21
13.4315  4.14521e+21
13.5488  4.11945e+21
13.6661  4.09591e+21
13.7834  4.07481e+21
13.9007  4.05617e+21
14.018  4.03955e+21
14.1354  4.02358e+21
14.2527  4.00701e+21
14.37  3.98836e+21
14.4873  3.9661e+21
14.6046  3.93923e+21
14.7219  3.90661e+21
14.8392  3.86805e+21
14.9565  3.82387e+21
15.0738  3.77479e+21
15.1911  3.72256e+21
15.3084  3.66892e+21
15.4257  3.61612e+21
15.543  3.56641e+21
15.6603  3.5219e+21
15.7776  3.48437e+21
15.8949  3.45507e+21
16.0122  3.43433e+21
16.1295  3.42236e+21
16.2468  3.41822e+21
16.3641  3.42055e+21
16.4815  3.4273e+21
16.5988  3.43585e+21
16.7161  3.44377e+21
16.8334  3.44854e+21
16.9507  3.44758e+21
17.068  3.43903e+21
17.1853  3.42176e+21
17.3026  3.3951e+21
17.4199  3.35954e+21
17.5372  3.31639e+21
17.6545  3.26732e+21
17.7718  3.21496e+21
17.8891  3.16193e+21
18.0064  3.11098e+21
18.1237  3.06475e+21
18.241  3.02519e+21
18.3583  2.99391e+21
18.4756  2.97139e+21
18.5929  2.95782e+21
18.7102  2.95243e+21
18.8275  2.9534e+21
18.9449  2.95888e+21
19.0622  2.96613e+21
19.1795  2.97275e+21
19.2968  2.97588e+21
19.4141  2.97315e+21
19.5314  2.96258e+21
19.6487  2.94293e+21
19.766  2.9136e+21
19.8833  2.87507e+21
20.0006  2.82844e+21
20.1179  2.77568e+21
20.2352  2.71904e+21
20.3525  2.66128e+21
20.4698  2.6051e+21
20.5871  2.55314e+21
20.7044  2.50732e+21
20.8217  2.46955e+21
20.939  2.44081e+21
21.0563  2.42136e+21
21.1736  2.41109e+21
21.291  2.4086e+21
21.4083  2.41279e+21
21.5256  2.42146e+21
21.6429  2.43232e+21
21.7602  2.44291e+21
21.8775  2.45101e+21
21.9948  2.45431e+21
22.1121  2.45149e+21
22.2294  2.44151e+21
22.3467  2.42414e+21
22.464  2.39979e+21
22.5813  2.3695e+21
22.6986  2.33485e+21
22.8159  2.29759e+21
22.9332  2.25945e+21
23.0505  2.22219e+21
23.1678  2.18703e+21
23.2851  2.15503e+21
23.4024  2.12652e+21
23.5198  2.10129e+21
23.6371  2.07891e+21
23.7544  2.05835e+21
23.8717  2.03864e+21
23.989  2.01817e+21
24.1063  1.996e+21
24.2236  1.97094e+21
24.3409  1.94221e+21
24.4582  1.90949e+21
24.5755  1.87291e+21
24.6928  1.83316e+21
24.8101  1.79134e+21
24.9274  1.74868e+21
25.0447  1.70674e+21
25.162  1.66721e+21
25.2793  1.63165e+21
25.3966  1.60126e+21
25.5139  1.57703e+21
25.6312  1.55937e+21
25.7485  1.54827e+21
25.8658  1.54335e+21
25.9832  1.54349e+21
26.1005  1.54774e+21
26.2178  1.55406e+21
26.3351  1.56084e+21
26.4524  1.5661e+21
26.5697  1.56793e+21
26.687  1.56481e+21
26.8043  1.55547e+21
26.9216  1.53915e+21
27.0389  1.51572e+21
27.1562  1.48542e+21
27.2735  1.44925e+21
27.3908  1.40847e+21
27.5081  1.36473e+21
27.6254  1.31992e+21
27.7427  1.27591e+21
27.86  1.23447e+21
27.9773  1.19726e+21
28.0946  1.16548e+21
28.212  1.13994e+21
28.3293  1.12132e+21
28.4466  1.10951e+21
28.5639  1.10434e+21
28.6812  1.10471e+21
28.7985  1.10975e+21
28.9158  1.11798e+21
29.0331  1.12791e+21
29.1504  1.13802e+21
29.2677  1.14671e+21
29.385  1.15277e+21
29.5023  1.1552e+21
29.6196  1.15311e+21
29.7369  1.14606e+21
29.8542  1.13391e+21
29.9715  1.117e+21
30.0888  1.09579e+21
30.2061  1.07099e+21
30.3234  1.04342e+21
30.4407  1.01409e+21
30.558  9.84023e+20
30.6754  9.54108e+20
30.7927  9.25366e+20
30.91  8.98145e+20
31.0273  8.7314e+20
31.1446  8.50464e+20
31.2619  8.30129e+20
31.3792  8.12164e+20
31.4965  7.96274e+20
31.6138  7.82119e+20
31.7311  7.6954e+20
31.8484  7.58093e+20
31.9657  7.47621e+20
32.083  7.37781e+20
32.2003  7.28472e+20
32.3176  7.19522e+20
32.4349  7.10735e+20
32.5522  7.02102e+20
32.6695  6.93541e+20
32.7868  6.84922e+20
32.9042  6.76188e+20
33.0215  6.67348e+20
33.1388  6.58294e+20
33.2561  6.48972e+20
33.3734  6.39163e+20
33.4907  6.28794e+20
33.608  6.17772e+20
33.7253  6.06115e+20
33.8426  5.93757e+20
33.9599  5.80777e+20
34.0772  5.67344e+20
34.1945  5.53594e+20
34.3118  5.39771e+20
34.4291  5.25931e+20
34.5464  5.12308e+20
34.6637  4.99027e+20
34.781  4.86286e+20
34.8983  4.74235e+20
35.0156  4.63039e+20
35.1329  4.5282e+20
35.2503  4.43844e+20
35.3676  4.36254e+20
35.4849  4.30092e+20
35.6022  4.2516e+20
35.7195  4.21371e+20
35.8368  4.1831e+20
35.9541  4.15565e+20
36.0714  4.12832e+20
36.1887  4.09765e+20
36.306  4.06098e+20
36.4233  4.01936e+20
36.5406  3.97258e+20
36.6579  3.92285e+20
36.7752  3.87077e+20
36.8925  3.81794e+20
37.0098  3.76319e+20
37.1271  3.70447e+20
37.2444  3.63992e+20
37.3617  3.56634e+20
37.479  3.48253e+20
37.5964  3.38852e+20
37.7137  3.28665e+20
37.831  3.18156e+20
37.9483  3.07793e+20
38.0656  2.98098e+20
38.1829  2.8947e+20
38.3002  2.82048e+20
38.4175  2.75809e+20
38.5348  2.70421e+20
38.6521  2.65398e+20
38.7694  2.60272e+20
38.8867  2.54623e+20
39.004  2.48276e+20
39.1213  2.41198e+20
39.2386  2.33678e+20
39.3559  2.26093e+20
39.4732  2.18917e+20
39.5905  2.12598e+20
39.7078  2.07466e+20
39.8251  2.03623e+20
39.9425  2.01079e+20
40.0598  1.99691e+20
40.1771  1.9919e+20
40.2944  1.99243e+20
40.4117  1.99621e+20
40.529  2.00039e+20
40.6463  2.00265e+20
40.7636  2.00146e+20
40.8809  1.9951e+20
40.9982  1.98161e+20
41.1155  1.96025e+20
41.2328  1.92969e+20
41.3501  1.88973e+20
41.4674  1.83995e+20
41.5847  1.78114e+20
41.702  1.71451e+20
41.8193  1.6413e+20
41.9366  1.56373e+20
42.0539  1.48414e+20
42.1712  1.40546e+20
42.2885  1.33099e+20
42.4059  1.26448e+20
42.5232  1.20996e+20
42.6405  1.17054e+20
42.7578  1.14879e+20
42.8751  1.14557e+20
42.9924  1.15989e+20
43.1097  1.18922e+20
43.227  1.22906e+20
43.3443  1.27441e+20
43.4616  1.32067e+20
43.5789  1.36408e+20
43.6962  1.40313e+20
43.8135  1.43781e+20
43.9308  1.47003e+20
44.0481  1.50218e+20
44.1654  1.53628e+20
44.2827  1.57319e+20
44.4  1.61171e+20
44.5173  1.64823e+20
44.6347  1.67874e+20
44.752  1.69865e+20
44.8693  1.70399e+20
44.9866  1.69266e+20
45.1039  1.66591e+20
45.2212  1.62592e+20
45.3385  1.57767e+20
45.4558  1.52637e+20
45.5731  1.47635e+20
45.6904  1.43025e+20
45.8077  1.38948e+20
45.925  1.35296e+20
46.0423  1.31896e+20
46.1596  1.28498e+20
46.2769  1.24968e+20
46.3942  1.21242e+20
46.5115  1.17348e+20
46.6288  1.13533e+20
46.7461  1.09999e+20
46.8634  1.07013e+20
46.9808  1.04798e+20
47.0981  1.03488e+20
47.2154  1.03196e+20
47.3327  1.03895e+20
47.45  1.05652e+20
47.5673  1.08412e+20
47.6846  1.12139e+20
47.8019  1.16899e+20
47.9192  1.22585e+20
48.0365  1.29097e+20
48.1538  1.36256e+20
48.2711  1.43751e+20
48.3884  1.51276e+20
48.5057  1.58383e+20
48.623  1.64686e+20
48.7403  1.69754e+20
48.8576  1.73205e+20
48.9749  1.74867e+20
49.0922  1.74574e+20
49.2095  1.72267e+20
49.3269  1.68126e+20
49.4442  1.62478e+20
49.5615  1.55585e+20
49.6788  1.47986e+20
49.7961  1.40304e+20
49.9134  1.33013e+20
50.0307  1.26715e+20
50.148  1.21874e+20
50.2653  1.18834e+20
50.3826  1.17744e+20
50.4999  1.1873e+20
50.6172  1.21665e+20
50.7345  1.26421e+20
