#S 1 spectral density
#N 2
#UFWHM 10.9094
#L  abscissas [um]  spectral density
-58.5938  4.45297e+18
-58.4764  2.35105e+18
-58.3591  1.13455e+18
-58.2418  9.58357e+17
-58.1245  1.74631e+18
-58.0072  3.21079e+18
-57.8899  4.97396e+18
-57.7726  6.65779e+18
-57.6553  7.9842e+18
-57.538  8.86339e+18
-57.4207  9.39438e+18
-57.3034  9.78109e+18
-57.1861  1.03005e+19
-57.0688  1.11664e+19
-56.9515  1.24921e+19
-56.8342  1.4207e+19
-56.7169  1.6165e+19
-56.5996  1.80828e+19
-56.4823  1.9746e+19
-56.365  2.0967e+19
-56.2477  2.1647e+19
-56.1303  2.18228e+19
-56.013  2.15851e+19
-55.8957  2.10247e+19
-55.7784  2.02087e+19
-55.6611  1.91363e+19
-55.5438  1.77613e+19
-55.4265  1.60791e+19
-55.3092  1.40387e+19
-55.1919  1.17098e+19
-55.0746  9.25736e+18
-54.9573  6.90326e+18
-54.84  4.94421e+18
-54.7227  3.6286e+18
-54.6054  3.14634e+18
-54.4881  3.55328e+18
-54.3708  4.7765e+18
-54.2535  6.63053e+18
-54.1362  8.85495e+18
-54.0189  1.11742e+19
-53.9016  1.33259e+19
-53.7842  1.51114e+19
-53.6669  1.6438e+19
-53.5496  1.72747e+19
-53.4323  1.76487e+19
-53.315  1.76344e+19
-53.1977  1.73269e+19
-53.0804  1.68162e+19
-52.9631  1.61947e+19
-52.8458  1.55424e+19
-52.7285  1.48958e+19
-52.6112  1.43015e+19
-52.4939  1.37325e+19
-52.3766  1.31619e+19
-52.2593  1.25519e+19
-52.142  1.18548e+19
-52.0247  1.10721e+19
-51.9074  1.02242e+19
-51.7901  9.40811e+18
-51.6728  8.76097e+18
-51.5555  8.43737e+18
-51.4381  8.6023e+18
-51.3208  9.34937e+18
-51.2035  1.07011e+19
-51.0862  1.25695e+19
-50.9689  1.47847e+19
-50.8516  1.70896e+19
-50.7343  1.92021e+19
-50.617  2.08499e+19
-50.4997  2.18407e+19
-50.3824  2.20471e+19
-50.2651  2.14711e+19
-50.1478  2.01781e+19
-50.0305  1.83728e+19
-49.9132  1.62385e+19
-49.7959  1.40445e+19
-49.6786  1.20288e+19
-49.5613  1.03905e+19
-49.444  9.28465e+18
-49.3267  8.7756e+18
-49.2094  8.83116e+18
-49.092  9.33261e+18
-48.9747  1.00988e+19
-48.8574  1.08997e+19
-48.7401  1.15019e+19
-48.6228  1.17123e+19
-48.5055  1.14305e+19
-48.3882  1.0624e+19
-48.2709  9.38987e+18
-48.1536  7.885e+18
-48.0363  6.30262e+18
-47.919  4.84179e+18
-47.8017  3.65183e+18
-47.6844  2.81424e+18
-47.5671  2.34005e+18
-47.4498  2.18903e+18
-47.3325  2.2781e+18
-47.2152  2.52554e+18
-47.0979  2.84598e+18
-46.9806  3.19203e+18
-46.8633  3.52582e+18
-46.7459  3.82344e+18
-46.6286  4.11468e+18
-46.5113  4.44485e+18
-46.394  4.94829e+18
-46.2767  5.79336e+18
-46.1594  7.23028e+18
-46.0421  9.54194e+18
-45.9248  1.29584e+19
-45.8075  1.75832e+19
-45.6902  2.33452e+19
-45.5729  2.98668e+19
-45.4556  3.66029e+19
-45.3383  4.27019e+19
-45.221  4.73813e+19
-45.1037  4.98293e+19
-44.9864  4.95362e+19
-44.8691  4.64379e+19
-44.7518  4.08792e+19
-44.6345  3.35736e+19
-44.5172  2.55514e+19
-44.3998  1.79107e+19
-44.2825  1.15843e+19
-44.1652  7.21909e+18
-44.0479  5.02464e+18
-43.9306  4.80368e+18
-43.8133  6.00778e+18
-43.696  7.89679e+18
-43.5787  9.7399e+18
-43.4614  1.09557e+19
-43.3441  1.12308e+19
-43.2268  1.05316e+19
-43.1095  9.10872e+18
-42.9922  7.35718e+18
-42.8749  5.73506e+18
-42.7576  4.64304e+18
-42.6403  4.36477e+18
-42.523  5.01222e+18
-42.4057  6.55512e+18
-42.2884  8.82695e+18
-42.171  1.15908e+19
-42.0537  1.4605e+19
-41.9364  1.76109e+19
-41.8191  2.03706e+19
-41.7018  2.27189e+19
-41.5845  2.44915e+19
-41.4672  2.56161e+19
-41.3499  2.60428e+19
-41.2326  2.57926e+19
-41.1153  2.49275e+19
-40.998  2.35358e+19
-40.8807  2.17589e+19
-40.7634  1.97203e+19
-40.6461  1.75722e+19
-40.5288  1.54678e+19
-40.4115  1.35877e+19
-40.2942  1.21669e+19
-40.1769  1.14665e+19
-40.0596  1.17799e+19
-39.9423  1.33903e+19
-39.825  1.65008e+19
-39.7076  2.11349e+19
-39.5903  2.71223e+19
-39.473  3.40155e+19
-39.3557  4.11138e+19
-39.2384  4.75841e+19
-39.1211  5.25337e+19
-39.0038  5.52069e+19
-38.8865  5.51221e+19
-38.7692  5.21983e+19
-38.6519  4.67541e+19
-38.5346  3.94778e+19
-38.4173  3.12823e+19
-38.3  2.31887e+19
-38.1827  1.60926e+19
-38.0654  1.0609e+19
-37.9481  7.05469e+18
-37.8308  5.34511e+18
-37.7135  5.14901e+18
-37.5962  5.94152e+18
-37.4789  7.18004e+18
-37.3615  8.38915e+18
-37.2442  9.24718e+18
-37.1269  9.63105e+18
-37.0096  9.53858e+18
-36.8923  9.07396e+18
-36.775  8.35711e+18
-36.6577  7.50128e+18
-36.5404  6.57894e+18
-36.4231  5.64371e+18
-36.3058  4.77006e+18
-36.1885  4.06863e+18
-36.0712  3.72689e+18
-35.9539  3.97924e+18
-35.8366  5.08952e+18
-35.7193  7.27179e+18
-35.602  1.06194e+19
-35.4847  1.51029e+19
-35.3674  2.051e+19
-35.2501  2.64861e+19
-35.1328  3.25779e+19
-35.0154  3.83305e+19
-34.8981  4.33487e+19
-34.7808  4.73563e+19
-34.6635  5.01978e+19
-34.5462  5.18806e+19
-34.4289  5.25731e+19
-34.3116  5.24101e+19
-34.1943  5.16306e+19
-34.077  5.04173e+19
-33.9597  4.89012e+19
-33.8424  4.71898e+19
-33.7251  4.53377e+19
-33.6078  4.33746e+19
-33.4905  4.13055e+19
-33.3732  3.91211e+19
-33.2559  3.68307e+19
-33.1386  3.44019e+19
-33.0213  3.18268e+19
-32.904  2.91138e+19
-32.7867  2.62882e+19
-32.6693  2.33999e+19
-32.552  2.05613e+19
-32.4347  1.79193e+19
-32.3174  1.56966e+19
-32.2001  1.40994e+19
-32.0828  1.33322e+19
-31.9655  1.35734e+19
-31.8482  1.49235e+19
-31.7309  1.74236e+19
-31.6136  2.10299e+19
-31.4963  2.5636e+19
-31.379  3.10733e+19
-31.2617  3.71493e+19
-31.1444  4.36458e+19
-31.0271  5.03284e+19
-30.9098  5.70429e+19
-30.7925  6.34886e+19
-30.6752  6.95216e+19
-30.5579  7.49626e+19
-30.4406  7.9668e+19
-30.3232  8.36039e+19
-30.2059  8.66819e+19
-30.0886  8.89157e+19
-29.9713  9.04305e+19
-29.854  9.12654e+19
-29.7367  9.14684e+19
-29.6194  9.11877e+19
-29.5021  9.05026e+19
-29.3848  8.94748e+19
-29.2675  8.82529e+19
-29.1502  8.68873e+19
-29.0329  8.55634e+19
-28.9156  8.43687e+19
-28.7983  8.33792e+19
-28.681  8.26938e+19
-28.5637  8.22485e+19
-28.4464  8.20294e+19
-28.3291  8.18709e+19
-28.2118  8.15999e+19
-28.0944  8.10665e+19
-27.9771  8.01279e+19
-27.8598  7.87172e+19
-27.7425  7.68914e+19
-27.6252  7.46646e+19
-27.5079  7.22917e+19
-27.3906  6.99447e+19
-27.2733  6.78588e+19
-27.156  6.62724e+19
-27.0387  6.53085e+19
-26.9214  6.51372e+19
-26.8041  6.57837e+19
-26.6868  6.72215e+19
-26.5695  6.9302e+19
-26.4522  7.18318e+19
-26.3349  7.46072e+19
-26.2176  7.72712e+19
-26.1003  7.96836e+19
-25.983  8.16093e+19
-25.8657  8.29902e+19
-25.7483  8.39951e+19
-25.631  8.48791e+19
-25.5137  8.6177e+19
-25.3964  8.83865e+19
-25.2791  9.2094e+19
-25.1618  9.78e+19
-25.0445  1.05869e+20
-24.9272  1.16345e+20
-24.8099  1.29099e+20
-24.6926  1.43729e+20
-24.5753  1.59615e+20
-24.458  1.76031e+20
-24.3407  1.92271e+20
-24.2234  2.07648e+20
-24.1061  2.21674e+20
-23.9888  2.34008e+20
-23.8715  2.44544e+20
-23.7542  2.53302e+20
-23.6369  2.60604e+20
-23.5196  2.66849e+20
-23.4023  2.72378e+20
-23.2849  2.77667e+20
-23.1676  2.83053e+20
-23.0503  2.88675e+20
-22.933  2.94668e+20
-22.8157  3.00666e+20
-22.6984  3.06315e+20
-22.5811  3.11091e+20
-22.4638  3.14328e+20
-22.3465  3.15584e+20
-22.2292  3.14378e+20
-22.1119  3.10573e+20
-21.9946  3.04174e+20
-21.8773  2.95585e+20
-21.76  2.85341e+20
-21.6427  2.74024e+20
-21.5254  2.62352e+20
-21.4081  2.51062e+20
-21.2908  2.40822e+20
-21.1735  2.32271e+20
-21.0561  2.25988e+20
-20.9388  2.22445e+20
-20.8215  2.22052e+20
-20.7042  2.25335e+20
-20.5869  2.32543e+20
-20.4696  2.43794e+20
-20.3523  2.59092e+20
-20.235  2.78198e+20
-20.1177  3.00689e+20
-20.0004  3.25978e+20
-19.8831  3.53116e+20
-19.7658  3.81597e+20
-19.6485  4.10508e+20
-19.5312  4.39245e+20
-19.4139  4.67166e+20
-19.2966  4.93875e+20
-19.1793  5.18959e+20
-19.062  5.42079e+20
-18.9447  5.62934e+20
-18.8274  5.81252e+20
-18.71  5.9667e+20
-18.5927  6.09051e+20
-18.4754  6.18164e+20
-18.3581  6.23839e+20
-18.2408  6.26198e+20
-18.1235  6.25315e+20
-18.0062  6.21526e+20
-17.8889  6.152e+20
-17.7716  6.06809e+20
-17.6543  5.9719e+20
-17.537  5.86966e+20
-17.4197  5.7719e+20
-17.3024  5.68899e+20
-17.1851  5.63143e+20
-17.0678  5.60968e+20
-16.9505  5.63298e+20
-16.8332  5.70827e+20
-16.7159  5.84046e+20
-16.5986  6.02991e+20
-16.4813  6.2743e+20
-16.364  6.56842e+20
-16.2466  6.90439e+20
-16.1293  7.27021e+20
-16.012  7.65736e+20
-15.8947  8.0527e+20
-15.7774  8.44753e+20
-15.6601  8.83196e+20
-15.5428  9.19885e+20
-15.4255  9.53947e+20
-15.3082  9.85122e+20
-15.1909  1.01295e+21
-15.0736  1.03725e+21
-14.9563  1.05781e+21
-14.839  1.07492e+21
-14.7217  1.08848e+21
-14.6044  1.099e+21
-14.4871  1.10694e+21
-14.3698  1.11283e+21
-14.2525  1.11717e+21
-14.1352  1.12047e+21
-14.0178  1.12334e+21
-13.9005  1.12623e+21
-13.7832  1.12942e+21
-13.6659  1.13327e+21
-13.5486  1.13813e+21
-13.4313  1.1442e+21
-13.314  1.1518e+21
-13.1967  1.16112e+21
-13.0794  1.1729e+21
-12.9621  1.18731e+21
-12.8448  1.20507e+21
-12.7275  1.22651e+21
-12.6102  1.25243e+21
-12.4929  1.28318e+21
-12.3756  1.31896e+21
-12.2583  1.36012e+21
-12.141  1.40656e+21
-12.0237  1.45798e+21
-11.9064  1.51375e+21
-11.7891  1.57315e+21
-11.6718  1.63528e+21
-11.5544  1.69916e+21
-11.4371  1.76377e+21
-11.3198  1.82817e+21
-11.2025  1.89168e+21
-11.0852  1.95403e+21
-10.9679  2.01521e+21
-10.8506  2.07575e+21
-10.7333  2.13637e+21
-10.616  2.19844e+21
-10.4987  2.26366e+21
-10.3814  2.33363e+21
-10.2641  2.41014e+21
-10.1468  2.49523e+21
-10.0295  2.59032e+21
-9.91217  2.6964e+21
-9.79487  2.81446e+21
-9.67756  2.94435e+21
-9.56026  3.08549e+21
-9.44295  3.23641e+21
-9.32565  3.39569e+21
-9.20834  3.5607e+21
-9.09104  3.72878e+21
-8.97373  3.89731e+21
-8.85643  4.06388e+21
-8.73913  4.22611e+21
-8.62182  4.38247e+21
-8.50452  4.53197e+21
-8.38721  4.67481e+21
-8.26991  4.81106e+21
-8.1526  4.9425e+21
-8.03529  5.07046e+21
-7.91799  5.19735e+21
-7.80069  5.32548e+21
-7.68338  5.45683e+21
-7.56608  5.59359e+21
-7.44877  5.73742e+21
-7.33146  5.88938e+21
-7.21416  6.04991e+21
-7.09685  6.21908e+21
-6.97955  6.39637e+21
-6.86224  6.58097e+21
-6.74494  6.77201e+21
-6.62763  6.96786e+21
-6.51033  7.16749e+21
-6.39302  7.36998e+21
-6.27572  7.57467e+21
-6.15842  7.78111e+21
-6.04111  7.98909e+21
-5.92381  8.19874e+21
-5.8065  8.41038e+21
-5.68919  8.62383e+21
-5.57189  8.83939e+21
-5.45458  9.05665e+21
-5.33728  9.2755e+21
-5.21997  9.49506e+21
-5.10267  9.71489e+21
-4.98536  9.93379e+21
-4.86806  1.0151e+22
-4.75075  1.03659e+22
-4.63345  1.05783e+22
-4.51614  1.07881e+22
-4.39884  1.09957e+22
-4.28154  1.12029e+22
-4.16423  1.14114e+22
-4.04692  1.1623e+22
-3.92962  1.18408e+22
-3.81231  1.20678e+22
-3.69501  1.23066e+22
-3.5777  1.25598e+22
-3.4604  1.28294e+22
-3.34309  1.31161e+22
-3.22579  1.34197e+22
-3.10849  1.37396e+22
-2.99118  1.40727e+22
-2.87387  1.4416e+22
-2.75657  1.4765e+22
-2.63926  1.51145e+22
-2.52196  1.54589e+22
-2.40465  1.57925e+22
-2.28735  1.61096e+22
-2.17005  1.64054e+22
-2.05274  1.66759e+22
-1.93544  1.69176e+22
-1.81813  1.7129e+22
-1.70083  1.73094e+22
-1.58352  1.74594e+22
-1.46622  1.7581e+22
-1.34891  1.76763e+22
-1.2316  1.77488e+22
-1.1143  1.78018e+22
-0.996995  1.78391e+22
-0.87969  1.78641e+22
-0.762385  1.78792e+22
-0.64508  1.7888e+22
-0.527775  1.78921e+22
-0.41047  1.78935e+22
-0.293165  1.78932e+22
-0.17586  1.78924e+22
-0.058555  1.78915e+22
0.05875  1.78908e+22
0.176055  1.78903e+22
0.29336  1.78897e+22
0.410665  1.78887e+22
0.52797  1.78858e+22
0.645275  1.788e+22
0.76258  1.78697e+22
0.879885  1.78527e+22
0.99719  1.78261e+22
1.1145  1.77871e+22
1.2318  1.77321e+22
1.3491  1.76579e+22
1.46641  1.75609e+22
1.58371  1.74377e+22
1.70102  1.72859e+22
1.81832  1.7104e+22
1.93563  1.68911e+22
2.05294  1.66481e+22
2.17024  1.63768e+22
2.28754  1.60801e+22
2.40485  1.57622e+22
2.52216  1.54281e+22
2.63946  1.50833e+22
2.75677  1.47335e+22
2.87407  1.43843e+22
2.99137  1.40407e+22
3.10868  1.37073e+22
3.22599  1.33876e+22
3.34329  1.30839e+22
3.4606  1.27974e+22
3.5779  1.25279e+22
3.69521  1.22748e+22
3.81251  1.20362e+22
3.92982  1.18092e+22
4.04712  1.15913e+22
4.16443  1.13798e+22
4.28173  1.11715e+22
4.39903  1.09642e+22
4.51634  1.07563e+22
4.63364  1.05466e+22
4.75095  1.03339e+22
4.86825  1.01185e+22
4.98556  9.90072e+21
5.10286  9.68139e+21
5.22017  9.46081e+21
5.33748  9.24055e+21
5.45478  9.02096e+21
5.57209  8.80308e+21
5.68939  8.58688e+21
5.8067  8.37281e+21
5.924  8.16075e+21
6.0413  7.95083e+21
6.15861  7.74271e+21
6.27591  7.53611e+21
6.39322  7.33178e+21
6.51052  7.1296e+21
6.62783  6.93037e+21
6.74514  6.73514e+21
6.86244  6.54504e+21
6.97975  6.3611e+21
7.09705  6.18469e+21
7.21436  6.01644e+21
7.33166  5.85661e+21
7.44897  5.70553e+21
7.56627  5.56255e+21
7.68358  5.42643e+21
7.80088  5.29565e+21
7.91819  5.16806e+21
8.03549  5.0418e+21
8.1528  4.91438e+21
8.2701  4.78357e+21
8.38741  4.64785e+21
8.50471  4.50578e+21
8.62202  4.35712e+21
8.73932  4.20155e+21
8.85662  4.04036e+21
8.97393  3.87492e+21
9.09123  3.70744e+21
9.20854  3.54047e+21
9.32584  3.37672e+21
9.44315  3.21859e+21
9.56045  3.06847e+21
9.67776  2.92839e+21
9.79506  2.79929e+21
9.91237  2.68196e+21
10.0297  2.57643e+21
10.147  2.48192e+21
10.2643  2.3973e+21
10.3816  2.32099e+21
10.4989  2.25133e+21
10.6162  2.18634e+21
10.7335  2.12441e+21
10.8508  2.06396e+21
10.9681  2.0036e+21
11.0854  1.9427e+21
11.2027  1.88064e+21
11.32  1.8174e+21
11.4373  1.75331e+21
11.5546  1.68908e+21
11.6719  1.62556e+21
11.7893  1.5639e+21
11.9066  1.50494e+21
12.0239  1.44944e+21
12.1412  1.39853e+21
12.2585  1.35249e+21
12.3758  1.3117e+21
12.4931  1.2762e+21
12.6104  1.2458e+21
12.7277  1.22023e+21
12.845  1.19901e+21
12.9623  1.18148e+21
13.0796  1.16735e+21
13.1969  1.15583e+21
13.3142  1.1467e+21
13.4315  1.13932e+21
13.5488  1.13345e+21
13.6661  1.1288e+21
13.7834  1.12504e+21
13.9007  1.12198e+21
14.018  1.11923e+21
14.1354  1.11639e+21
14.2527  1.1131e+21
14.37  1.10889e+21
14.4873  1.103e+21
14.6046  1.09509e+21
14.7219  1.08455e+21
14.8392  1.07104e+21
14.9565  1.05408e+21
15.0738  1.03359e+21
15.1911  1.00949e+21
15.3084  9.81797e+20
15.4257  9.50721e+20
15.543  9.16746e+20
15.6603  8.80312e+20
15.7776  8.42093e+20
15.8949  8.02818e+20
16.0122  7.63503e+20
16.1295  7.25028e+20
16.2468  6.88562e+20
16.3641  6.5525e+20
16.4815  6.26092e+20
16.5988  6.01884e+20
16.7161  5.83149e+20
16.8334  5.70306e+20
16.9507  5.63008e+20
17.068  5.61002e+20
17.1853  5.63459e+20
17.3026  5.69527e+20
17.4199  5.78037e+20
17.5372  5.87961e+20
17.6545  5.98297e+20
17.7718  6.0813e+20
17.8891  6.16507e+20
18.0064  6.22925e+20
18.1237  6.26691e+20
18.241  6.27458e+20
18.3583  6.24982e+20
18.4756  6.19151e+20
18.5929  6.09906e+20
18.7102  5.97305e+20
18.8275  5.81688e+20
18.9449  5.63219e+20
19.0622  5.42173e+20
19.1795  5.18915e+20
19.2968  4.93613e+20
19.4141  4.66775e+20
19.5314  4.38694e+20
19.6487  4.09815e+20
19.766  3.80817e+20
19.8833  3.5225e+20
20.0006  3.24971e+20
20.1179  2.99697e+20
20.2352  2.77228e+20
20.3525  2.58114e+20
20.4698  2.4282e+20
20.5871  2.31589e+20
20.7044  2.24501e+20
20.8217  2.21323e+20
20.939  2.21781e+20
21.0563  2.25443e+20
21.1736  2.31838e+20
21.291  2.40513e+20
21.4083  2.50871e+20
21.5256  2.6223e+20
21.6429  2.74e+20
21.7602  2.85424e+20
21.8775  2.95775e+20
21.9948  3.0442e+20
22.1121  3.10811e+20
22.2294  3.14601e+20
22.3467  3.15868e+20
22.464  3.14607e+20
22.5813  3.1134e+20
22.6986  3.06618e+20
22.8159  3.01012e+20
22.9332  2.95064e+20
23.0505  2.89189e+20
23.1678  2.83603e+20
23.2851  2.78283e+20
23.4024  2.72998e+20
23.5198  2.67512e+20
23.6371  2.61267e+20
23.7544  2.53913e+20
23.8717  2.45068e+20
23.989  2.34445e+20
24.1063  2.22001e+20
24.2236  2.07828e+20
24.3409  1.92308e+20
24.4582  1.75994e+20
24.5755  1.59445e+20
24.6928  1.43535e+20
24.8101  1.28892e+20
24.9274  1.16177e+20
25.0447  1.05735e+20
25.162  9.77187e+19
25.2793  9.20809e+19
25.3966  8.84099e+19
25.5139  8.62544e+19
25.6312  8.50046e+19
25.7485  8.40948e+19
25.8658  8.31031e+19
25.9832  8.16505e+19
26.1005  7.97379e+19
26.2178  7.73223e+19
26.3351  7.46063e+19
26.4524  7.18419e+19
26.5697  6.93133e+19
26.687  6.72542e+19
26.8043  6.5871e+19
26.9216  6.52631e+19
27.0389  6.54889e+19
27.1562  6.64941e+19
27.2735  6.81371e+19
27.3908  7.02451e+19
27.5081  7.26231e+19
27.6254  7.50032e+19
27.7427  7.71936e+19
27.86  7.90053e+19
27.9773  8.03644e+19
28.0946  8.12515e+19
28.212  8.17022e+19
28.3293  8.19115e+19
28.4466  8.19796e+19
28.5639  8.2141e+19
28.6812  8.25249e+19
28.7985  8.31905e+19
28.9158  8.41517e+19
29.0331  8.53513e+19
29.1504  8.6689e+19
29.2677  8.80678e+19
29.385  8.93486e+19
29.5023  9.04108e+19
29.6196  9.1112e+19
29.7369  9.14202e+19
29.8542  9.1231e+19
29.9715  9.04212e+19
30.0888  8.89162e+19
30.2061  8.66221e+19
30.3234  8.35125e+19
30.4407  7.95793e+19
30.558  7.4841e+19
30.6754  6.93968e+19
30.7927  6.33518e+19
30.91  5.6896e+19
31.0273  5.02329e+19
31.1446  4.3528e+19
31.2619  3.70517e+19
31.3792  3.09854e+19
31.4965  2.55692e+19
31.6138  2.09923e+19
31.7311  1.73897e+19
31.8484  1.48836e+19
31.9657  1.35223e+19
32.083  1.32705e+19
32.2003  1.4014e+19
32.3176  1.55969e+19
32.4349  1.78019e+19
32.5522  2.0432e+19
32.6695  2.32691e+19
32.7868  2.61749e+19
32.9042  2.90307e+19
33.0215  3.17729e+19
33.1388  3.43998e+19
33.2561  3.68664e+19
33.3734  3.92289e+19
33.4907  4.14439e+19
33.608  4.35578e+19
33.7253  4.55731e+19
33.8426  4.74391e+19
33.9599  4.91763e+19
34.0772  5.06825e+19
34.1945  5.18883e+19
34.3118  5.26485e+19
34.4291  5.27748e+19
34.5464  5.20587e+19
34.6637  5.0289e+19
34.781  4.73977e+19
34.8983  4.33424e+19
35.0156  3.82712e+19
35.1329  3.24827e+19
35.2503  2.63604e+19
35.3676  2.03904e+19
35.4849  1.49901e+19
35.6022  1.05195e+19
35.7195  7.18804e+18
35.8368  5.04148e+18
35.9541  3.95035e+18
36.0714  3.71975e+18
36.1887  4.0778e+18
36.306  4.78889e+18
36.4233  5.6746e+18
36.5406  6.61198e+18
36.6579  7.53405e+18
36.7752  8.38295e+18
36.8925  9.08472e+18
37.0098  9.53785e+18
37.1271  9.60905e+18
37.2444  9.21473e+18
37.3617  8.34555e+18
37.479  7.1388e+18
37.5964  5.91486e+18
37.7137  5.15335e+18
37.831  5.39234e+18
37.9483  7.15374e+18
38.0656  1.07581e+19
38.1829  1.62786e+19
38.3002  2.33923e+19
38.4175  3.14844e+19
38.5348  3.96341e+19
38.6521  4.68451e+19
38.7694  5.22153e+19
38.8867  5.50489e+19
39.004  5.50315e+19
39.1213  5.22621e+19
39.2386  4.7245e+19
39.3559  4.07562e+19
39.4732  3.36528e+19
39.5905  2.68017e+19
39.7078  2.08617e+19
39.8251  1.62775e+19
39.9425  1.32347e+19
40.0598  1.16785e+19
40.1771  1.14135e+19
40.2944  1.2155e+19
40.4117  1.35957e+19
40.529  1.54812e+19
40.6463  1.75905e+19
40.7636  1.97266e+19
40.8809  2.17415e+19
40.9982  2.35032e+19
41.1155  2.48568e+19
41.2328  2.56989e+19
41.3501  2.59164e+19
41.4674  2.54651e+19
41.5847  2.43181e+19
41.702  2.25205e+19
41.8193  2.01752e+19
41.9366  1.74072e+19
42.0539  1.44153e+19
42.1712  1.14295e+19
42.2885  8.70135e+18
42.4059  6.48032e+18
42.5232  4.99535e+18
42.6405  4.40888e+18
42.7578  4.73624e+18
42.8751  5.86439e+18
42.9924  7.51385e+18
43.1097  9.27546e+18
43.227  1.06812e+19
43.3443  1.13413e+19
43.4616  1.10278e+19
43.5789  9.76847e+18
43.6962  7.8836e+18
43.8135  5.97244e+18
43.9308  4.77841e+18
44.0481  5.031e+18
44.1654  7.27356e+18
44.2827  1.17029e+19
44.4  1.80893e+19
44.5173  2.57831e+19
44.6347  3.38196e+19
44.752  4.1131e+19
44.8693  4.66626e+19
44.9866  4.97078e+19
45.1039  4.99119e+19
45.2212  4.74098e+19
45.3385  4.26949e+19
45.4558  3.65309e+19
45.5731  2.97947e+19
45.6904  2.32563e+19
45.8077  1.75185e+19
45.925  1.29122e+19
46.0423  9.52314e+18
46.1596  7.2312e+18
46.2769  5.80114e+18
46.3942  4.96805e+18
46.5115  4.46774e+18
46.6288  4.13544e+18
46.7461  3.84148e+18
46.8634  3.53427e+18
46.9808  3.20414e+18
47.0981  2.85148e+18
47.2154  2.52334e+18
47.3327  2.27047e+18
47.45  2.18591e+18
47.5673  2.34815e+18
47.6846  2.83192e+18
47.8019  3.68799e+18
47.9192  4.89793e+18
48.0365  6.37552e+18
48.1538  7.96692e+18
48.2711  9.47685e+18
48.3884  1.07029e+19
48.5057  1.14929e+19
48.623  1.17501e+19
48.7403  1.14966e+19
48.8576  1.08706e+19
48.9749  1.00525e+19
49.0922  9.2734e+18
49.2095  8.75995e+18
49.3269  8.71657e+18
49.4442  9.23506e+18
49.5615  1.0359e+19
49.6788  1.19962e+19
49.7961  1.40267e+19
49.9134  1.6208e+19
50.0307  1.83297e+19
50.148  2.01487e+19
50.2653  2.14281e+19
50.3826  2.19994e+19
50.4999  2.17874e+19
50.6172  2.07989e+19
50.7345  1.91492e+19
50.8518  1.7034e+19
