#S 1 spectral density
#N 2
#UFWHM 11.8478
#L  abscissas [um]  spectral density
-58.5938  1.89781e+19
-58.4764  2.29802e+19
-58.3591  2.69835e+19
-58.2418  3.04813e+19
-58.1245  3.29741e+19
-58.0072  3.39054e+19
-57.8899  3.29594e+19
-57.7726  3.00679e+19
-57.6553  2.54706e+19
-57.538  1.97652e+19
-57.4207  1.37881e+19
-57.3034  8.41299e+18
-57.1861  4.45275e+18
-57.0688  2.44104e+18
-56.9515  2.54947e+18
-56.8342  4.55064e+18
-56.7169  7.88136e+18
-56.5996  1.18108e+19
-56.4823  1.55327e+19
-56.365  1.83812e+19
-56.2477  1.99417e+19
-56.1303  2.00544e+19
-56.013  1.88184e+19
-55.8957  1.65632e+19
-55.7784  1.36899e+19
-55.6611  1.06331e+19
-55.5438  7.76612e+18
-55.4265  5.33451e+18
-55.3092  3.52152e+18
-55.1919  2.39226e+18
-55.0746  1.94814e+18
-54.9573  2.13794e+18
-54.84  2.87529e+18
-54.7227  4.02982e+18
-54.6054  5.47917e+18
-54.4881  7.07462e+18
-54.3708  8.67657e+18
-54.2535  1.01813e+19
-54.1362  1.15381e+19
-54.0189  1.27399e+19
-53.9016  1.38483e+19
-53.7842  1.49348e+19
-53.6669  1.60728e+19
-53.5496  1.726e+19
-53.4323  1.84763e+19
-53.315  1.958e+19
-53.1977  2.041e+19
-53.0804  2.08186e+19
-52.9631  2.06267e+19
-52.8458  1.97697e+19
-52.7285  1.82856e+19
-52.6112  1.62781e+19
-52.4939  1.39382e+19
-52.3766  1.15161e+19
-52.2593  9.26032e+18
-52.142  7.39685e+18
-52.0247  6.09112e+18
-51.9074  5.45214e+18
-51.7901  5.52125e+18
-51.6728  6.27184e+18
-51.5555  7.63016e+18
-51.4381  9.49192e+18
-51.3208  1.17026e+19
-51.2035  1.41256e+19
-51.0862  1.66192e+19
-50.9689  1.90884e+19
-50.8516  2.14767e+19
-50.7343  2.37589e+19
-50.617  2.59753e+19
-50.4997  2.82047e+19
-50.3824  3.04666e+19
-50.2651  3.28041e+19
-50.1478  3.51003e+19
-50.0305  3.72581e+19
-49.9132  3.8957e+19
-49.7959  3.99434e+19
-49.6786  3.99389e+19
-49.5613  3.87264e+19
-49.444  3.61918e+19
-49.3267  3.24128e+19
-49.2094  2.75983e+19
-49.092  2.21144e+19
-48.9747  1.64388e+19
-48.8574  1.11103e+19
-48.7401  6.64549e+18
-48.6228  3.4842e+18
-48.5055  1.95587e+18
-48.3882  2.20647e+18
-48.2709  4.20816e+18
-48.1536  7.7371e+18
-48.0363  1.24155e+19
-47.919  1.77305e+19
-47.8017  2.30982e+19
-47.6844  2.79661e+19
-47.5671  3.18691e+19
-47.4498  3.45182e+19
-47.3325  3.57421e+19
-47.2152  3.56599e+19
-47.0979  3.4447e+19
-46.9806  3.24514e+19
-46.8633  2.99716e+19
-46.7459  2.72553e+19
-46.6286  2.44744e+19
-46.5113  2.16497e+19
-46.394  1.87908e+19
-46.2767  1.58223e+19
-46.1594  1.27548e+19
-46.0421  9.69648e+18
-45.9248  6.80911e+18
-45.8075  4.32992e+18
-45.6902  2.48843e+18
-45.5729  1.42513e+18
-45.4556  1.156e+18
-45.3383  1.54511e+18
-45.221  2.32076e+18
-45.1037  3.1794e+18
-44.9864  3.85238e+18
-44.8691  4.18009e+18
-44.7518  4.16397e+18
-44.6345  3.97644e+18
-44.5172  3.87069e+18
-44.3998  4.10658e+18
-44.2825  4.85553e+18
-44.1652  6.13649e+18
-44.0479  7.78835e+18
-43.9306  9.53307e+18
-43.8133  1.104e+19
-43.696  1.20558e+19
-43.5787  1.25113e+19
-43.4614  1.25514e+19
-43.3441  1.25067e+19
-43.2268  1.28557e+19
-43.1095  1.4066e+19
-42.9922  1.64861e+19
-42.8749  2.02273e+19
-42.7576  2.51274e+19
-42.6403  3.07039e+19
-42.523  3.63681e+19
-42.4057  4.13819e+19
-42.2884  4.51309e+19
-42.171  4.71501e+19
-42.0537  4.72859e+19
-41.9364  4.56166e+19
-41.8191  4.24601e+19
-41.7018  3.83691e+19
-41.5845  3.38882e+19
-41.4672  2.96015e+19
-41.3499  2.59426e+19
-41.2326  2.32039e+19
-41.1153  2.1474e+19
-40.998  2.06565e+19
-40.8807  2.05287e+19
-40.7634  2.07423e+19
-40.6461  2.10057e+19
-40.5288  2.10355e+19
-40.4115  2.07608e+19
-40.2942  2.03147e+19
-40.1769  2.0003e+19
-40.0596  2.03269e+19
-39.9423  2.18737e+19
-39.825  2.51497e+19
-39.7076  3.04513e+19
-39.5903  3.77903e+19
-39.473  4.67531e+19
-39.3557  5.65254e+19
-39.2384  6.6055e+19
-39.1211  7.41204e+19
-39.0038  7.96001e+19
-38.8865  8.16842e+19
-38.7692  8.00614e+19
-38.6519  7.48696e+19
-38.5346  6.67864e+19
-38.4173  5.68278e+19
-38.3  4.6215e+19
-38.1827  3.60869e+19
-38.0654  2.73343e+19
-37.9481  2.05304e+19
-37.8308  1.57998e+19
-37.7135  1.29588e+19
-37.5962  1.15634e+19
-37.4789  1.11083e+19
-37.3615  1.11509e+19
-37.2442  1.14103e+19
-37.1269  1.17532e+19
-37.0096  1.2263e+19
-36.8923  1.3083e+19
-36.775  1.43854e+19
-36.6577  1.62657e+19
-36.5404  1.87437e+19
-36.4231  2.16843e+19
-36.3058  2.48802e+19
-36.1885  2.80743e+19
-36.0712  3.10271e+19
-35.9539  3.35061e+19
-35.8366  3.53816e+19
-35.7193  3.6543e+19
-35.602  3.69317e+19
-35.4847  3.65842e+19
-35.3674  3.55169e+19
-35.2501  3.38175e+19
-35.1328  3.16123e+19
-35.0154  2.91074e+19
-34.8981  2.65434e+19
-34.7808  2.42216e+19
-34.6635  2.23989e+19
-34.5462  2.12962e+19
-34.4289  2.10531e+19
-34.3116  2.16068e+19
-34.1943  2.27662e+19
-34.077  2.42372e+19
-33.9597  2.56197e+19
-33.8424  2.6543e+19
-33.7251  2.66764e+19
-33.6078  2.58832e+19
-33.4905  2.41606e+19
-33.3732  2.16882e+19
-33.2559  1.8787e+19
-33.1386  1.58445e+19
-33.0213  1.32799e+19
-32.904  1.14613e+19
-32.7867  1.0651e+19
-32.6693  1.09987e+19
-32.552  1.25338e+19
-32.4347  1.51598e+19
-32.3174  1.87302e+19
-32.2001  2.30099e+19
-32.0828  2.77681e+19
-31.9655  3.27589e+19
-31.8482  3.78104e+19
-31.7309  4.27748e+19
-31.6136  4.75586e+19
-31.4963  5.21305e+19
-31.379  5.64821e+19
-31.2617  6.06578e+19
-31.1444  6.46497e+19
-31.0271  6.83898e+19
-30.9098  7.1877e+19
-30.7925  7.48721e+19
-30.6752  7.72618e+19
-30.5579  7.88312e+19
-30.4406  7.94173e+19
-30.3232  7.89766e+19
-30.2059  7.7434e+19
-30.0886  7.49102e+19
-29.9713  7.16336e+19
-29.854  6.78264e+19
-29.7367  6.37492e+19
-29.6194  5.97267e+19
-29.5021  5.60089e+19
-29.3848  5.2797e+19
-29.2675  5.0264e+19
-29.1502  4.85329e+19
-29.0329  4.77106e+19
-28.9156  4.7857e+19
-28.7983  4.89788e+19
-28.681  5.11137e+19
-28.5637  5.41705e+19
-28.4464  5.81001e+19
-28.3291  6.27412e+19
-28.2118  6.78959e+19
-28.0944  7.33621e+19
-27.9771  7.89069e+19
-27.8598  8.42591e+19
-27.7425  8.924e+19
-27.6252  9.35142e+19
-27.5079  9.69196e+19
-27.3906  9.91884e+19
-27.2733  1.00152e+20
-27.156  9.96968e+19
-27.0387  9.77177e+19
-26.9214  9.43153e+19
-26.8041  8.9647e+19
-26.6868  8.39951e+19
-26.5695  7.76525e+19
-26.4522  7.09992e+19
-26.3349  6.44375e+19
-26.2176  5.82081e+19
-26.1003  5.25515e+19
-25.983  4.75327e+19
-25.8657  4.31449e+19
-25.7483  3.93651e+19
-25.631  3.61148e+19
-25.5137  3.33961e+19
-25.3964  3.12075e+19
-25.2791  2.96465e+19
-25.1618  2.88574e+19
-25.0445  2.90381e+19
-24.9272  3.03688e+19
-24.8099  3.3068e+19
-24.6926  3.7296e+19
-24.5753  4.31911e+19
-24.458  5.08196e+19
-24.3407  6.02026e+19
-24.2234  7.12452e+19
-24.1061  8.38058e+19
-23.9888  9.75815e+19
-23.8715  1.12184e+20
-23.7542  1.27114e+20
-23.6369  1.41877e+20
-23.5196  1.5596e+20
-23.4023  1.68832e+20
-23.2849  1.80128e+20
-23.1676  1.89642e+20
-23.0503  1.97227e+20
-22.933  2.03011e+20
-22.8157  2.07119e+20
-22.6984  2.09807e+20
-22.5811  2.11401e+20
-22.4638  2.12287e+20
-22.3465  2.12805e+20
-22.2292  2.13395e+20
-22.1119  2.14403e+20
-21.9946  2.16129e+20
-21.8773  2.18816e+20
-21.76  2.22626e+20
-21.6427  2.27529e+20
-21.5254  2.33388e+20
-21.4081  2.40008e+20
-21.2908  2.4713e+20
-21.1735  2.54507e+20
-21.0561  2.62004e+20
-20.9388  2.69503e+20
-20.8215  2.77071e+20
-20.7042  2.84875e+20
-20.5869  2.93068e+20
-20.4696  3.01705e+20
-20.3523  3.10702e+20
-20.235  3.19781e+20
-20.1177  3.28547e+20
-20.0004  3.36416e+20
-19.8831  3.42544e+20
-19.7658  3.46586e+20
-19.6485  3.48022e+20
-19.5312  3.46761e+20
-19.4139  3.42916e+20
-19.2966  3.37026e+20
-19.1793  3.29777e+20
-19.062  3.22074e+20
-18.9447  3.14873e+20
-18.8274  3.09172e+20
-18.71  3.05716e+20
-18.5927  3.0523e+20
-18.4754  3.08153e+20
-18.3581  3.14566e+20
-18.2408  3.24512e+20
-18.1235  3.37556e+20
-18.0062  3.53143e+20
-17.8889  3.70511e+20
-17.7716  3.8861e+20
-17.6543  4.06709e+20
-17.537  4.23733e+20
-17.4197  4.39054e+20
-17.3024  4.52087e+20
-17.1851  4.62654e+20
-17.0678  4.70822e+20
-16.9505  4.76905e+20
-16.8332  4.81536e+20
-16.7159  4.85552e+20
-16.5986  4.89976e+20
-16.4813  4.9597e+20
-16.364  5.04767e+20
-16.2466  5.1767e+20
-16.1293  5.35681e+20
-16.012  5.6024e+20
-15.8947  5.92097e+20
-15.7774  6.32007e+20
-15.6601  6.80195e+20
-15.5428  7.36502e+20
-15.4255  8.00051e+20
-15.3082  8.69703e+20
-15.1909  9.435e+20
-15.0736  1.01935e+21
-14.9563  1.09472e+21
-14.839  1.16732e+21
-14.7217  1.23453e+21
-14.6044  1.29465e+21
-14.4871  1.34607e+21
-14.3698  1.38802e+21
-14.2525  1.42012e+21
-14.1352  1.44274e+21
-14.0178  1.45674e+21
-13.9005  1.46341e+21
-13.7832  1.46426e+21
-13.6659  1.46089e+21
-13.5486  1.45512e+21
-13.4313  1.44855e+21
-13.314  1.44253e+21
-13.1967  1.43823e+21
-13.0794  1.43682e+21
-12.9621  1.43892e+21
-12.8448  1.44518e+21
-12.7275  1.45599e+21
-12.6102  1.47184e+21
-12.4929  1.49297e+21
-12.3756  1.51968e+21
-12.2583  1.55234e+21
-12.141  1.59138e+21
-12.0237  1.63715e+21
-11.9064  1.68996e+21
-11.7891  1.75026e+21
-11.6718  1.8184e+21
-11.5544  1.89452e+21
-11.4371  1.97857e+21
-11.3198  2.07041e+21
-11.2025  2.16947e+21
-11.0852  2.27515e+21
-10.9679  2.38647e+21
-10.8506  2.50215e+21
-10.7333  2.62065e+21
-10.616  2.74051e+21
-10.4987  2.8604e+21
-10.3814  2.97855e+21
-10.2641  3.09381e+21
-10.1468  3.20574e+21
-10.0295  3.31393e+21
-9.91217  3.41861e+21
-9.79487  3.52114e+21
-9.67756  3.62295e+21
-9.56026  3.72606e+21
-9.44295  3.83276e+21
-9.32565  3.94586e+21
-9.20834  4.06738e+21
-9.09104  4.19951e+21
-8.97373  4.34351e+21
-8.85643  4.50051e+21
-8.73913  4.67012e+21
-8.62182  4.85168e+21
-8.50452  5.0435e+21
-8.38721  5.24379e+21
-8.26991  5.4493e+21
-8.1526  5.65761e+21
-8.03529  5.86534e+21
-7.91799  6.07e+21
-7.80069  6.26917e+21
-7.68338  6.46086e+21
-7.56608  6.64413e+21
-7.44877  6.81868e+21
-7.33146  6.98464e+21
-7.21416  7.14283e+21
-7.09685  7.29475e+21
-6.97955  7.44208e+21
-6.86224  7.58666e+21
-6.74494  7.73075e+21
-6.62763  7.8755e+21
-6.51033  8.02309e+21
-6.39302  8.17502e+21
-6.27572  8.33244e+21
-6.15842  8.49646e+21
-6.04111  8.66788e+21
-5.92381  8.8471e+21
-5.8065  9.03459e+21
-5.68919  9.22997e+21
-5.57189  9.43281e+21
-5.45458  9.64226e+21
-5.33728  9.85719e+21
-5.21997  1.00757e+22
-5.10267  1.02962e+22
-4.98536  1.0516e+22
-4.86806  1.07325e+22
-4.75075  1.09433e+22
-4.63345  1.11455e+22
-4.51614  1.13365e+22
-4.39884  1.15136e+22
-4.28154  1.16755e+22
-4.16423  1.18208e+22
-4.04692  1.19484e+22
-3.92962  1.2059e+22
-3.81231  1.2154e+22
-3.69501  1.22349e+22
-3.5777  1.2305e+22
-3.4604  1.23677e+22
-3.34309  1.24266e+22
-3.22579  1.24859e+22
-3.10849  1.25502e+22
-2.99118  1.2623e+22
-2.87387  1.27084e+22
-2.75657  1.28096e+22
-2.63926  1.29289e+22
-2.52196  1.30679e+22
-2.40465  1.32278e+22
-2.28735  1.34082e+22
-2.17005  1.36085e+22
-2.05274  1.38276e+22
-1.93544  1.40626e+22
-1.81813  1.43116e+22
-1.70083  1.45717e+22
-1.58352  1.48392e+22
-1.46622  1.51113e+22
-1.34891  1.53841e+22
-1.2316  1.56539e+22
-1.1143  1.59169e+22
-0.996995  1.61691e+22
-0.87969  1.64068e+22
-0.762385  1.6625e+22
-0.64508  1.68208e+22
-0.527775  1.69902e+22
-0.41047  1.71297e+22
-0.293165  1.72365e+22
-0.17586  1.73086e+22
-0.058555  1.73445e+22
0.05875  1.73433e+22
0.176055  1.7305e+22
0.29336  1.72305e+22
0.410665  1.71215e+22
0.52797  1.69798e+22
0.645275  1.68085e+22
0.76258  1.6611e+22
0.879885  1.63912e+22
0.99719  1.61525e+22
1.1145  1.58993e+22
1.2318  1.56354e+22
1.3491  1.5365e+22
1.46641  1.50917e+22
1.58371  1.48192e+22
1.70102  1.45513e+22
1.81832  1.4291e+22
1.93563  1.40418e+22
2.05294  1.38063e+22
2.17024  1.35875e+22
2.28754  1.33871e+22
2.40485  1.32064e+22
2.52216  1.30465e+22
2.63946  1.29073e+22
2.75677  1.27877e+22
2.87407  1.26864e+22
2.99137  1.26006e+22
3.10868  1.25273e+22
3.22599  1.24627e+22
3.34329  1.24028e+22
3.4606  1.23435e+22
3.5779  1.22804e+22
3.69521  1.22097e+22
3.81251  1.2128e+22
3.92982  1.20322e+22
4.04712  1.19207e+22
4.16443  1.17923e+22
4.28173  1.16462e+22
4.39903  1.14833e+22
4.51634  1.13052e+22
4.63364  1.11134e+22
4.75095  1.09103e+22
4.86825  1.06988e+22
4.98556  1.04814e+22
5.10286  1.02612e+22
5.22017  1.00401e+22
5.33748  9.82137e+21
5.45478  9.60632e+21
5.57209  9.39697e+21
5.68939  9.19426e+21
5.8067  8.99914e+21
5.924  8.812e+21
6.0413  8.63328e+21
6.15861  8.46234e+21
6.27591  8.29863e+21
6.39322  8.1417e+21
6.51052  7.99009e+21
6.62783  7.84252e+21
6.74514  7.69767e+21
6.86244  7.5539e+21
6.97975  7.40901e+21
7.09705  7.26149e+21
7.21436  7.10932e+21
7.33166  6.95062e+21
7.44897  6.78457e+21
7.56627  6.60999e+21
7.68358  6.42652e+21
7.80088  6.23483e+21
7.91819  6.03581e+21
8.03549  5.83151e+21
8.1528  5.62437e+21
8.2701  5.41672e+21
8.38741  5.21183e+21
8.50471  5.01245e+21
8.62202  4.82159e+21
8.73932  4.64086e+21
8.85662  4.47219e+21
8.97393  4.31614e+21
9.09123  4.17288e+21
9.20854  4.04152e+21
9.32584  3.92064e+21
9.44315  3.80815e+21
9.56045  3.70174e+21
9.67776  3.59917e+21
9.79506  3.4977e+21
9.91237  3.39561e+21
10.0297  3.29129e+21
10.147  3.18372e+21
10.2643  3.07243e+21
10.3816  2.95768e+21
10.4989  2.84022e+21
10.6162  2.72121e+21
10.7335  2.60205e+21
10.8508  2.48434e+21
10.9681  2.36947e+21
11.0854  2.2591e+21
11.2027  2.15423e+21
11.32  2.05585e+21
11.4373  1.96472e+21
11.5546  1.88125e+21
11.6719  1.80564e+21
11.7893  1.73804e+21
11.9066  1.67816e+21
12.0239  1.62554e+21
12.1412  1.58026e+21
12.2585  1.54152e+21
12.3758  1.50914e+21
12.4931  1.48271e+21
12.6104  1.46185e+21
12.7277  1.44626e+21
12.845  1.43563e+21
12.9623  1.42952e+21
13.0796  1.42767e+21
13.1969  1.42916e+21
13.3142  1.4336e+21
13.4315  1.4397e+21
13.5488  1.4463e+21
13.6661  1.45209e+21
13.7834  1.4554e+21
13.9007  1.45455e+21
14.018  1.44787e+21
14.1354  1.43388e+21
14.2527  1.41133e+21
14.37  1.37936e+21
14.4873  1.33759e+21
14.6046  1.28635e+21
14.7219  1.22651e+21
14.8392  1.15962e+21
14.9565  1.08746e+21
15.0738  1.01252e+21
15.1911  9.37162e+20
15.3084  8.63813e+20
15.4257  7.946e+20
15.543  7.31456e+20
15.6603  6.75593e+20
15.7776  6.27809e+20
15.8949  5.88236e+20
16.0122  5.56724e+20
16.1295  5.32471e+20
16.2468  5.14587e+20
16.3641  5.01959e+20
16.4815  4.9333e+20
16.5988  4.87481e+20
16.7161  4.83149e+20
16.8334  4.79255e+20
16.9507  4.74689e+20
17.068  4.68705e+20
17.1853  4.60638e+20
17.3026  4.50174e+20
17.4199  4.37172e+20
17.5372  4.21908e+20
17.6545  4.04981e+20
17.7718  3.8709e+20
17.8891  3.69043e+20
18.0064  3.51925e+20
18.1237  3.36577e+20
18.241  3.23731e+20
18.3583  3.14033e+20
18.4756  3.0786e+20
18.5929  3.05234e+20
18.7102  3.05893e+20
18.8275  3.09562e+20
18.9449  3.15471e+20
19.0622  3.22768e+20
19.1795  3.30578e+20
19.2968  3.37809e+20
19.4141  3.43696e+20
19.5314  3.47443e+20
19.6487  3.48557e+20
19.766  3.47029e+20
19.8833  3.42797e+20
20.0006  3.36464e+20
20.1179  3.28503e+20
20.2352  3.19656e+20
20.3525  3.10448e+20
20.4698  3.01332e+20
20.5871  2.926e+20
20.7044  2.84363e+20
20.8217  2.76519e+20
20.939  2.68899e+20
21.0563  2.61324e+20
21.1736  2.53771e+20
21.291  2.4633e+20
21.4083  2.39178e+20
21.5256  2.32475e+20
21.6429  2.26599e+20
21.7602  2.21701e+20
21.8775  2.17908e+20
21.9948  2.15225e+20
22.1121  2.13541e+20
22.2294  2.12557e+20
22.3467  2.12068e+20
22.464  2.11555e+20
22.5813  2.10727e+20
22.6986  2.09172e+20
22.8159  2.06556e+20
22.9332  2.02516e+20
23.0505  1.96797e+20
23.1678  1.89227e+20
23.2851  1.79772e+20
23.4024  1.68494e+20
23.5198  1.55691e+20
23.6371  1.41652e+20
23.7544  1.26933e+20
23.8717  1.12049e+20
23.989  9.75063e+19
24.1063  8.37952e+19
24.2236  7.12829e+19
24.3409  6.02724e+19
24.4582  5.09557e+19
24.5755  4.33432e+19
24.6928  3.74875e+19
24.8101  3.32844e+19
24.9274  3.06086e+19
25.0447  2.92797e+19
25.162  2.90989e+19
25.2793  2.98781e+19
25.3966  3.14253e+19
25.5139  3.36e+19
25.6312  3.63066e+19
25.7485  3.95332e+19
25.8658  4.33236e+19
25.9832  4.7687e+19
26.1005  5.27445e+19
26.2178  5.84508e+19
26.3351  6.46892e+19
26.4524  7.12949e+19
26.5697  7.79716e+19
26.687  8.43407e+19
26.8043  9.00489e+19
26.9216  9.47321e+19
27.0389  9.81284e+19
27.1562  1.00092e+20
27.2735  1.0054e+20
27.3908  9.95315e+19
27.5081  9.72355e+19
27.6254  9.37933e+19
27.7427  8.94702e+19
27.86  8.44729e+19
27.9773  7.90712e+19
28.0946  7.35181e+19
28.212  6.80208e+19
28.3293  6.28682e+19
28.4466  5.82208e+19
28.5639  5.4315e+19
28.6812  5.12825e+19
28.7985  4.91922e+19
28.9158  4.81031e+19
29.0331  4.80013e+19
29.1504  4.88693e+19
29.2677  5.06256e+19
29.385  5.31797e+19
29.5023  5.63996e+19
29.6196  6.00993e+19
29.7369  6.40851e+19
29.8542  6.8115e+19
29.9715  7.18852e+19
30.0888  7.51316e+19
30.2061  7.75648e+19
30.3234  7.90546e+19
30.4407  7.95017e+19
30.558  7.8874e+19
30.6754  7.73145e+19
30.7927  7.49013e+19
30.91  7.18786e+19
31.0273  6.84306e+19
31.1446  6.46403e+19
31.2619  6.06329e+19
31.3792  5.64259e+19
31.4965  5.20355e+19
31.6138  4.74385e+19
31.7311  4.26146e+19
31.8484  3.76234e+19
31.9657  3.25712e+19
32.083  2.75739e+19
32.2003  2.28366e+19
32.3176  1.85891e+19
32.4349  1.50578e+19
32.5522  1.24661e+19
32.6695  1.09681e+19
32.7868  1.06538e+19
32.9042  1.1485e+19
33.0215  1.33107e+19
33.1388  1.58627e+19
33.2561  1.87767e+19
33.3734  2.16363e+19
33.4907  2.40626e+19
33.608  2.57437e+19
33.7253  2.65059e+19
33.8426  2.63499e+19
33.9599  2.54377e+19
34.0772  2.40786e+19
34.1945  2.26514e+19
34.3118  2.15462e+19
34.4291  2.10611e+19
34.5464  2.13743e+19
34.6637  2.25177e+19
34.781  2.43856e+19
34.8983  2.67427e+19
35.0156  2.93184e+19
35.1329  3.18303e+19
35.2503  3.40178e+19
35.3676  3.57208e+19
35.4849  3.67605e+19
35.6022  3.70848e+19
35.7195  3.66548e+19
35.8368  3.5484e+19
35.9541  3.35783e+19
36.0714  3.10593e+19
36.1887  2.80984e+19
36.306  2.48726e+19
36.4233  2.16454e+19
36.5406  1.86795e+19
36.6579  1.61929e+19
36.7752  1.42824e+19
36.8925  1.29614e+19
37.0098  1.21248e+19
37.1271  1.16057e+19
37.2444  1.1246e+19
37.3617  1.09995e+19
37.479  1.09841e+19
37.5964  1.14907e+19
37.7137  1.29618e+19
37.831  1.58869e+19
37.9483  2.07257e+19
38.0656  2.76109e+19
38.1829  3.64398e+19
38.3002  4.66152e+19
38.4175  5.72411e+19
38.5348  6.71586e+19
38.6521  7.51703e+19
38.7694  8.02755e+19
38.8867  8.17966e+19
39.004  7.95865e+19
39.1213  7.39882e+19
39.2386  6.58471e+19
39.3559  5.62958e+19
39.4732  4.65241e+19
39.5905  3.76148e+19
39.7078  3.03334e+19
39.8251  2.50879e+19
39.9425  2.18872e+19
40.0598  2.03984e+19
40.1771  2.01157e+19
40.2944  2.04524e+19
40.4117  2.09123e+19
40.529  2.11653e+19
40.6463  2.11227e+19
40.7636  2.08553e+19
40.8809  2.06106e+19
40.9982  2.07527e+19
41.1155  2.15721e+19
41.2328  2.33213e+19
41.3501  2.60746e+19
41.4674  2.97558e+19
41.5847  3.40492e+19
41.702  3.85216e+19
41.8193  4.25976e+19
41.9366  4.56947e+19
42.0539  4.7304e+19
42.1712  4.71099e+19
42.2885  4.50299e+19
42.4059  4.12208e+19
42.5232  3.61596e+19
42.6405  3.04667e+19
42.7578  2.48856e+19
42.8751  2.0013e+19
42.9924  1.63044e+19
43.1097  1.3917e+19
43.227  1.27527e+19
43.3443  1.24367e+19
43.4616  1.25006e+19
43.5789  1.24652e+19
43.6962  1.20057e+19
43.8135  1.09674e+19
43.9308  9.45798e+18
44.0481  7.71142e+18
44.1654  6.06845e+18
44.2827  4.79751e+18
44.4  4.05932e+18
44.5173  3.83569e+18
44.6347  3.95384e+18
44.752  4.14318e+18
44.8693  4.15279e+18
44.9866  3.8185e+18
45.1039  3.14353e+18
45.2212  2.27988e+18
45.3385  1.50632e+18
45.4558  1.14079e+18
45.5731  1.43818e+18
45.6904  2.53196e+18
45.8077  4.41728e+18
45.925  6.92927e+18
46.0423  9.85032e+18
46.1596  1.29349e+19
46.2769  1.60129e+19
46.3942  1.90088e+19
46.5115  2.18837e+19
46.6288  2.47135e+19
46.7461  2.7489e+19
46.8634  3.01793e+19
46.9808  3.26476e+19
47.0981  3.45951e+19
47.2154  3.57278e+19
47.3327  3.57266e+19
47.45  3.4416e+19
47.5673  3.17123e+19
47.6846  2.77513e+19
47.8019  2.28365e+19
47.9192  1.74744e+19
48.0365  1.21883e+19
48.1538  7.55951e+18
48.2711  4.09103e+18
48.3884  2.16367e+18
48.5057  1.9839e+18
48.623  3.57515e+18
48.7403  6.77201e+18
48.8576  1.12728e+19
48.9749  1.66152e+19
49.0922  2.22866e+19
49.2095  2.77428e+19
49.3269  3.25474e+19
49.4442  3.62947e+19
49.5615  3.8802e+19
49.6788  3.99793e+19
49.7961  3.99724e+19
49.9134  3.89376e+19
50.0307  3.72102e+19
50.148  3.50807e+19
50.2653  3.27651e+19
50.3826  3.04338e+19
50.4999  2.8154e+19
50.6172  2.59197e+19
50.7345  2.36896e+19
50.8518  2.13834e+19
