#S 1 spectral density
#N 2
#UFWHM 23.8129
#L  abscissas [um]  spectral density
-58.5938  5.29918e+19
-58.4764  5.11682e+19
-58.3591  4.99268e+19
-58.2418  4.91449e+19
-58.1245  4.85902e+19
-58.0072  4.80508e+19
-57.8899  4.73154e+19
-57.7726  4.62747e+19
-57.6553  4.50043e+19
-57.538  4.37024e+19
-57.4207  4.26927e+19
-57.3034  4.23605e+19
-57.1861  4.30454e+19
-57.0688  4.49003e+19
-56.9515  4.79429e+19
-56.8342  5.19442e+19
-56.7169  5.65146e+19
-56.5996  6.1213e+19
-56.4823  6.554e+19
-56.365  6.91054e+19
-56.2477  7.16637e+19
-56.1303  7.3084e+19
-56.013  7.33294e+19
-55.8957  7.2499e+19
-55.7784  7.06805e+19
-55.6611  6.80086e+19
-55.5438  6.45848e+19
-55.4265  6.05442e+19
-55.3092  5.60855e+19
-55.1919  5.14309e+19
-55.0746  4.68781e+19
-54.9573  4.27669e+19
-54.84  3.94026e+19
-54.7227  3.70464e+19
-54.6054  3.58147e+19
-54.4881  3.57084e+19
-54.3708  3.65614e+19
-54.2535  3.8099e+19
-54.1362  3.99753e+19
-54.0189  4.18499e+19
-53.9016  4.3417e+19
-53.7842  4.45058e+19
-53.6669  4.49811e+19
-53.5496  4.48788e+19
-53.4323  4.42972e+19
-53.315  4.33737e+19
-53.1977  4.22973e+19
-53.0804  4.12524e+19
-52.9631  4.0414e+19
-52.8458  3.99144e+19
-52.7285  3.98788e+19
-52.6112  4.03706e+19
-52.4939  4.1423e+19
-52.3766  4.29986e+19
-52.2593  4.50301e+19
-52.142  4.74108e+19
-52.0247  5.00001e+19
-51.9074  5.2676e+19
-51.7901  5.53092e+19
-51.6728  5.78052e+19
-51.5555  6.00897e+19
-51.4381  6.21292e+19
-51.3208  6.39096e+19
-51.2035  6.54108e+19
-51.0862  6.66582e+19
-50.9689  6.76568e+19
-50.8516  6.84638e+19
-50.7343  6.91558e+19
-50.617  6.98229e+19
-50.4997  7.05756e+19
-50.3824  7.15253e+19
-50.2651  7.27597e+19
-50.1478  7.43093e+19
-50.0305  7.61233e+19
-49.9132  7.81111e+19
-49.7959  8.01038e+19
-49.6786  8.19439e+19
-49.5613  8.34164e+19
-49.444  8.43678e+19
-49.3267  8.4758e+19
-49.2094  8.46491e+19
-49.092  8.41521e+19
-48.9747  8.35521e+19
-48.8574  8.31289e+19
-48.7401  8.32698e+19
-48.6228  8.43076e+19
-48.5055  8.65485e+19
-48.3882  9.0236e+19
-48.2709  9.54264e+19
-48.1536  1.02032e+20
-48.0363  1.09784e+20
-47.919  1.18244e+20
-47.8017  1.26833e+20
-47.6844  1.34889e+20
-47.5671  1.41762e+20
-47.4498  1.46923e+20
-47.3325  1.49996e+20
-47.2152  1.50832e+20
-47.0979  1.49538e+20
-46.9806  1.46441e+20
-46.8633  1.42023e+20
-46.7459  1.37035e+20
-46.6286  1.32187e+20
-46.5113  1.2826e+20
-46.394  1.25975e+20
-46.2767  1.26047e+20
-46.1594  1.29108e+20
-46.0421  1.3554e+20
-45.9248  1.45596e+20
-45.8075  1.59195e+20
-45.6902  1.75927e+20
-45.5729  1.95007e+20
-45.4556  2.15191e+20
-45.3383  2.35085e+20
-45.221  2.53003e+20
-45.1037  2.67441e+20
-44.9864  2.77184e+20
-44.8691  2.81343e+20
-44.7518  2.7961e+20
-44.6345  2.72375e+20
-44.5172  2.60623e+20
-44.3998  2.45545e+20
-44.2825  2.28842e+20
-44.1652  2.11989e+20
-44.0479  1.96485e+20
-43.9306  1.83518e+20
-43.8133  1.73914e+20
-43.696  1.68239e+20
-43.5787  1.66719e+20
-43.4614  1.69361e+20
-43.3441  1.75963e+20
-43.2268  1.86163e+20
-43.1095  1.9943e+20
-42.9922  2.15117e+20
-42.8749  2.3238e+20
-42.7576  2.50394e+20
-42.6403  2.68288e+20
-42.523  2.85254e+20
-42.4057  3.0069e+20
-42.2884  3.14117e+20
-42.171  3.25351e+20
-42.0537  3.34667e+20
-41.9364  3.42233e+20
-41.8191  3.48633e+20
-41.7018  3.54205e+20
-41.5845  3.59528e+20
-41.4672  3.64904e+20
-41.3499  3.70391e+20
-41.2326  3.75922e+20
-41.1153  3.81224e+20
-40.998  3.85874e+20
-40.8807  3.8936e+20
-40.7634  3.90975e+20
-40.6461  3.90295e+20
-40.5288  3.86734e+20
-40.4115  3.80219e+20
-40.2942  3.70798e+20
-40.1769  3.58837e+20
-40.0596  3.44972e+20
-39.9423  3.30166e+20
-39.825  3.15592e+20
-39.7076  3.02271e+20
-39.5903  2.91388e+20
-39.473  2.83689e+20
-39.3557  2.79699e+20
-39.2384  2.79673e+20
-39.1211  2.83406e+20
-39.0038  2.90506e+20
-38.8865  3.00397e+20
-38.7692  3.12488e+20
-38.6519  3.26068e+20
-38.5346  3.40484e+20
-38.4173  3.55107e+20
-38.3  3.69341e+20
-38.1827  3.82503e+20
-38.0654  3.93921e+20
-37.9481  4.03024e+20
-37.8308  4.09224e+20
-37.7135  4.12223e+20
-37.5962  4.11814e+20
-37.4789  4.08187e+20
-37.3615  4.019e+20
-37.2442  3.93581e+20
-37.1269  3.84252e+20
-37.0096  3.74619e+20
-36.8923  3.65602e+20
-36.775  3.5764e+20
-36.6577  3.5095e+20
-36.5404  3.45413e+20
-36.4231  3.40707e+20
-36.3058  3.36411e+20
-36.1885  3.32064e+20
-36.0712  3.27255e+20
-35.9539  3.21853e+20
-35.8366  3.15759e+20
-35.7193  3.09326e+20
-35.602  3.02772e+20
-35.4847  2.96582e+20
-35.3674  2.9115e+20
-35.2501  2.86845e+20
-35.1328  2.8397e+20
-35.0154  2.82643e+20
-34.8981  2.83088e+20
-34.7808  2.85216e+20
-34.6635  2.88895e+20
-34.5462  2.9393e+20
-34.4289  2.99946e+20
-34.3116  3.06387e+20
-34.1943  3.12721e+20
-34.077  3.18332e+20
-33.9597  3.22565e+20
-33.8424  3.24839e+20
-33.7251  3.24717e+20
-33.6078  3.21956e+20
-33.4905  3.1657e+20
-33.3732  3.08684e+20
-33.2559  2.98759e+20
-33.1386  2.87287e+20
-33.0213  2.7499e+20
-32.904  2.62503e+20
-32.7867  2.5049e+20
-32.6693  2.3952e+20
-32.552  2.30026e+20
-32.4347  2.22408e+20
-32.3174  2.16725e+20
-32.2001  2.12989e+20
-32.0828  2.1099e+20
-31.9655  2.104e+20
-31.8482  2.10764e+20
-31.7309  2.11563e+20
-31.6136  2.12354e+20
-31.4963  2.12649e+20
-31.379  2.12153e+20
-31.2617  2.10662e+20
-31.1444  2.0813e+20
-31.0271  2.04728e+20
-30.9098  2.00587e+20
-30.7925  1.96108e+20
-30.6752  1.9161e+20
-30.5579  1.87472e+20
-30.4406  1.83955e+20
-30.3232  1.81299e+20
-30.2059  1.79746e+20
-30.0886  1.7932e+20
-29.9713  1.79958e+20
-29.854  1.81553e+20
-29.7367  1.83867e+20
-29.6194  1.86513e+20
-29.5021  1.89138e+20
-29.3848  1.91336e+20
-29.2675  1.92722e+20
-29.1502  1.92949e+20
-29.0329  1.91764e+20
-28.9156  1.89069e+20
-28.7983  1.84897e+20
-28.681  1.7939e+20
-28.5637  1.72837e+20
-28.4464  1.65618e+20
-28.3291  1.58206e+20
-28.2118  1.51123e+20
-28.0944  1.44877e+20
-27.9771  1.39938e+20
-27.8598  1.36722e+20
-27.7425  1.35521e+20
-27.6252  1.36479e+20
-27.5079  1.39535e+20
-27.3906  1.44473e+20
-27.2733  1.50905e+20
-27.156  1.58339e+20
-27.0387  1.66177e+20
-26.9214  1.73897e+20
-26.8041  1.80981e+20
-26.6868  1.87107e+20
-26.5695  1.92069e+20
-26.4522  1.95872e+20
-26.3349  1.98695e+20
-26.2176  2.00859e+20
-26.1003  2.02803e+20
-25.983  2.05038e+20
-25.8657  2.08118e+20
-25.7483  2.12561e+20
-25.631  2.1888e+20
-25.5137  2.27431e+20
-25.3964  2.38463e+20
-25.2791  2.52015e+20
-25.1618  2.67958e+20
-25.0445  2.85893e+20
-24.9272  3.05308e+20
-24.8099  3.25448e+20
-24.6926  3.45566e+20
-24.5753  3.64951e+20
-24.458  3.82935e+20
-24.3407  3.99055e+20
-24.2234  4.13159e+20
-24.1061  4.25254e+20
-23.9888  4.35688e+20
-23.8715  4.45049e+20
-23.7542  4.54076e+20
-23.6369  4.63574e+20
-23.5196  4.74348e+20
-23.4023  4.87269e+20
-23.2849  5.02859e+20
-23.1676  5.21509e+20
-23.0503  5.43238e+20
-22.933  5.67714e+20
-22.8157  5.94311e+20
-22.6984  6.2207e+20
-22.5811  6.49875e+20
-22.4638  6.76547e+20
-22.3465  7.00848e+20
-22.2292  7.22022e+20
-22.1119  7.39362e+20
-21.9946  7.52875e+20
-21.8773  7.628e+20
-21.76  7.69898e+20
-21.6427  7.75288e+20
-21.5254  7.80403e+20
-21.4081  7.86571e+20
-21.2908  7.95235e+20
-21.1735  8.07687e+20
-21.0561  8.25004e+20
-20.9388  8.48055e+20
-20.8215  8.7721e+20
-20.7042  9.12548e+20
-20.5869  9.53694e+20
-20.4696  9.99989e+20
-20.3523  1.05017e+21
-20.235  1.10303e+21
-20.1177  1.15674e+21
-20.0004  1.20977e+21
-19.8831  1.26075e+21
-19.7658  1.3083e+21
-19.6485  1.35157e+21
-19.5312  1.39031e+21
-19.4139  1.4246e+21
-19.2966  1.45508e+21
-19.1793  1.48282e+21
-19.062  1.50917e+21
-18.9447  1.53541e+21
-18.8274  1.56288e+21
-18.71  1.59302e+21
-18.5927  1.62661e+21
-18.4754  1.66419e+21
-18.3581  1.70605e+21
-18.2408  1.75165e+21
-18.1235  1.80041e+21
-18.0062  1.85112e+21
-17.8889  1.90241e+21
-17.7716  1.95284e+21
-17.6543  2.00068e+21
-17.537  2.04483e+21
-17.4197  2.08415e+21
-17.3024  2.11841e+21
-17.1851  2.14764e+21
-17.0678  2.17263e+21
-16.9505  2.19495e+21
-16.8332  2.2166e+21
-16.7159  2.23966e+21
-16.5986  2.26651e+21
-16.4813  2.29936e+21
-16.364  2.34017e+21
-16.2466  2.39046e+21
-16.1293  2.4512e+21
-16.012  2.52237e+21
-15.8947  2.60333e+21
-15.7774  2.69297e+21
-15.6601  2.78916e+21
-15.5428  2.88965e+21
-15.4255  2.99127e+21
-15.3082  3.09119e+21
-15.1909  3.18688e+21
-15.0736  3.27537e+21
-14.9563  3.35458e+21
-14.839  3.42331e+21
-14.7217  3.48081e+21
-14.6044  3.5272e+21
-14.4871  3.56347e+21
-14.3698  3.59138e+21
-14.2525  3.6129e+21
-14.1352  3.63031e+21
-14.0178  3.64662e+21
-13.9005  3.66404e+21
-13.7832  3.68462e+21
-13.6659  3.71059e+21
-13.5486  3.74284e+21
-13.4313  3.78235e+21
-13.314  3.82933e+21
-13.1967  3.88347e+21
-13.0794  3.9445e+21
-12.9621  4.01109e+21
-12.8448  4.08251e+21
-12.7275  4.15742e+21
-12.6102  4.23497e+21
-12.4929  4.31407e+21
-12.3756  4.39375e+21
-12.2583  4.47381e+21
-12.141  4.55391e+21
-12.0237  4.63383e+21
-11.9064  4.71339e+21
-11.7891  4.79265e+21
-11.6718  4.87157e+21
-11.5544  4.95004e+21
-11.4371  5.02829e+21
-11.3198  5.10538e+21
-11.2025  5.18094e+21
-11.0852  5.25444e+21
-10.9679  5.32512e+21
-10.8506  5.39225e+21
-10.7333  5.45471e+21
-10.616  5.51201e+21
-10.4987  5.56412e+21
-10.3814  5.61024e+21
-10.2641  5.65083e+21
-10.1468  5.68633e+21
-10.0295  5.71781e+21
-9.91217  5.74632e+21
-9.79487  5.77372e+21
-9.67756  5.8018e+21
-9.56026  5.83248e+21
-9.44295  5.86742e+21
-9.32565  5.90882e+21
-9.20834  5.95791e+21
-9.09104  6.01562e+21
-8.97373  6.08304e+21
-8.85643  6.15989e+21
-8.73913  6.24588e+21
-8.62182  6.34013e+21
-8.50452  6.44108e+21
-8.38721  6.54748e+21
-8.26991  6.65648e+21
-8.1526  6.76636e+21
-8.03529  6.87428e+21
-7.91799  6.97794e+21
-7.80069  7.07497e+21
-7.68338  7.16303e+21
-7.56608  7.24073e+21
-7.44877  7.30684e+21
-7.33146  7.36071e+21
-7.21416  7.40199e+21
-7.09685  7.43127e+21
-6.97955  7.44936e+21
-6.86224  7.45772e+21
-6.74494  7.45867e+21
-6.62763  7.45347e+21
-6.51033  7.44502e+21
-6.39302  7.43557e+21
-6.27572  7.42772e+21
-6.15842  7.42379e+21
-6.04111  7.42595e+21
-5.92381  7.43603e+21
-5.8065  7.45617e+21
-5.68919  7.48682e+21
-5.57189  7.52931e+21
-5.45458  7.58364e+21
-5.33728  7.64975e+21
-5.21997  7.72674e+21
-5.10267  7.81361e+21
-4.98536  7.90856e+21
-4.86806  8.00958e+21
-4.75075  8.11411e+21
-4.63345  8.21976e+21
-4.51614  8.32359e+21
-4.39884  8.42268e+21
-4.28154  8.51455e+21
-4.16423  8.59644e+21
-4.04692  8.66633e+21
-3.92962  8.72256e+21
-3.81231  8.76391e+21
-3.69501  8.79024e+21
-3.5777  8.80117e+21
-3.4604  8.79807e+21
-3.34309  8.78199e+21
-3.22579  8.75482e+21
-3.10849  8.71883e+21
-2.99118  8.67657e+21
-2.87387  8.63102e+21
-2.75657  8.58511e+21
-2.63926  8.54149e+21
-2.52196  8.50287e+21
-2.40465  8.4716e+21
-2.28735  8.44953e+21
-2.17005  8.43816e+21
-2.05274  8.43882e+21
-1.93544  8.45149e+21
-1.81813  8.47676e+21
-1.70083  8.51377e+21
-1.58352  8.56187e+21
-1.46622  8.61966e+21
-1.34891  8.68573e+21
-1.2316  8.75786e+21
-1.1143  8.83422e+21
-0.996995  8.91194e+21
-0.87969  8.98906e+21
-0.762385  9.06268e+21
-0.64508  9.13078e+21
-0.527775  9.19107e+21
-0.41047  9.24165e+21
-0.293165  9.2809e+21
-0.17586  9.30763e+21
-0.058555  9.32114e+21
0.05875  9.32097e+21
0.176055  9.30705e+21
0.29336  9.27999e+21
0.410665  9.2405e+21
0.52797  9.18981e+21
0.645275  9.12955e+21
0.76258  9.06156e+21
0.879885  8.9881e+21
0.99719  8.91143e+21
1.1145  8.83403e+21
1.2318  8.75841e+21
1.3491  8.68704e+21
1.46641  8.62172e+21
1.58371  8.56463e+21
1.70102  8.51732e+21
1.81832  8.48102e+21
1.93563  8.45666e+21
2.05294  8.4445e+21
2.17024  8.44474e+21
2.28754  8.45668e+21
2.40485  8.47939e+21
2.52216  8.51124e+21
2.63946  8.5504e+21
2.75677  8.59443e+21
2.87407  8.64099e+21
2.99137  8.6869e+21
3.10868  8.72945e+21
3.22599  8.7656e+21
3.34329  8.79318e+21
3.4606  8.80963e+21
3.5779  8.8129e+21
3.69521  8.80182e+21
3.81251  8.77571e+21
3.92982  8.73414e+21
4.04712  8.67789e+21
4.16443  8.60794e+21
4.28173  8.52595e+21
4.39903  8.434e+21
4.51634  8.33478e+21
4.63364  8.23107e+21
4.75095  8.12543e+21
4.86825  8.02094e+21
4.98556  7.92028e+21
5.10286  7.82574e+21
5.22017  7.73943e+21
5.33748  7.66295e+21
5.45478  7.59763e+21
5.57209  7.54424e+21
5.68939  7.50251e+21
5.8067  7.4727e+21
5.924  7.45359e+21
6.0413  7.44436e+21
6.15861  7.44288e+21
6.27591  7.44756e+21
6.39322  7.45603e+21
6.51052  7.46587e+21
6.62783  7.47454e+21
6.74514  7.47968e+21
6.86244  7.4791e+21
6.97975  7.47044e+21
7.09705  7.4522e+21
7.21436  7.42266e+21
7.33166  7.38098e+21
7.44897  7.32697e+21
7.56627  7.26066e+21
7.68358  7.1827e+21
7.80088  7.09437e+21
7.91819  6.99724e+21
8.03549  6.8937e+21
8.1528  6.78606e+21
8.2701  6.67622e+21
8.38741  6.56732e+21
8.50471  6.46141e+21
8.62202  6.36055e+21
8.73932  6.2666e+21
8.85662  6.18094e+21
8.97393  6.10433e+21
9.09123  6.03723e+21
9.20854  5.97958e+21
9.32584  5.93084e+21
9.44315  5.88945e+21
9.56045  5.85441e+21
9.67776  5.82383e+21
9.79506  5.79568e+21
9.91237  5.76821e+21
10.0297  5.73947e+21
10.147  5.70805e+21
10.2643  5.67258e+21
10.3816  5.63173e+21
10.4989  5.5856e+21
10.6162  5.5335e+21
10.7335  5.47605e+21
10.8508  5.41333e+21
10.9681  5.34629e+21
11.0854  5.2757e+21
11.2027  5.20219e+21
11.32  5.12641e+21
11.4373  5.04928e+21
11.5546  4.97119e+21
11.6719  4.89251e+21
11.7893  4.81363e+21
11.9066  4.73434e+21
12.0239  4.65466e+21
12.1412  4.57491e+21
12.2585  4.49484e+21
12.3758  4.41471e+21
12.4931  4.33491e+21
12.6104  4.25578e+21
12.7277  4.17839e+21
12.845  4.10362e+21
12.9623  4.03208e+21
13.0796  3.96557e+21
13.1969  3.90475e+21
13.3142  3.85065e+21
13.4315  3.80372e+21
13.5488  3.76438e+21
13.6661  3.7322e+21
13.7834  3.70641e+21
13.9007  3.68578e+21
14.018  3.66862e+21
14.1354  3.65227e+21
14.2527  3.63466e+21
14.37  3.6131e+21
14.4873  3.58498e+21
14.6046  3.54835e+21
14.7219  3.5016e+21
14.8392  3.44386e+21
14.9565  3.3748e+21
15.0738  3.29498e+21
15.1911  3.20621e+21
15.3084  3.11017e+21
15.4257  3.00973e+21
15.543  2.90764e+21
15.6603  2.80697e+21
15.7776  2.71065e+21
15.8949  2.62101e+21
16.0122  2.53986e+21
16.1295  2.46871e+21
16.2468  2.40805e+21
16.3641  2.35778e+21
16.4815  2.31707e+21
16.5988  2.28433e+21
16.7161  2.25743e+21
16.8334  2.23452e+21
16.9507  2.21285e+21
17.068  2.19037e+21
17.1853  2.16511e+21
17.3026  2.13558e+21
17.4199  2.10106e+21
17.5372  2.06145e+21
17.6545  2.01682e+21
17.7718  1.96862e+21
17.8891  1.91786e+21
18.0064  1.86623e+21
18.1237  1.81512e+21
18.241  1.76614e+21
18.3583  1.72026e+21
18.4756  1.67826e+21
18.5929  1.64048e+21
18.7102  1.60689e+21
18.8275  1.57664e+21
18.9449  1.549e+21
19.0622  1.52268e+21
19.1795  1.49619e+21
19.2968  1.46824e+21
19.4141  1.4375e+21
19.5314  1.40298e+21
19.6487  1.36394e+21
19.766  1.32023e+21
19.8833  1.27239e+21
20.0006  1.22102e+21
20.1179  1.16753e+21
20.2352  1.11338e+21
20.3525  1.06027e+21
20.4698  1.00984e+21
20.5871  9.63434e+20
20.7044  9.22118e+20
20.8217  8.86658e+20
20.939  8.5744e+20
21.0563  8.34403e+20
21.1736  8.17103e+20
21.291  8.0468e+20
21.4083  7.95961e+20
21.5256  7.89846e+20
21.6429  7.84705e+20
21.7602  7.79169e+20
21.8775  7.71894e+20
21.9948  7.6173e+20
22.1121  7.47954e+20
22.2294  7.3032e+20
22.3467  7.08802e+20
22.464  6.84168e+20
22.5813  6.57182e+20
22.6986  6.29123e+20
22.8159  6.01089e+20
22.9332  5.74298e+20
23.0505  5.49662e+20
23.1678  5.27805e+20
23.2851  5.09059e+20
23.4024  4.93407e+20
23.5198  4.80405e+20
23.6371  4.69509e+20
23.7544  4.59917e+20
23.8717  4.50737e+20
23.989  4.41179e+20
24.1063  4.30503e+20
24.2236  4.18146e+20
24.3409  4.03761e+20
24.4582  3.87302e+20
24.5755  3.69021e+20
24.6928  3.49323e+20
24.8101  3.28877e+20
24.9274  3.08453e+20
25.0447  2.88804e+20
25.162  2.70675e+20
25.2793  2.5458e+20
25.3966  2.40885e+20
25.5139  2.29731e+20
25.6312  2.21083e+20
25.7485  2.14685e+20
25.8658  2.1016e+20
25.9832  2.07016e+20
26.1005  2.04693e+20
26.2178  2.02671e+20
26.3351  2.00418e+20
26.4524  1.97495e+20
26.5697  1.93579e+20
26.687  1.88505e+20
26.8043  1.82266e+20
26.9216  1.75057e+20
27.0389  1.67233e+20
27.1562  1.59291e+20
27.2735  1.51781e+20
27.3908  1.45271e+20
27.5081  1.40276e+20
27.6254  1.37176e+20
27.7427  1.36179e+20
27.86  1.37338e+20
27.9773  1.40505e+20
28.0946  1.45366e+20
28.212  1.51531e+20
28.3293  1.58513e+20
28.4466  1.65788e+20
28.5639  1.72862e+20
28.6812  1.79265e+20
28.7985  1.84627e+20
28.9158  1.88643e+20
29.0331  1.91202e+20
29.1504  1.92279e+20
29.2677  1.91954e+20
29.385  1.90514e+20
29.5023  1.88264e+20
29.6196  1.85614e+20
29.7369  1.8293e+20
29.8542  1.8063e+20
29.9715  1.79046e+20
30.0888  1.78392e+20
30.2061  1.78854e+20
30.3234  1.80421e+20
30.4407  1.83008e+20
30.558  1.86506e+20
30.6754  1.90604e+20
30.7927  1.95094e+20
30.91  1.99496e+20
31.0273  2.03554e+20
31.1446  2.06922e+20
31.2619  2.09375e+20
31.3792  2.10845e+20
31.4965  2.11324e+20
31.6138  2.10997e+20
31.7311  2.10271e+20
31.8484  2.09496e+20
31.9657  2.09192e+20
32.083  2.09822e+20
32.2003  2.11881e+20
32.3176  2.15662e+20
32.4349  2.21373e+20
32.5522  2.29034e+20
32.6695  2.38524e+20
32.7868  2.4949e+20
32.9042  2.61442e+20
33.0215  2.73885e+20
33.1388  2.86088e+20
33.2561  2.97468e+20
33.3734  3.0728e+20
33.4907  3.15059e+20
33.608  3.20371e+20
33.7253  3.23055e+20
33.8426  3.23141e+20
33.9599  3.20843e+20
34.0772  3.16658e+20
34.1945  3.11128e+20
34.3118  3.04872e+20
34.4291  2.98497e+20
34.5464  2.92606e+20
34.6637  2.87712e+20
34.781  2.84126e+20
34.8983  2.82164e+20
35.0156  2.81855e+20
35.1329  2.83204e+20
35.2503  2.86205e+20
35.3676  2.90533e+20
35.4849  2.96088e+20
35.6022  3.02307e+20
35.7195  3.08883e+20
35.8368  3.1533e+20
35.9541  3.21384e+20
36.0714  3.26835e+20
36.1887  3.31632e+20
36.306  3.35998e+20
36.4233  3.40352e+20
36.5406  3.45105e+20
36.6579  3.50669e+20
36.7752  3.57426e+20
36.8925  3.65445e+20
37.0098  3.74472e+20
37.1271  3.841e+20
37.2444  3.93449e+20
37.3617  4.01746e+20
37.479  4.08069e+20
37.5964  4.11591e+20
37.7137  4.11986e+20
37.831  4.08931e+20
37.9483  4.02733e+20
38.0656  3.93548e+20
38.1829  3.82098e+20
38.3002  3.68946e+20
38.4175  3.54736e+20
38.5348  3.40144e+20
38.6521  3.25749e+20
38.7694  3.12254e+20
38.8867  3.00296e+20
39.004  2.90503e+20
39.1213  2.83557e+20
39.2386  2.79963e+20
39.3559  2.80211e+20
39.4732  2.84364e+20
39.5905  2.92279e+20
39.7078  3.03368e+20
39.8251  3.16789e+20
39.9425  3.31537e+20
40.0598  3.46327e+20
40.1771  3.60257e+20
40.2944  3.7226e+20
40.4117  3.8166e+20
40.529  3.88056e+20
40.6463  3.91511e+20
40.7636  3.92144e+20
40.8809  3.90384e+20
40.9982  3.86871e+20
41.1155  3.82142e+20
41.2328  3.76805e+20
41.3501  3.71199e+20
41.4674  3.65737e+20
41.5847  3.60397e+20
41.702  3.55037e+20
41.8193  3.49461e+20
41.9366  3.43071e+20
42.0539  3.35505e+20
42.1712  3.26248e+20
42.2885  3.14896e+20
42.4059  3.01488e+20
42.5232  2.86006e+20
42.6405  2.69052e+20
42.7578  2.51075e+20
42.8751  2.33023e+20
42.9924  2.15777e+20
43.1097  2.0011e+20
43.227  1.8689e+20
43.3443  1.76739e+20
43.4616  1.70217e+20
43.5789  1.67708e+20
43.6962  1.69354e+20
43.8135  1.75207e+20
43.9308  1.84922e+20
44.0481  1.98053e+20
44.1654  2.13687e+20
44.2827  2.30623e+20
44.4  2.4741e+20
44.5173  2.62461e+20
44.6347  2.74203e+20
44.752  2.81226e+20
44.8693  2.82811e+20
44.9866  2.78536e+20
45.1039  2.68606e+20
45.2212  2.53959e+20
45.3385  2.35907e+20
45.4558  2.15923e+20
45.5731  1.9564e+20
45.6904  1.76595e+20
45.8077  1.59877e+20
45.925  1.46344e+20
46.0423  1.3636e+20
46.1596  1.30056e+20
46.2769  1.27128e+20
46.3942  1.27131e+20
46.5115  1.2952e+20
46.6288  1.33518e+20
46.7461  1.38424e+20
46.8634  1.43442e+20
46.9808  1.47824e+20
47.0981  1.50903e+20
47.2154  1.52123e+20
47.3327  1.51215e+20
47.45  1.48017e+20
47.5673  1.42746e+20
47.6846  1.35806e+20
47.8019  1.27652e+20
47.9192  1.19022e+20
48.0365  1.10528e+20
48.1538  1.02758e+20
48.2711  9.61703e+19
48.3884  9.10033e+19
48.5057  8.7369e+19
48.623  8.51347e+19
48.7403  8.41273e+19
48.8576  8.40222e+19
48.9749  8.4452e+19
49.0922  8.50625e+19
49.2095  8.5562e+19
49.3269  8.56757e+19
49.4442  8.52315e+19
49.5615  8.42552e+19
49.6788  8.27829e+19
49.7961  8.09137e+19
49.9134  7.88988e+19
50.0307  7.69081e+19
50.148  7.506e+19
50.2653  7.35044e+19
50.3826  7.22794e+19
50.4999  7.13241e+19
50.6172  7.05671e+19
50.7345  6.98887e+19
50.8518  6.91938e+19
