#S 1 spectral density
#N 2
#UFWHM 25.4552
#L  abscissas [um]  spectral density
-58.5938  6.09753e+19
-58.4764  5.97841e+19
-58.3591  5.84798e+19
-58.2418  5.73258e+19
-58.1245  5.6395e+19
-58.0072  5.5613e+19
-57.8899  5.48635e+19
-57.7726  5.39828e+19
-57.6553  5.28964e+19
-57.538  5.15819e+19
-57.4207  5.01464e+19
-57.3034  4.8721e+19
-57.1861  4.7461e+19
-57.0688  4.6445e+19
-56.9515  4.56659e+19
-56.8342  4.50104e+19
-56.7169  4.42852e+19
-56.5996  4.33419e+19
-56.4823  4.20534e+19
-56.365  4.04119e+19
-56.2477  3.85439e+19
-56.1303  3.66706e+19
-56.013  3.5044e+19
-55.8957  3.39073e+19
-55.7784  3.34072e+19
-55.6611  3.35882e+19
-55.5438  3.43765e+19
-55.4265  3.56139e+19
-55.3092  3.71009e+19
-55.1919  3.86545e+19
-55.0746  4.01447e+19
-54.9573  4.15083e+19
-54.84  4.27315e+19
-54.7227  4.38209e+19
-54.6054  4.47904e+19
-54.4881  4.56385e+19
-54.3708  4.63255e+19
-54.2535  4.68156e+19
-54.1362  4.70799e+19
-54.0189  4.71676e+19
-53.9016  4.71702e+19
-53.7842  4.72548e+19
-53.6669  4.76477e+19
-53.5496  4.85783e+19
-53.4323  5.02431e+19
-53.315  5.27761e+19
-53.1977  5.61878e+19
-53.0804  6.04081e+19
-52.9631  6.52339e+19
-52.8458  7.04073e+19
-52.7285  7.55868e+19
-52.6112  8.04492e+19
-52.4939  8.46533e+19
-52.3766  8.79427e+19
-52.2593  9.00889e+19
-52.142  9.10157e+19
-52.0247  9.07492e+19
-51.9074  8.94093e+19
-51.7901  8.72723e+19
-51.6728  8.46542e+19
-51.5555  8.18972e+19
-51.4381  7.94636e+19
-51.3208  7.76341e+19
-51.2035  7.67148e+19
-51.0862  7.68355e+19
-50.9689  7.8108e+19
-50.8516  8.05281e+19
-50.7343  8.39844e+19
-50.617  8.8402e+19
-50.4997  9.36508e+19
-50.3824  9.9613e+19
-50.2651  1.0621e+20
-50.1478  1.13281e+20
-50.0305  1.20768e+20
-49.9132  1.28481e+20
-49.7959  1.36338e+20
-49.6786  1.44216e+20
-49.5613  1.51927e+20
-49.444  1.59276e+20
-49.3267  1.6619e+20
-49.2094  1.72529e+20
-49.092  1.78062e+20
-48.9747  1.82758e+20
-48.8574  1.86458e+20
-48.7401  1.89044e+20
-48.6228  1.90484e+20
-48.5055  1.90705e+20
-48.3882  1.89778e+20
-48.2709  1.87801e+20
-48.1536  1.84967e+20
-48.0363  1.81505e+20
-47.919  1.77756e+20
-47.8017  1.74042e+20
-47.6844  1.70802e+20
-47.5671  1.68412e+20
-47.4498  1.67308e+20
-47.3325  1.67934e+20
-47.2152  1.70606e+20
-47.0979  1.75571e+20
-46.9806  1.82822e+20
-46.8633  1.92146e+20
-46.7459  2.03179e+20
-46.6286  2.15127e+20
-46.5113  2.27234e+20
-46.394  2.38475e+20
-46.2767  2.4809e+20
-46.1594  2.55373e+20
-46.0421  2.59816e+20
-45.9248  2.61352e+20
-45.8075  2.60162e+20
-45.6902  2.56677e+20
-45.5729  2.5156e+20
-45.4556  2.45387e+20
-45.3383  2.39019e+20
-45.221  2.33017e+20
-45.1037  2.28139e+20
-44.9864  2.25043e+20
-44.8691  2.24309e+20
-44.7518  2.26479e+20
-44.6345  2.32074e+20
-44.5172  2.41382e+20
-44.3998  2.54249e+20
-44.2825  2.70436e+20
-44.1652  2.89062e+20
-44.0479  3.0892e+20
-43.9306  3.28602e+20
-43.8133  3.46496e+20
-43.696  3.61054e+20
-43.5787  3.71118e+20
-43.4614  3.75993e+20
-43.3441  3.75427e+20
-43.2268  3.69819e+20
-43.1095  3.5996e+20
-42.9922  3.47087e+20
-42.8749  3.32523e+20
-42.7576  3.17593e+20
-42.6403  3.03635e+20
-42.523  2.9162e+20
-42.4057  2.82307e+20
-42.2884  2.76061e+20
-42.171  2.72983e+20
-42.0537  2.72914e+20
-41.9364  2.75314e+20
-41.8191  2.79651e+20
-41.7018  2.85001e+20
-41.5845  2.90662e+20
-41.4672  2.95819e+20
-41.3499  2.99771e+20
-41.2326  3.02094e+20
-41.1153  3.0264e+20
-40.998  3.01535e+20
-40.8807  2.99191e+20
-40.7634  2.9616e+20
-40.6461  2.93345e+20
-40.5288  2.915e+20
-40.4115  2.91577e+20
-40.2942  2.94252e+20
-40.1769  3.00167e+20
-40.0596  3.09638e+20
-39.9423  3.22673e+20
-39.825  3.38952e+20
-39.7076  3.57632e+20
-39.5903  3.77756e+20
-39.473  3.97857e+20
-39.3557  4.16241e+20
-39.2384  4.31347e+20
-39.1211  4.41619e+20
-39.0038  4.45713e+20
-38.8865  4.43005e+20
-38.7692  4.33427e+20
-38.6519  4.17419e+20
-38.5346  3.96124e+20
-38.4173  3.71004e+20
-38.3  3.43901e+20
-38.1827  3.16628e+20
-38.0654  2.9078e+20
-37.9481  2.67888e+20
-37.8308  2.48924e+20
-37.7135  2.34646e+20
-37.5962  2.25397e+20
-37.4789  2.21273e+20
-37.3615  2.22165e+20
-37.2442  2.27676e+20
-37.1269  2.37433e+20
-37.0096  2.50639e+20
-36.8923  2.6647e+20
-36.775  2.8382e+20
-36.6577  3.01531e+20
-36.5404  3.18324e+20
-36.4231  3.33056e+20
-36.3058  3.44731e+20
-36.1885  3.52672e+20
-36.0712  3.56532e+20
-35.9539  3.56387e+20
-35.8366  3.52557e+20
-35.7193  3.45805e+20
-35.602  3.36727e+20
-35.4847  3.26282e+20
-35.3674  3.15166e+20
-35.2501  3.03962e+20
-35.1328  2.93097e+20
-35.0154  2.8278e+20
-34.8981  2.73219e+20
-34.7808  2.64453e+20
-34.6635  2.56332e+20
-34.5462  2.48876e+20
-34.4289  2.41969e+20
-34.3116  2.35387e+20
-34.1943  2.29057e+20
-34.077  2.22892e+20
-33.9597  2.16759e+20
-33.8424  2.10668e+20
-33.7251  2.04655e+20
-33.6078  1.98886e+20
-33.4905  1.93607e+20
-33.3732  1.8904e+20
-33.2559  1.85517e+20
-33.1386  1.83227e+20
-33.0213  1.82392e+20
-32.904  1.8306e+20
-32.7867  1.8516e+20
-32.6693  1.88486e+20
-32.552  1.9271e+20
-32.4347  1.97502e+20
-32.3174  2.02407e+20
-32.2001  2.06939e+20
-32.0828  2.10636e+20
-31.9655  2.13117e+20
-31.8482  2.14031e+20
-31.7309  2.13167e+20
-31.6136  2.10465e+20
-31.4963  2.05992e+20
-31.379  1.99998e+20
-31.2617  1.92855e+20
-31.1444  1.85044e+20
-31.0271  1.77133e+20
-30.9098  1.69571e+20
-30.7925  1.62924e+20
-30.6752  1.57546e+20
-30.5579  1.53687e+20
-30.4406  1.51423e+20
-30.3232  1.50706e+20
-30.2059  1.51372e+20
-30.0886  1.53168e+20
-29.9713  1.5572e+20
-29.854  1.58698e+20
-29.7367  1.61734e+20
-29.6194  1.64486e+20
-29.5021  1.66698e+20
-29.3848  1.68204e+20
-29.2675  1.6894e+20
-29.1502  1.68956e+20
-29.0329  1.68403e+20
-28.9156  1.67557e+20
-28.7983  1.66746e+20
-28.681  1.66307e+20
-28.5637  1.66596e+20
-28.4464  1.67896e+20
-28.3291  1.70442e+20
-28.2118  1.74357e+20
-28.0944  1.7969e+20
-27.9771  1.86349e+20
-27.8598  1.9418e+20
-27.7425  2.02942e+20
-27.6252  2.12334e+20
-27.5079  2.21967e+20
-27.3906  2.31473e+20
-27.2733  2.40487e+20
-27.156  2.48705e+20
-27.0387  2.55896e+20
-26.9214  2.61978e+20
-26.8041  2.67e+20
-26.6868  2.71187e+20
-26.5695  2.74849e+20
-26.4522  2.78349e+20
-26.3349  2.82131e+20
-26.2176  2.866e+20
-26.1003  2.91975e+20
-25.983  2.98447e+20
-25.8657  3.06038e+20
-25.7483  3.14643e+20
-25.631  3.24119e+20
-25.5137  3.34181e+20
-25.3964  3.44514e+20
-25.2791  3.54824e+20
-25.1618  3.64853e+20
-25.0445  3.7431e+20
-24.9272  3.83106e+20
-24.8099  3.91112e+20
-24.6926  3.98441e+20
-24.5753  4.05389e+20
-24.458  4.12287e+20
-24.3407  4.19709e+20
-24.2234  4.28314e+20
-24.1061  4.3879e+20
-23.9888  4.51805e+20
-23.8715  4.68009e+20
-23.7542  4.8785e+20
-23.6369  5.11557e+20
-23.5196  5.39074e+20
-23.4023  5.70297e+20
-23.2849  6.04689e+20
-23.1676  6.41586e+20
-23.0503  6.80151e+20
-22.933  7.19289e+20
-22.8157  7.58014e+20
-22.6984  7.95238e+20
-22.5811  8.30017e+20
-22.4638  8.616e+20
-22.3465  8.89387e+20
-22.2292  9.13289e+20
-22.1119  9.33394e+20
-21.9946  9.50259e+20
-21.8773  9.64564e+20
-21.76  9.77161e+20
-21.6427  9.89122e+20
-21.5254  1.00144e+21
-21.4081  1.01472e+21
-21.2908  1.02962e+21
-21.1735  1.04648e+21
-21.0561  1.0655e+21
-20.9388  1.08685e+21
-20.8215  1.11064e+21
-20.7042  1.13674e+21
-20.5869  1.16527e+21
-20.4696  1.19642e+21
-20.3523  1.23017e+21
-20.235  1.26678e+21
-20.1177  1.3062e+21
-20.0004  1.34854e+21
-19.8831  1.39402e+21
-19.7658  1.44239e+21
-19.6485  1.4936e+21
-19.5312  1.54743e+21
-19.4139  1.60349e+21
-19.2966  1.66115e+21
-19.1793  1.71979e+21
-19.062  1.77849e+21
-18.9447  1.83608e+21
-18.8274  1.89125e+21
-18.71  1.94312e+21
-18.5927  1.9905e+21
-18.4754  2.03253e+21
-18.3581  2.06892e+21
-18.2408  2.09926e+21
-18.1235  2.12409e+21
-18.0062  2.14407e+21
-17.8889  2.16025e+21
-17.7716  2.17418e+21
-17.6543  2.1871e+21
-17.537  2.20105e+21
-17.4197  2.21742e+21
-17.3024  2.23802e+21
-17.1851  2.26406e+21
-17.0678  2.2966e+21
-16.9505  2.33651e+21
-16.8332  2.38412e+21
-16.7159  2.43919e+21
-16.5986  2.50105e+21
-16.4813  2.56863e+21
-16.364  2.64044e+21
-16.2466  2.71504e+21
-16.1293  2.79092e+21
-16.012  2.86613e+21
-15.8947  2.93936e+21
-15.7774  3.00967e+21
-15.6601  3.07605e+21
-15.5428  3.1383e+21
-15.4255  3.19595e+21
-15.3082  3.24936e+21
-15.1909  3.29929e+21
-15.0736  3.34589e+21
-14.9563  3.38998e+21
-14.839  3.43239e+21
-14.7217  3.47368e+21
-14.6044  3.51444e+21
-14.4871  3.55525e+21
-14.3698  3.59653e+21
-14.2525  3.63834e+21
-14.1352  3.68057e+21
-14.0178  3.72368e+21
-13.9005  3.76733e+21
-13.7832  3.81141e+21
-13.6659  3.85638e+21
-13.5486  3.90201e+21
-13.4313  3.94902e+21
-13.314  3.99782e+21
-13.1967  4.04906e+21
-13.0794  4.10395e+21
-12.9621  4.16269e+21
-12.8448  4.22649e+21
-12.7275  4.29542e+21
-12.6102  4.36991e+21
-12.4929  4.44945e+21
-12.3756  4.53335e+21
-12.2583  4.62066e+21
-12.141  4.70989e+21
-12.0237  4.79926e+21
-11.9064  4.88669e+21
-11.7891  4.97011e+21
-11.6718  5.04762e+21
-11.5544  5.11776e+21
-11.4371  5.17961e+21
-11.3198  5.23212e+21
-11.2025  5.2755e+21
-11.0852  5.31052e+21
-10.9679  5.33832e+21
-10.8506  5.36085e+21
-10.7333  5.37994e+21
-10.616  5.39805e+21
-10.4987  5.41797e+21
-10.3814  5.4413e+21
-10.2641  5.47017e+21
-10.1468  5.50616e+21
-10.0295  5.55003e+21
-9.91217  5.6021e+21
-9.79487  5.66227e+21
-9.67756  5.72974e+21
-9.56026  5.80322e+21
-9.44295  5.88097e+21
-9.32565  5.9617e+21
-9.20834  6.04333e+21
-9.09104  6.12404e+21
-8.97373  6.20276e+21
-8.85643  6.27794e+21
-8.73913  6.34919e+21
-8.62182  6.41593e+21
-8.50452  6.47821e+21
-8.38721  6.53682e+21
-8.26991  6.59175e+21
-8.1526  6.64411e+21
-8.03529  6.69429e+21
-7.91799  6.74295e+21
-7.80069  6.79032e+21
-7.68338  6.83641e+21
-7.56608  6.88135e+21
-7.44877  6.92496e+21
-7.33146  6.9669e+21
-7.21416  7.0067e+21
-7.09685  7.04402e+21
-6.97955  7.07876e+21
-6.86224  7.11089e+21
-6.74494  7.14104e+21
-6.62763  7.1691e+21
-6.51033  7.19613e+21
-6.39302  7.22297e+21
-6.27572  7.25078e+21
-6.15842  7.28052e+21
-6.04111  7.31322e+21
-5.92381  7.34976e+21
-5.8065  7.39106e+21
-5.68919  7.43675e+21
-5.57189  7.48715e+21
-5.45458  7.54155e+21
-5.33728  7.59915e+21
-5.21997  7.65854e+21
-5.10267  7.71838e+21
-4.98536  7.77706e+21
-4.86806  7.83301e+21
-4.75075  7.88465e+21
-4.63345  7.93107e+21
-4.51614  7.97113e+21
-4.39884  8.00442e+21
-4.28154  8.03115e+21
-4.16423  8.05159e+21
-4.04692  8.06673e+21
-3.92962  8.07778e+21
-3.81231  8.08628e+21
-3.69501  8.09401e+21
-3.5777  8.10231e+21
-3.4604  8.11293e+21
-3.34309  8.12687e+21
-3.22579  8.14488e+21
-3.10849  8.16738e+21
-2.99118  8.19405e+21
-2.87387  8.22446e+21
-2.75657  8.25791e+21
-2.63926  8.29308e+21
-2.52196  8.32862e+21
-2.40465  8.36322e+21
-2.28735  8.39569e+21
-2.17005  8.42475e+21
-2.05274  8.45016e+21
-1.93544  8.47085e+21
-1.81813  8.48727e+21
-1.70083  8.4994e+21
-1.58352  8.50807e+21
-1.46622  8.51389e+21
-1.34891  8.51795e+21
-1.2316  8.52095e+21
-1.1143  8.52381e+21
-0.996995  8.52675e+21
-0.87969  8.53045e+21
-0.762385  8.53457e+21
-0.64508  8.53933e+21
-0.527775  8.54414e+21
-0.41047  8.54877e+21
-0.293165  8.55264e+21
-0.17586  8.5555e+21
-0.058555  8.55713e+21
0.05875  8.55728e+21
0.176055  8.55583e+21
0.29336  8.55324e+21
0.410665  8.54961e+21
0.52797  8.54537e+21
0.645275  8.54085e+21
0.76258  8.53652e+21
0.879885  8.5327e+21
0.99719  8.5295e+21
1.1145  8.52689e+21
1.2318  8.52457e+21
1.3491  8.52206e+21
1.46641  8.51847e+21
1.58371  8.51309e+21
1.70102  8.50483e+21
1.81832  8.49295e+21
1.93563  8.47697e+21
2.05294  8.45647e+21
2.17024  8.43147e+21
2.28754  8.40253e+21
2.40485  8.37039e+21
2.52216  8.33594e+21
2.63946  8.30066e+21
2.75677  8.26563e+21
2.87407  8.23257e+21
2.99137  8.2023e+21
3.10868  8.17587e+21
3.22599  8.1536e+21
3.34329  8.13606e+21
3.4606  8.12258e+21
3.5779  8.11236e+21
3.69521  8.10432e+21
3.81251  8.09716e+21
3.92982  8.08895e+21
4.04712  8.07825e+21
4.16443  8.06351e+21
4.28173  8.04342e+21
4.39903  8.01693e+21
4.51634  7.98371e+21
4.63364  7.94393e+21
4.75095  7.8976e+21
4.86825  7.8458e+21
4.98556  7.78996e+21
5.10286  7.7312e+21
5.22017  7.6714e+21
5.33748  7.61196e+21
5.45478  7.55448e+21
5.57209  7.50028e+21
5.68939  7.44993e+21
5.8067  7.40442e+21
5.924  7.36362e+21
6.0413  7.32744e+21
6.15861  7.29512e+21
6.27591  7.26589e+21
6.39322  7.23871e+21
6.51052  7.21237e+21
6.62783  7.18583e+21
6.74514  7.15814e+21
6.86244  7.12853e+21
6.97975  7.09667e+21
7.09705  7.06224e+21
7.21436  7.02505e+21
7.33166  6.98532e+21
7.44897  6.9435e+21
7.56627  6.89992e+21
7.68358  6.85489e+21
7.80088  6.80862e+21
7.91819  6.76106e+21
8.03549  6.71249e+21
8.1528  6.6624e+21
8.2701  6.60995e+21
8.38741  6.55503e+21
8.50471  6.49675e+21
8.62202  6.43449e+21
8.73932  6.36794e+21
8.85662  6.29714e+21
8.97393  6.22217e+21
9.09123  6.14384e+21
9.20854  6.06327e+21
9.32584  5.98219e+21
9.44315  5.90168e+21
9.56045  5.82399e+21
9.67776  5.75079e+21
9.79506  5.68344e+21
9.91237  5.62343e+21
10.0297  5.57132e+21
10.147  5.52758e+21
10.2643  5.49178e+21
10.3816  5.46273e+21
10.4989  5.43948e+21
10.6162  5.41967e+21
10.7335  5.40147e+21
10.8508  5.38223e+21
10.9681  5.35973e+21
11.0854  5.33194e+21
11.2027  5.29701e+21
11.32  5.25347e+21
11.4373  5.20078e+21
11.5546  5.13901e+21
11.6719  5.06871e+21
11.7893  4.99104e+21
11.9066  4.90749e+21
12.0239  4.81983e+21
12.1412  4.73049e+21
12.2585  4.6411e+21
12.3758  4.55364e+21
12.4931  4.46951e+21
12.6104  4.38979e+21
12.7277  4.31536e+21
12.845  4.24649e+21
12.9623  4.18256e+21
13.0796  4.12379e+21
13.1969  4.0691e+21
13.3142  4.01784e+21
13.4315  3.96909e+21
13.5488  3.92234e+21
13.6661  3.87675e+21
13.7834  3.83197e+21
13.9007  3.78788e+21
14.018  3.74453e+21
14.1354  3.70141e+21
14.2527  3.65907e+21
14.37  3.61731e+21
14.4873  3.57596e+21
14.6046  3.53498e+21
14.7219  3.49393e+21
14.8392  3.45249e+21
14.9565  3.4099e+21
15.0738  3.36537e+21
15.1911  3.31856e+21
15.3084  3.26834e+21
15.4257  3.21447e+21
15.543  3.15635e+21
15.6603  3.09388e+21
15.7776  3.02725e+21
15.8949  2.95689e+21
16.0122  2.88335e+21
16.1295  2.80795e+21
16.2468  2.73212e+21
16.3641  2.65745e+21
16.4815  2.58566e+21
16.5988  2.51819e+21
16.7161  2.45639e+21
16.8334  2.40163e+21
16.9507  2.35416e+21
17.068  2.31434e+21
17.1853  2.28186e+21
17.3026  2.2559e+21
17.4199  2.23541e+21
17.5372  2.21912e+21
17.6545  2.20501e+21
17.7718  2.19194e+21
17.8891  2.17788e+21
18.0064  2.16143e+21
18.1237  2.1411e+21
18.241  2.11596e+21
18.3583  2.08517e+21
18.4756  2.04845e+21
18.5929  2.00595e+21
18.7102  1.95829e+21
18.8275  1.90601e+21
18.9449  1.85042e+21
19.0622  1.79257e+21
19.1795  1.73359e+21
19.2968  1.67467e+21
19.4141  1.61672e+21
19.5314  1.56051e+21
19.6487  1.50651e+21
19.766  1.45503e+21
19.8833  1.40656e+21
20.0006  1.3609e+21
20.1179  1.31831e+21
20.2352  1.27863e+21
20.3525  1.24188e+21
20.4698  1.208e+21
20.5871  1.17679e+21
20.7044  1.14806e+21
20.8217  1.1218e+21
20.939  1.09794e+21
21.0563  1.0765e+21
21.1736  1.05742e+21
21.291  1.04053e+21
21.4083  1.02554e+21
21.5256  1.01229e+21
21.6429  9.99953e+20
21.7602  9.87844e+20
21.8775  9.75073e+20
21.9948  9.60584e+20
22.1121  9.43481e+20
22.2294  9.2314e+20
22.3467  8.98808e+20
22.464  8.70637e+20
22.5813  8.38648e+20
22.6986  8.03467e+20
22.8159  7.65793e+20
22.9332  7.26665e+20
23.0505  6.87148e+20
23.1678  6.48269e+20
23.2851  6.11091e+20
23.4024  5.76498e+20
23.5198  5.45094e+20
23.6371  5.174e+20
23.7544  4.93627e+20
23.8717  4.73706e+20
23.989  4.57438e+20
24.1063  4.44357e+20
24.2236  4.33839e+20
24.3409  4.25178e+20
24.4582  4.17644e+20
24.5755  4.1067e+20
24.6928  4.03596e+20
24.8101  3.96102e+20
24.9274  3.87912e+20
25.0447  3.7897e+20
25.162  3.69383e+20
25.2793  3.59237e+20
25.3966  3.4877e+20
25.5139  3.38295e+20
25.6312  3.28114e+20
25.7485  3.18555e+20
25.8658  3.09875e+20
25.9832  3.02238e+20
26.1005  2.95681e+20
26.2178  2.90278e+20
26.3351  2.8577e+20
26.4524  2.8189e+20
26.5697  2.78271e+20
26.687  2.74472e+20
26.8043  2.70114e+20
26.9216  2.64896e+20
27.0389  2.58561e+20
27.1562  2.51127e+20
27.2735  2.4265e+20
27.3908  2.33375e+20
27.5081  2.23614e+20
27.6254  2.13759e+20
27.7427  2.04177e+20
27.86  1.95255e+20
27.9773  1.87296e+20
28.0946  1.8054e+20
28.212  1.7515e+20
28.3293  1.71184e+20
28.4466  1.68617e+20
28.5639  1.67294e+20
28.6812  1.67002e+20
28.7985  1.67439e+20
28.9158  1.68236e+20
29.0331  1.69065e+20
29.1504  1.6958e+20
29.2677  1.69529e+20
29.385  1.68743e+20
29.5023  1.67167e+20
29.6196  1.64879e+20
29.7369  1.62032e+20
29.8542  1.58919e+20
29.9715  1.55855e+20
30.0888  1.53203e+20
30.2061  1.51352e+20
30.3234  1.50612e+20
30.4407  1.5124e+20
30.558  1.53434e+20
30.6754  1.57239e+20
30.7927  1.62557e+20
30.91  1.69102e+20
31.0273  1.76548e+20
31.1446  1.84385e+20
31.2619  1.92073e+20
31.3792  1.99126e+20
31.4965  2.0501e+20
31.6138  2.09353e+20
31.7311  2.11995e+20
31.8484  2.12783e+20
31.9657  2.1183e+20
32.083  2.09306e+20
32.2003  2.05597e+20
32.3176  2.01084e+20
32.4349  1.96209e+20
32.5522  1.91478e+20
32.6695  1.87303e+20
32.7868  1.84042e+20
32.9042  1.8201e+20
33.0215  1.81401e+20
33.1388  1.82268e+20
33.2561  1.84575e+20
33.3734  1.88112e+20
33.4907  1.92679e+20
33.608  1.9793e+20
33.7253  2.03676e+20
33.8426  2.09671e+20
33.9599  2.15727e+20
34.0772  2.21852e+20
34.1945  2.28039e+20
34.3118  2.34375e+20
34.4291  2.40931e+20
34.5464  2.47868e+20
34.6637  2.55345e+20
34.781  2.63439e+20
34.8983  2.72296e+20
35.0156  2.81878e+20
35.1329  2.92133e+20
35.2503  3.03005e+20
35.3676  3.1419e+20
35.4849  3.25326e+20
35.6022  3.35693e+20
35.7195  3.44672e+20
35.8368  3.51379e+20
35.9541  3.55088e+20
36.0714  3.5522e+20
36.1887  3.51278e+20
36.306  3.43264e+20
36.4233  3.31606e+20
36.5406  3.16898e+20
36.6579  3.0014e+20
36.7752  2.82502e+20
36.8925  2.65258e+20
37.0098  2.4956e+20
37.1271  2.36484e+20
37.2444  2.26913e+20
37.3617  2.2155e+20
37.479  2.20851e+20
37.5964  2.25099e+20
37.7137  2.34517e+20
37.831  2.4891e+20
37.9483  2.68012e+20
38.0656  2.90973e+20
38.1829  3.16842e+20
38.3002  3.44123e+20
38.4175  3.7122e+20
38.5348  3.96253e+20
38.6521  4.17421e+20
38.7694  4.3329e+20
38.8867  4.42742e+20
39.004  4.45284e+20
39.1213  4.41004e+20
39.2386  4.30625e+20
39.3559  4.15452e+20
39.4732  3.96976e+20
39.5905  3.76946e+20
39.7078  3.56886e+20
39.8251  3.38192e+20
39.9425  3.22046e+20
40.0598  3.09101e+20
40.1771  2.99813e+20
40.2944  2.94011e+20
40.4117  2.91454e+20
40.529  2.91468e+20
40.6463  2.9337e+20
40.7636  2.96325e+20
40.8809  2.99349e+20
40.9982  3.01722e+20
41.1155  3.02856e+20
41.2328  3.0232e+20
41.3501  2.99957e+20
41.4674  2.96e+20
41.5847  2.90875e+20
41.702  2.85213e+20
41.8193  2.79877e+20
41.9366  2.75623e+20
42.0539  2.73311e+20
42.1712  2.7354e+20
42.2885  2.76678e+20
42.4059  2.8309e+20
42.5232  2.92526e+20
42.6405  3.04722e+20
42.7578  3.18745e+20
42.8751  3.33708e+20
42.9924  3.48333e+20
43.1097  3.61232e+20
43.227  3.71038e+20
43.3443  3.76543e+20
43.4616  3.77006e+20
43.5789  3.72027e+20
43.6962  3.61837e+20
43.8135  3.47158e+20
43.9308  3.29165e+20
44.0481  3.09457e+20
44.1654  2.89588e+20
44.2827  2.71038e+20
44.4  2.54961e+20
44.5173  2.42135e+20
44.6347  2.33007e+20
44.752  2.27481e+20
44.8693  2.2547e+20
44.9866  2.2635e+20
45.1039  2.29579e+20
45.2212  2.34524e+20
45.3385  2.40578e+20
45.4558  2.47032e+20
45.5731  2.53143e+20
45.6904  2.5827e+20
45.8077  2.61688e+20
45.925  2.62797e+20
46.0423  2.61128e+20
46.1596  2.5656e+20
46.2769  2.49183e+20
46.3942  2.39431e+20
46.5115  2.28088e+20
46.6288  2.1593e+20
46.7461  2.03983e+20
46.8634  1.93038e+20
46.9808  1.83711e+20
47.0981  1.76582e+20
47.2154  1.71717e+20
47.3327  1.69201e+20
47.45  1.68643e+20
47.5673  1.69816e+20
47.6846  1.72313e+20
47.8019  1.75618e+20
47.9192  1.79363e+20
48.0365  1.83122e+20
48.1538  1.86554e+20
48.2711  1.89386e+20
48.3884  1.91318e+20
48.5057  1.92191e+20
48.623  1.91865e+20
48.7403  1.90366e+20
48.8576  1.87737e+20
48.9749  1.83992e+20
49.0922  1.79266e+20
49.2095  1.73672e+20
49.3269  1.67351e+20
49.4442  1.6036e+20
49.5615  1.52983e+20
49.6788  1.45274e+20
49.7961  1.37374e+20
49.9134  1.29468e+20
50.0307  1.21698e+20
50.148  1.14173e+20
50.2653  1.07021e+20
50.3826  1.00404e+20
50.4999  9.43964e+19
50.6172  8.91246e+19
50.7345  8.46906e+19
50.8518  8.12448e+19
50.9691  7.88513e+19
