#S 1 spectral density
#N 2
#UFWHM 13.4901
#L  abscissas [um]  spectral density
-58.5938  7.52294e+18
-58.4764  6.69476e+18
-58.3591  6.06325e+18
-58.2418  5.90131e+18
-58.1245  6.30916e+18
-58.0072  7.19218e+18
-57.8899  8.27123e+18
-57.7726  9.2068e+18
-57.6553  9.69365e+18
-57.538  9.53477e+18
-57.4207  8.70227e+18
-57.3034  7.34003e+18
-57.1861  5.70207e+18
-57.0688  4.07908e+18
-56.9515  2.7355e+18
-56.8342  1.85141e+18
-56.7169  1.5136e+18
-56.5996  1.69588e+18
-56.4823  2.33436e+18
-56.365  3.32703e+18
-56.2477  4.58732e+18
-56.1303  6.02734e+18
-56.013  7.57591e+18
-55.8957  9.13136e+18
-55.7784  1.05803e+19
-55.6611  1.17667e+19
-55.5438  1.25171e+19
-55.4265  1.27042e+19
-55.3092  1.22486e+19
-55.1919  1.11791e+19
-55.0746  9.59484e+18
-54.9573  7.73297e+18
-54.84  5.82753e+18
-54.7227  4.15805e+18
-54.6054  2.92728e+18
-54.4881  2.28757e+18
-54.3708  2.30549e+18
-54.2535  2.96186e+18
-54.1362  4.19314e+18
-54.0189  5.89778e+18
-53.9016  7.97239e+18
-53.7842  1.02981e+19
-53.6669  1.27745e+19
-53.5496  1.52554e+19
-53.4323  1.76109e+19
-53.315  1.9671e+19
-53.1977  2.12763e+19
-53.0804  2.22966e+19
-52.9631  2.26242e+19
-52.8458  2.22234e+19
-52.7285  2.11404e+19
-52.6112  1.94685e+19
-52.4939  1.73663e+19
-52.3766  1.50238e+19
-52.2593  1.26535e+19
-52.142  1.04496e+19
-52.0247  8.58356e+18
-51.9074  7.19129e+18
-51.7901  6.35209e+18
-51.6728  6.09285e+18
-51.5555  6.36172e+18
-51.4381  7.05364e+18
-51.3208  7.98423e+18
-51.2035  8.97026e+18
-51.0862  9.80075e+18
-50.9689  1.03598e+19
-50.8516  1.06134e+19
-50.7343  1.06237e+19
-50.617  1.05925e+19
-50.4997  1.07868e+19
-50.3824  1.14678e+19
-50.2651  1.28781e+19
-50.1478  1.50579e+19
-50.0305  1.79559e+19
-49.9132  2.12724e+19
-49.7959  2.46091e+19
-49.6786  2.74987e+19
-49.5613  2.9496e+19
-49.444  3.02652e+19
-49.3267  2.96579e+19
-49.2094  2.77116e+19
-49.092  2.46721e+19
-48.9747  2.08857e+19
-48.8574  1.68047e+19
-48.7401  1.28336e+19
-48.6228  9.32406e+18
-48.5055  6.49433e+18
-48.3882  4.42543e+18
-48.2709  3.07806e+18
-48.1536  2.31326e+18
-48.0363  1.94639e+18
-47.919  1.78537e+18
-47.8017  1.68507e+18
-47.6844  1.57205e+18
-47.5671  1.456e+18
-47.4498  1.43111e+18
-47.3325  1.63897e+18
-47.2152  2.2328e+18
-47.0979  3.30652e+18
-46.9806  4.85525e+18
-46.8633  6.74235e+18
-46.7459  8.72606e+18
-46.6286  1.04529e+19
-46.5113  1.15725e+19
-46.394  1.18226e+19
-46.2767  1.11017e+19
-46.1594  9.53402e+18
-46.0421  7.45595e+18
-45.9248  5.37895e+18
-45.8075  3.84546e+18
-45.6902  3.32456e+18
-45.5729  4.0743e+18
-45.4556  6.05742e+18
-45.3383  8.9408e+18
-45.221  1.2148e+19
-45.1037  1.50092e+19
-44.9864  1.69121e+19
-44.8691  1.74298e+19
-44.7518  1.64774e+19
-44.6345  1.42653e+19
-44.5172  1.12666e+19
-44.3998  8.11471e+18
-44.2825  5.42006e+18
-44.1652  3.65535e+18
-44.0479  3.01655e+18
-43.9306  3.45009e+18
-43.8133  4.63507e+18
-43.696  6.14317e+18
-43.5787  7.5039e+18
-43.4614  8.33624e+18
-43.3441  8.42878e+18
-43.2268  7.77422e+18
-43.1095  6.51665e+18
-42.9922  4.93617e+18
-42.8749  3.37411e+18
-42.7576  2.15266e+18
-42.6403  1.53103e+18
-42.523  1.6926e+18
-42.4057  2.70321e+18
-42.2884  4.52486e+18
-42.171  7.01784e+18
-42.0537  9.9478e+18
-41.9364  1.29997e+19
-41.8191  1.58061e+19
-41.7018  1.80066e+19
-41.5845  1.92819e+19
-41.4672  1.94235e+19
-41.3499  1.83851e+19
-41.2326  1.63078e+19
-41.1153  1.34913e+19
-40.998  1.03643e+19
-40.8807  7.39562e+18
-40.7634  5.01071e+18
-40.6461  3.5043e+18
-40.5288  2.9952e+18
-40.4115  3.4228e+18
-40.2942  4.57764e+18
-40.1769  6.15524e+18
-40.0596  7.84448e+18
-39.9423  9.39417e+18
-39.825  1.06471e+19
-39.7076  1.15359e+19
-39.5903  1.20992e+19
-39.473  1.23938e+19
-39.3557  1.25366e+19
-39.2384  1.26056e+19
-39.1211  1.26868e+19
-39.0038  1.28972e+19
-38.8865  1.3375e+19
-38.7692  1.42687e+19
-38.6519  1.5785e+19
-38.5346  1.80714e+19
-38.4173  2.11837e+19
-38.3  2.5031e+19
-38.1827  2.93065e+19
-38.0654  3.35278e+19
-37.9481  3.70802e+19
-37.8308  3.93207e+19
-37.7135  3.97307e+19
-37.5962  3.80083e+19
-37.4789  3.41936e+19
-37.3615  2.86636e+19
-37.2442  2.20829e+19
-37.1269  1.53245e+19
-37.0096  9.22314e+18
-36.8923  4.52021e+18
-36.775  1.64601e+18
-36.6577  6.85783e+17
-36.5404  1.38686e+18
-36.4231  3.24663e+18
-36.3058  5.62216e+18
-36.1885  7.90261e+18
-36.0712  9.61269e+18
-35.9539  1.04993e+19
-35.8366  1.05323e+19
-35.7193  9.8693e+18
-35.602  8.81661e+18
-35.4847  7.66302e+18
-35.3674  6.65247e+18
-35.2501  5.92546e+18
-35.1328  5.5089e+18
-35.0154  5.32467e+18
-34.8981  5.25336e+18
-34.7808  5.18051e+18
-34.6635  5.03538e+18
-34.5462  4.82132e+18
-34.4289  4.59131e+18
-34.3116  4.44499e+18
-34.1943  4.48523e+18
-34.077  4.80428e+18
-33.9597  5.43796e+18
-33.8424  6.38067e+18
-33.7251  7.55107e+18
-33.6078  8.86287e+18
-33.4905  1.01876e+19
-33.3732  1.13915e+19
-33.2559  1.23581e+19
-33.1386  1.29944e+19
-33.0213  1.32287e+19
-32.904  1.30421e+19
-32.7867  1.24395e+19
-32.6693  1.14822e+19
-32.552  1.02337e+19
-32.4347  8.82522e+18
-32.3174  7.37778e+18
-32.2001  6.00551e+18
-32.0828  4.81613e+18
-31.9655  3.88121e+18
-31.8482  3.27919e+18
-31.7309  3.05062e+18
-31.6136  3.23905e+18
-31.4963  3.89133e+18
-31.379  5.0423e+18
-31.2617  6.72557e+18
-31.1444  8.9293e+18
-31.0271  1.15758e+19
-30.9098  1.45433e+19
-30.7925  1.76092e+19
-30.6752  2.05295e+19
-30.5579  2.30347e+19
-30.4406  2.48734e+19
-30.3232  2.58911e+19
-30.2059  2.60231e+19
-30.0886  2.53542e+19
-29.9713  2.40792e+19
-29.854  2.24711e+19
-29.7367  2.08641e+19
-29.6194  1.9571e+19
-29.5021  1.88567e+19
-29.3848  1.88742e+19
-29.2675  1.96757e+19
-29.1502  2.11904e+19
-29.0329  2.32572e+19
-28.9156  2.56048e+19
-28.7983  2.79488e+19
-28.681  2.9975e+19
-28.5637  3.14174e+19
-28.4464  3.20848e+19
-28.3291  3.19045e+19
-28.2118  3.09206e+19
-28.0944  2.93735e+19
-27.9771  2.7591e+19
-27.8598  2.59837e+19
-27.7425  2.49909e+19
-27.6252  2.49126e+19
-27.5079  2.59924e+19
-27.3906  2.82159e+19
-27.2733  3.13948e+19
-27.156  3.51423e+19
-27.0387  3.89677e+19
-26.9214  4.23684e+19
-26.8041  4.49073e+19
-26.6868  4.62922e+19
-26.5695  4.64206e+19
-26.4522  4.53808e+19
-26.3349  4.34194e+19
-26.2176  4.08878e+19
-26.1003  3.81358e+19
-25.983  3.54857e+19
-25.8657  3.31694e+19
-25.7483  3.13052e+19
-25.631  2.99439e+19
-25.5137  2.90323e+19
-25.3964  2.8483e+19
-25.2791  2.81914e+19
-25.1618  2.80608e+19
-25.0445  2.79938e+19
-24.9272  2.796e+19
-24.8099  2.78776e+19
-24.6926  2.77659e+19
-24.5753  2.76536e+19
-24.458  2.75527e+19
-24.3407  2.75541e+19
-24.2234  2.77503e+19
-24.1061  2.82454e+19
-23.9888  2.91996e+19
-23.8715  3.07279e+19
-23.7542  3.30315e+19
-23.6369  3.62625e+19
-23.5196  4.05986e+19
-23.4023  4.6238e+19
-23.2849  5.32789e+19
-23.1676  6.17786e+19
-23.0503  7.16987e+19
-22.933  8.27635e+19
-22.8157  9.46395e+19
-22.6984  1.06695e+20
-22.5811  1.18275e+20
-22.4638  1.28715e+20
-22.3465  1.37279e+20
-22.2292  1.43538e+20
-22.1119  1.47204e+20
-21.9946  1.48246e+20
-21.8773  1.46855e+20
-21.76  1.43497e+20
-21.6427  1.38702e+20
-21.5254  1.33021e+20
-21.4081  1.27045e+20
-21.2908  1.21231e+20
-21.1735  1.15926e+20
-21.0561  1.11441e+20
-20.9388  1.07938e+20
-20.8215  1.05679e+20
-20.7042  1.04792e+20
-20.5869  1.05528e+20
-20.4696  1.08053e+20
-20.3523  1.12651e+20
-20.235  1.19489e+20
-20.1177  1.2886e+20
-20.0004  1.40877e+20
-19.8831  1.55647e+20
-19.7658  1.73187e+20
-19.6485  1.93412e+20
-19.5312  2.1599e+20
-19.4139  2.40439e+20
-19.2966  2.65977e+20
-19.1793  2.9162e+20
-19.062  3.16138e+20
-18.9447  3.38296e+20
-18.8274  3.5691e+20
-18.71  3.70844e+20
-18.5927  3.79462e+20
-18.4754  3.82537e+20
-18.3581  3.80199e+20
-18.2408  3.73235e+20
-18.1235  3.62597e+20
-18.0062  3.4966e+20
-17.8889  3.35916e+20
-17.7716  3.2266e+20
-17.6543  3.11493e+20
-17.537  3.03472e+20
-17.4197  2.99774e+20
-17.3024  3.01173e+20
-17.1851  3.08444e+20
-17.0678  3.22078e+20
-16.9505  3.42325e+20
-16.8332  3.69236e+20
-16.7159  4.02558e+20
-16.5986  4.41759e+20
-16.4813  4.85912e+20
-16.364  5.3384e+20
-16.2466  5.84032e+20
-16.1293  6.34641e+20
-16.012  6.84223e+20
-15.8947  7.30988e+20
-15.7774  7.73555e+20
-15.6601  8.10891e+20
-15.5428  8.42414e+20
-15.4255  8.68046e+20
-15.3082  8.88486e+20
-15.1909  9.04418e+20
-15.0736  9.17704e+20
-14.9563  9.29977e+20
-14.839  9.4329e+20
-14.7217  9.59398e+20
-14.6044  9.80207e+20
-14.4871  1.00682e+21
-14.3698  1.04013e+21
-14.2525  1.0802e+21
-14.1352  1.1266e+21
-14.0178  1.17814e+21
-13.9005  1.2335e+21
-13.7832  1.29093e+21
-13.6659  1.34853e+21
-13.5486  1.40474e+21
-13.4313  1.45833e+21
-13.314  1.50824e+21
-13.1967  1.55407e+21
-13.0794  1.59602e+21
-12.9621  1.63461e+21
-12.8448  1.67073e+21
-12.7275  1.70559e+21
-12.6102  1.74051e+21
-12.4929  1.77665e+21
-12.3756  1.81515e+21
-12.2583  1.85685e+21
-12.141  1.90236e+21
-12.0237  1.9521e+21
-11.9064  2.00616e+21
-11.7891  2.06462e+21
-11.6718  2.12754e+21
-11.5544  2.19499e+21
-11.4371  2.26691e+21
-11.3198  2.34395e+21
-11.2025  2.42644e+21
-11.0852  2.51522e+21
-10.9679  2.61117e+21
-10.8506  2.71513e+21
-10.7333  2.82788e+21
-10.616  2.95009e+21
-10.4987  3.08217e+21
-10.3814  3.22376e+21
-10.2641  3.37418e+21
-10.1468  3.53272e+21
-10.0295  3.69733e+21
-9.91217  3.86599e+21
-9.79487  4.03662e+21
-9.67756  4.20664e+21
-9.56026  4.37345e+21
-9.44295  4.53465e+21
-9.32565  4.68869e+21
-9.20834  4.83384e+21
-9.09104  4.96959e+21
-8.97373  5.09564e+21
-8.85643  5.21314e+21
-8.73913  5.3231e+21
-8.62182  5.42756e+21
-8.50452  5.52876e+21
-8.38721  5.6295e+21
-8.26991  5.73189e+21
-8.1526  5.83864e+21
-8.03529  5.95143e+21
-7.91799  6.07223e+21
-7.80069  6.20222e+21
-7.68338  6.34204e+21
-7.56608  6.49263e+21
-7.44877  6.65432e+21
-7.33146  6.82699e+21
-7.21416  7.01062e+21
-7.09685  7.20498e+21
-6.97955  7.40933e+21
-6.86224  7.62284e+21
-6.74494  7.84413e+21
-6.62763  8.07098e+21
-6.51033  8.30126e+21
-6.39302  8.53198e+21
-6.27572  8.75995e+21
-6.15842  8.98196e+21
-6.04111  9.19448e+21
-5.92381  9.39425e+21
-5.8065  9.57903e+21
-5.68919  9.74671e+21
-5.57189  9.89646e+21
-5.45458  1.00284e+22
-5.33728  1.01443e+22
-5.21997  1.02458e+22
-5.10267  1.03371e+22
-4.98536  1.0422e+22
-4.86806  1.05048e+22
-4.75075  1.05902e+22
-4.63345  1.06825e+22
-4.51614  1.07853e+22
-4.39884  1.0901e+22
-4.28154  1.10312e+22
-4.16423  1.11766e+22
-4.04692  1.13354e+22
-3.92962  1.15059e+22
-3.81231  1.16854e+22
-3.69501  1.18699e+22
-3.5777  1.20556e+22
-3.4604  1.22381e+22
-3.34309  1.24135e+22
-3.22579  1.25784e+22
-3.10849  1.27304e+22
-2.99118  1.28677e+22
-2.87387  1.29899e+22
-2.75657  1.30977e+22
-2.63926  1.3193e+22
-2.52196  1.32784e+22
-2.40465  1.33573e+22
-2.28735  1.3433e+22
-2.17005  1.35098e+22
-2.05274  1.35913e+22
-1.93544  1.36796e+22
-1.81813  1.37776e+22
-1.70083  1.38863e+22
-1.58352  1.40058e+22
-1.46622  1.41353e+22
-1.34891  1.42729e+22
-1.2316  1.44163e+22
-1.1143  1.4562e+22
-0.996995  1.47067e+22
-0.87969  1.48467e+22
-0.762385  1.49775e+22
-0.64508  1.50965e+22
-0.527775  1.52002e+22
-0.41047  1.5286e+22
-0.293165  1.53516e+22
-0.17586  1.5396e+22
-0.058555  1.5418e+22
0.05875  1.54169e+22
0.176055  1.53931e+22
0.29336  1.53468e+22
0.410665  1.52792e+22
0.52797  1.51915e+22
0.645275  1.50861e+22
0.76258  1.49655e+22
0.879885  1.48331e+22
0.99719  1.4692e+22
1.1145  1.45463e+22
1.2318  1.43994e+22
1.3491  1.42552e+22
1.46641  1.41168e+22
1.58371  1.39865e+22
1.70102  1.38664e+22
1.81832  1.37572e+22
1.93563  1.36587e+22
2.05294  1.35698e+22
2.17024  1.34883e+22
2.28754  1.34114e+22
2.40485  1.3335e+22
2.52216  1.32559e+22
2.63946  1.31704e+22
2.75677  1.30747e+22
2.87407  1.29666e+22
2.99137  1.28441e+22
3.10868  1.27064e+22
3.22599  1.25541e+22
3.34329  1.23888e+22
3.4606  1.2213e+22
3.5779  1.20301e+22
3.69521  1.18441e+22
3.81251  1.16592e+22
3.92982  1.14792e+22
4.04712  1.1308e+22
4.16443  1.11488e+22
4.28173  1.10031e+22
4.39903  1.08723e+22
4.51634  1.07562e+22
4.63364  1.06531e+22
4.75095  1.05604e+22
4.86825  1.04745e+22
4.98556  1.03912e+22
5.10286  1.03063e+22
5.22017  1.02143e+22
5.33748  1.01123e+22
5.45478  9.99619e+21
5.57209  9.86372e+21
5.68939  9.71337e+21
5.8067  9.5451e+21
5.924  9.35973e+21
6.0413  9.15948e+21
6.15861  8.94656e+21
6.27591  8.7241e+21
6.39322  8.49585e+21
6.51052  8.26491e+21
6.62783  8.03452e+21
6.74514  7.80761e+21
6.86244  7.58666e+21
6.97975  7.37342e+21
7.09705  7.16956e+21
7.21436  6.97583e+21
7.33166  6.79264e+21
7.44897  6.62082e+21
7.56627  6.45999e+21
7.68358  6.31006e+21
7.80088  6.17076e+21
7.91819  6.04131e+21
8.03549  5.92104e+21
8.1528  5.8086e+21
8.2701  5.70199e+21
8.38741  5.59955e+21
8.50471  5.4987e+21
8.62202  5.39737e+21
8.73932  5.29253e+21
8.85662  5.18236e+21
8.97393  5.06486e+21
9.09123  4.93856e+21
9.20854  4.80291e+21
9.32584  4.65795e+21
9.44315  4.50432e+21
9.56045  4.34345e+21
9.67776  4.17742e+21
9.79506  4.00821e+21
9.91237  3.83849e+21
10.0297  3.67076e+21
10.147  3.50732e+21
10.2643  3.35001e+21
10.3816  3.20061e+21
10.4989  3.06011e+21
10.6162  2.92914e+21
10.7335  2.8078e+21
10.8508  2.69593e+21
10.9681  2.59278e+21
11.0854  2.49774e+21
11.2027  2.40971e+21
11.32  2.32792e+21
11.4373  2.25165e+21
11.5546  2.18028e+21
11.6719  2.11346e+21
11.7893  2.05125e+21
11.9066  1.99336e+21
12.0239  1.93972e+21
12.1412  1.89064e+21
12.2585  1.84552e+21
12.3758  1.80431e+21
12.4931  1.76617e+21
12.6104  1.73036e+21
12.7277  1.69569e+21
12.845  1.66096e+21
12.9623  1.62493e+21
13.0796  1.58658e+21
13.1969  1.54462e+21
13.3142  1.49895e+21
13.4315  1.44915e+21
13.5488  1.39566e+21
13.6661  1.33954e+21
13.7834  1.28205e+21
13.9007  1.22483e+21
14.018  1.16961e+21
14.1354  1.11827e+21
14.2527  1.07217e+21
14.37  1.03233e+21
14.4873  9.99265e+20
14.6046  9.7275e+20
14.7219  9.52092e+20
14.8392  9.3602e+20
14.9565  9.22753e+20
15.0738  9.10552e+20
15.1911  8.97271e+20
15.3084  8.81276e+20
15.4257  8.60963e+20
15.543  8.35414e+20
15.6603  8.04058e+20
15.7776  7.66926e+20
15.8949  7.24634e+20
16.0122  6.78294e+20
16.1295  6.29134e+20
16.2468  5.78886e+20
16.3641  5.2924e+20
16.4815  4.81765e+20
16.5988  4.38038e+20
16.7161  3.99286e+20
16.8334  3.66314e+20
16.9507  3.39721e+20
17.068  3.19775e+20
17.1853  3.06409e+20
17.3026  2.99378e+20
17.4199  2.98125e+20
17.5372  3.01947e+20
17.6545  3.10089e+20
17.7718  3.21337e+20
17.8891  3.3453e+20
18.0064  3.48296e+20
18.1237  3.61187e+20
18.241  3.71678e+20
18.3583  3.78511e+20
18.4756  3.80666e+20
18.5929  3.77417e+20
18.7102  3.68541e+20
18.8275  3.54466e+20
18.9449  3.35773e+20
19.0622  3.13525e+20
19.1795  2.89025e+20
19.2968  2.63466e+20
19.4141  2.38076e+20
19.5314  2.13787e+20
19.6487  1.91395e+20
19.766  1.71431e+20
19.8833  1.54087e+20
20.0006  1.3956e+20
20.1179  1.27785e+20
20.2352  1.18646e+20
20.3525  1.11962e+20
20.4698  1.07521e+20
20.5871  1.05119e+20
20.7044  1.04513e+20
20.8217  1.05503e+20
20.939  1.07877e+20
21.0563  1.11423e+20
21.1736  1.15986e+20
21.291  1.21323e+20
21.4083  1.27195e+20
21.5256  1.33167e+20
21.6429  1.38834e+20
21.7602  1.43604e+20
21.8775  1.46907e+20
21.9948  1.48184e+20
22.1121  1.47073e+20
22.2294  1.43283e+20
22.3467  1.36926e+20
22.464  1.28219e+20
22.5813  1.17715e+20
22.6986  1.06067e+20
22.8159  9.39935e+19
22.9332  8.2146e+19
23.0505  7.1108e+19
23.1678  6.1246e+19
23.2851  5.27872e+19
23.4024  4.58281e+19
23.5198  4.02581e+19
23.6371  3.59751e+19
23.7544  3.2798e+19
23.8717  3.05338e+19
23.989  2.90379e+19
24.1063  2.8097e+19
24.2236  2.76057e+19
24.3409  2.74202e+19
24.4582  2.73936e+19
24.5755  2.74945e+19
24.6928  2.76031e+19
24.8101  2.76972e+19
24.9274  2.77478e+19
25.0447  2.77926e+19
25.162  2.78553e+19
25.2793  2.79979e+19
25.3966  2.8289e+19
25.5139  2.88446e+19
25.6312  2.97687e+19
25.7485  3.11617e+19
25.8658  3.30435e+19
25.9832  3.53916e+19
26.1005  3.80697e+19
26.2178  4.08508e+19
26.3351  4.33982e+19
26.4524  4.53556e+19
26.5697  4.63874e+19
26.687  4.62422e+19
26.8043  4.48399e+19
26.9216  4.22803e+19
27.0389  3.88514e+19
27.1562  3.50154e+19
27.2735  3.12785e+19
27.3908  2.81217e+19
27.5081  2.5939e+19
27.6254  2.49058e+19
27.7427  2.50379e+19
27.86  2.60962e+19
27.9773  2.77401e+19
28.0946  2.95492e+19
28.212  3.10964e+19
28.3293  3.20664e+19
28.4466  3.2223e+19
28.5639  3.15124e+19
28.6812  3.00313e+19
28.7985  2.79678e+19
28.9158  2.55856e+19
29.0331  2.32131e+19
29.1504  2.11385e+19
29.2677  1.96241e+19
29.385  1.88333e+19
29.5023  1.88359e+19
29.6196  1.95665e+19
29.7369  2.08674e+19
29.8542  2.24774e+19
29.9715  2.40686e+19
30.0888  2.53345e+19
30.2061  2.59811e+19
30.3234  2.58172e+19
30.4407  2.47824e+19
30.558  2.29227e+19
30.6754  2.04199e+19
30.7927  1.74875e+19
30.91  1.4419e+19
31.0273  1.14712e+19
31.1446  8.83654e+18
31.2619  6.65304e+18
31.3792  4.98784e+18
31.4965  3.85417e+18
31.6138  3.22373e+18
31.7311  3.05221e+18
31.8484  3.3015e+18
31.9657  3.92729e+18
32.083  4.8707e+18
32.2003  6.07292e+18
32.3176  7.45374e+18
32.4349  8.89539e+18
32.5522  1.02985e+19
32.6695  1.15335e+19
32.7868  1.24846e+19
32.9042  1.30644e+19
33.0215  1.32372e+19
33.1388  1.29807e+19
33.2561  1.23343e+19
33.3734  1.13519e+19
33.4907  1.01375e+19
33.608  8.8149e+18
33.7253  7.51164e+18
33.8426  6.34217e+18
33.9599  5.4139e+18
34.0772  4.78707e+18
34.1945  4.47545e+18
34.3118  4.43923e+18
34.4291  4.58891e+18
34.5464  4.81954e+18
34.6637  5.03937e+18
34.781  5.18349e+18
34.8983  5.26612e+18
35.0156  5.35244e+18
35.1329  5.55862e+18
35.2503  5.99809e+18
35.3676  6.74259e+18
35.4849  7.76132e+18
35.6022  8.92026e+18
35.7195  9.96253e+18
35.8368  1.0585e+19
35.9541  1.052e+19
36.0714  9.58581e+18
36.1887  7.83982e+18
36.306  5.53314e+18
36.4233  3.1543e+18
36.5406  1.32367e+18
36.6579  6.78347e+17
36.7752  1.71932e+18
36.8925  4.68525e+18
37.0098  9.48344e+18
37.1271  1.56529e+19
37.2444  2.24854e+19
37.3617  2.9098e+19
37.479  3.46269e+19
37.5964  3.84016e+19
37.7137  4.00701e+19
37.831  3.95669e+19
37.9483  3.72344e+19
38.0656  3.35839e+19
38.1829  2.92842e+19
38.3002  2.49388e+19
38.4175  2.10479e+19
38.5348  1.7915e+19
38.6521  1.56212e+19
38.7694  1.41153e+19
38.8867  1.3237e+19
39.004  1.27929e+19
39.1213  1.26155e+19
39.2386  1.25581e+19
39.3559  1.25116e+19
39.4732  1.23819e+19
39.5905  1.20841e+19
39.7078  1.15226e+19
39.8251  1.06272e+19
39.9425  9.36506e+18
40.0598  7.79696e+18
40.1771  6.10207e+18
40.2944  4.53034e+18
40.4117  3.3895e+18
40.529  2.98171e+18
40.6463  3.51489e+18
40.7636  5.04484e+18
40.8809  7.45003e+18
40.9982  1.04238e+19
41.1155  1.35378e+19
41.2328  1.63264e+19
41.3501  1.83701e+19
41.4674  1.93635e+19
41.5847  1.91758e+19
41.702  1.78673e+19
41.8193  1.56473e+19
41.9366  1.28343e+19
42.0539  9.79908e+18
42.1712  6.89801e+18
42.2885  4.43888e+18
42.4059  2.65723e+18
42.5232  1.68439e+18
42.6405  1.55448e+18
42.7578  2.19294e+18
42.8751  3.42158e+18
42.9924  4.98326e+18
43.1097  6.54088e+18
43.227  7.77928e+18
43.3443  8.41395e+18
43.4616  8.29147e+18
43.5789  7.43885e+18
43.6962  6.08034e+18
43.8135  4.58459e+18
43.9308  3.42334e+18
44.0481  3.03437e+18
44.1654  3.7112e+18
44.2827  5.51703e+18
44.4  8.22988e+18
44.5173  1.13797e+19
44.6347  1.43541e+19
44.752  1.65359e+19
44.8693  1.74406e+19
44.9866  1.68459e+19
45.1039  1.4908e+19
45.2212  1.20129e+19
45.3385  8.8013e+18
45.4558  5.95435e+18
45.5731  4.02356e+18
45.6904  3.33828e+18
45.8077  3.9214e+18
45.925  5.50427e+18
46.0423  7.6143e+18
46.1596  9.70137e+18
46.2769  1.12482e+19
46.3942  1.19445e+19
46.5115  1.16509e+19
46.6288  1.04919e+19
46.7461  8.7328e+18
46.8634  6.73395e+18
46.9808  4.83409e+18
47.0981  3.28685e+18
47.2154  2.21435e+18
47.3327  1.62832e+18
47.45  1.41831e+18
47.5673  1.44101e+18
47.6846  1.55799e+18
47.8019  1.67431e+18
47.9192  1.77689e+18
48.0365  1.94882e+18
48.1538  2.33647e+18
48.2711  3.12855e+18
48.3884  4.51187e+18
48.5057  6.61667e+18
48.623  9.49445e+18
48.7403  1.3046e+19
48.8576  1.70499e+19
48.9749  2.11649e+19
49.0922  2.49637e+19
49.2095  2.80008e+19
49.3269  2.99326e+19
49.4442  3.0514e+19
49.5615  2.97004e+19
49.6788  2.76468e+19
49.7961  2.47096e+19
49.9134  2.13138e+19
50.0307  1.79573e+19
50.148  1.50484e+19
50.2653  1.28435e+19
50.3826  1.14484e+19
50.4999  1.07632e+19
50.6172  1.05864e+19
50.7345  1.06338e+19
50.8518  1.06359e+19
