#S 1 spectral density
#N 2
#UFWHM 38.1241
#L  abscissas [um]  spectral density
-58.5938  2.18569e+20
-58.4764  2.32212e+20
-58.3591  2.47297e+20
-58.2418  2.62478e+20
-58.1245  2.76456e+20
-58.0072  2.87941e+20
-57.8899  2.95725e+20
-57.7726  2.99127e+20
-57.6553  2.97747e+20
-57.538  2.91736e+20
-57.4207  2.81703e+20
-57.3034  2.68638e+20
-57.1861  2.53709e+20
-57.0688  2.38212e+20
-56.9515  2.23268e+20
-56.8342  2.09882e+20
-56.7169  1.98832e+20
-56.5996  1.90543e+20
-56.4823  1.85378e+20
-56.365  1.8342e+20
-56.2477  1.84569e+20
-56.1303  1.88658e+20
-56.013  1.95364e+20
-55.8957  2.04136e+20
-55.7784  2.1434e+20
-55.6611  2.25234e+20
-55.5438  2.3606e+20
-55.4265  2.46088e+20
-55.3092  2.54742e+20
-55.1919  2.61645e+20
-55.0746  2.66644e+20
-54.9573  2.69847e+20
-54.84  2.71513e+20
-54.7227  2.71899e+20
-54.6054  2.71393e+20
-54.4881  2.70236e+20
-54.3708  2.68597e+20
-54.2535  2.66429e+20
-54.1362  2.6371e+20
-54.0189  2.60262e+20
-53.9016  2.55936e+20
-53.7842  2.50691e+20
-53.6669  2.44498e+20
-53.5496  2.37314e+20
-53.4323  2.29302e+20
-53.315  2.20579e+20
-53.1977  2.11434e+20
-53.0804  2.02169e+20
-52.9631  1.93105e+20
-52.8458  1.8459e+20
-52.7285  1.77056e+20
-52.6112  1.70851e+20
-52.4939  1.66313e+20
-52.3766  1.63749e+20
-52.2593  1.63304e+20
-52.142  1.65056e+20
-52.0247  1.68932e+20
-51.9074  1.74693e+20
-51.7901  1.8202e+20
-51.6728  1.90504e+20
-51.5555  1.99592e+20
-51.4381  2.08672e+20
-51.3208  2.17216e+20
-51.2035  2.24518e+20
-51.0862  2.30171e+20
-50.9689  2.33646e+20
-50.8516  2.34718e+20
-50.7343  2.33359e+20
-50.617  2.29738e+20
-50.4997  2.2419e+20
-50.3824  2.17275e+20
-50.2651  2.09587e+20
-50.1478  2.01858e+20
-50.0305  1.94642e+20
-49.9132  1.88525e+20
-49.7959  1.8378e+20
-49.6786  1.80499e+20
-49.5613  1.78755e+20
-49.444  1.78357e+20
-49.3267  1.78896e+20
-49.2094  1.80018e+20
-49.092  1.81328e+20
-48.9747  1.82352e+20
-48.8574  1.82739e+20
-48.7401  1.82266e+20
-48.6228  1.80755e+20
-48.5055  1.78321e+20
-48.3882  1.75074e+20
-48.2709  1.71355e+20
-48.1536  1.67494e+20
-48.0363  1.63922e+20
-47.919  1.61e+20
-47.8017  1.59052e+20
-47.6844  1.58278e+20
-47.5671  1.58882e+20
-47.4498  1.60807e+20
-47.3325  1.63981e+20
-47.2152  1.68232e+20
-47.0979  1.73219e+20
-46.9806  1.78554e+20
-46.8633  1.83767e+20
-46.7459  1.88192e+20
-46.6286  1.9124e+20
-46.5113  1.92279e+20
-46.394  1.90975e+20
-46.2767  1.86979e+20
-46.1594  1.80334e+20
-46.0421  1.71448e+20
-45.9248  1.60947e+20
-45.8075  1.49626e+20
-45.6902  1.38419e+20
-45.5729  1.28119e+20
-45.4556  1.19427e+20
-45.3383  1.12755e+20
-45.221  1.08283e+20
-45.1037  1.05968e+20
-44.9864  1.05606e+20
-44.8691  1.07061e+20
-44.7518  1.10153e+20
-44.6345  1.14776e+20
-44.5172  1.20838e+20
-44.3998  1.28196e+20
-44.2825  1.36595e+20
-44.1652  1.45648e+20
-44.0479  1.54751e+20
-43.9306  1.6316e+20
-43.8133  1.70156e+20
-43.696  1.75028e+20
-43.5787  1.77382e+20
-43.4614  1.77038e+20
-43.3441  1.74251e+20
-43.2268  1.69494e+20
-43.1095  1.63537e+20
-42.9922  1.57185e+20
-42.8749  1.51272e+20
-42.7576  1.46377e+20
-42.6403  1.4293e+20
-42.523  1.41088e+20
-42.4057  1.40783e+20
-42.2884  1.41783e+20
-42.171  1.4376e+20
-42.0537  1.46245e+20
-41.9364  1.48832e+20
-41.8191  1.5111e+20
-41.7018  1.52765e+20
-41.5845  1.53481e+20
-41.4672  1.53098e+20
-41.3499  1.51551e+20
-41.2326  1.48942e+20
-41.1153  1.45471e+20
-40.998  1.41488e+20
-40.8807  1.37411e+20
-40.7634  1.33736e+20
-40.6461  1.30977e+20
-40.5288  1.29595e+20
-40.4115  1.30017e+20
-40.2942  1.32548e+20
-40.1769  1.37465e+20
-40.0596  1.44892e+20
-39.9423  1.54808e+20
-39.825  1.67002e+20
-39.7076  1.81071e+20
-39.5903  1.96353e+20
-39.473  2.12018e+20
-39.3557  2.27014e+20
-39.2384  2.40261e+20
-39.1211  2.50803e+20
-39.0038  2.57763e+20
-38.8865  2.60767e+20
-38.7692  2.59772e+20
-38.6519  2.5519e+20
-38.5346  2.47862e+20
-38.4173  2.38901e+20
-38.3  2.29503e+20
-38.1827  2.20852e+20
-38.0654  2.13901e+20
-37.9481  2.09345e+20
-37.8308  2.07595e+20
-37.7135  2.08808e+20
-37.5962  2.12994e+20
-37.4789  2.2002e+20
-37.3615  2.29705e+20
-37.2442  2.41893e+20
-37.1269  2.56355e+20
-37.0096  2.72855e+20
-36.8923  2.90917e+20
-36.775  3.0995e+20
-36.6577  3.29212e+20
-36.5404  3.47848e+20
-36.4231  3.65013e+20
-36.3058  3.79874e+20
-36.1885  3.91934e+20
-36.0712  4.00872e+20
-35.9539  4.06801e+20
-35.8366  4.1004e+20
-35.7193  4.11144e+20
-35.602  4.10713e+20
-35.4847  4.09554e+20
-35.3674  4.08287e+20
-35.2501  4.07437e+20
-35.1328  4.07332e+20
-35.0154  4.0819e+20
-34.8981  4.10107e+20
-34.7808  4.1313e+20
-34.6635  4.17155e+20
-34.5462  4.22105e+20
-34.4289  4.2786e+20
-34.3116  4.34139e+20
-34.1943  4.40802e+20
-34.077  4.47633e+20
-33.9597  4.54335e+20
-33.8424  4.60797e+20
-33.7251  4.66932e+20
-33.6078  4.72756e+20
-33.4905  4.78422e+20
-33.3732  4.84143e+20
-33.2559  4.90209e+20
-33.1386  4.96881e+20
-33.0213  5.04465e+20
-32.904  5.1324e+20
-32.7867  5.23322e+20
-32.6693  5.34721e+20
-32.552  5.47352e+20
-32.4347  5.61151e+20
-32.3174  5.75938e+20
-32.2001  5.91362e+20
-32.0828  6.07202e+20
-31.9655  6.23103e+20
-31.8482  6.38782e+20
-31.7309  6.54079e+20
-31.6136  6.68815e+20
-31.4963  6.82957e+20
-31.379  6.96535e+20
-31.2617  7.09844e+20
-31.1444  7.23064e+20
-31.0271  7.36583e+20
-30.9098  7.506e+20
-30.7925  7.65525e+20
-30.6752  7.81514e+20
-30.5579  7.98769e+20
-30.4406  8.17189e+20
-30.3232  8.36565e+20
-30.2059  8.56964e+20
-30.0886  8.78e+20
-29.9713  8.99329e+20
-29.854  9.20714e+20
-29.7367  9.41859e+20
-29.6194  9.6227e+20
-29.5021  9.81792e+20
-29.3848  1.00021e+21
-29.2675  1.0173e+21
-29.1502  1.03299e+21
-29.0329  1.04729e+21
-28.9156  1.06029e+21
-28.7983  1.07226e+21
-28.681  1.08337e+21
-28.5637  1.09406e+21
-28.4464  1.10454e+21
-28.3291  1.11539e+21
-28.2118  1.127e+21
-28.0944  1.13974e+21
-27.9771  1.15405e+21
-27.8598  1.17018e+21
-27.7425  1.1887e+21
-27.6252  1.20962e+21
-27.5079  1.23305e+21
-27.3906  1.25899e+21
-27.2733  1.28714e+21
-27.156  1.31718e+21
-27.0387  1.34861e+21
-26.9214  1.38094e+21
-26.8041  1.41357e+21
-26.6868  1.44579e+21
-26.5695  1.47708e+21
-26.4522  1.50673e+21
-26.3349  1.53442e+21
-26.2176  1.55944e+21
-26.1003  1.58149e+21
-25.983  1.60015e+21
-25.8657  1.61521e+21
-25.7483  1.62656e+21
-25.631  1.63407e+21
-25.5137  1.63851e+21
-25.3964  1.63992e+21
-25.2791  1.63899e+21
-25.1618  1.63654e+21
-25.0445  1.63338e+21
-24.9272  1.63028e+21
-24.8099  1.62812e+21
-24.6926  1.62779e+21
-24.5753  1.63007e+21
-24.458  1.63563e+21
-24.3407  1.64519e+21
-24.2234  1.65922e+21
-24.1061  1.67837e+21
-23.9888  1.70267e+21
-23.8715  1.73249e+21
-23.7542  1.76755e+21
-23.6369  1.80777e+21
-23.5196  1.85245e+21
-23.4023  1.90091e+21
-23.2849  1.95227e+21
-23.1676  2.00534e+21
-23.0503  2.05916e+21
-22.933  2.11198e+21
-22.8157  2.16262e+21
-22.6984  2.20954e+21
-22.5811  2.25153e+21
-22.4638  2.28741e+21
-22.3465  2.31615e+21
-22.2292  2.33759e+21
-22.1119  2.35155e+21
-21.9946  2.35843e+21
-21.8773  2.35911e+21
-21.76  2.35461e+21
-21.6427  2.34678e+21
-21.5254  2.33703e+21
-21.4081  2.32711e+21
-21.2908  2.31857e+21
-21.1735  2.31288e+21
-21.0561  2.31143e+21
-20.9388  2.31524e+21
-20.8215  2.32568e+21
-20.7042  2.34291e+21
-20.5869  2.36763e+21
-20.4696  2.39981e+21
-20.3523  2.43922e+21
-20.235  2.48524e+21
-20.1177  2.53697e+21
-20.0004  2.59304e+21
-19.8831  2.65246e+21
-19.7658  2.71336e+21
-19.6485  2.7745e+21
-19.5312  2.83448e+21
-19.4139  2.89224e+21
-19.2966  2.94665e+21
-19.1793  2.9971e+21
-19.062  3.0429e+21
-18.9447  3.08373e+21
-18.8274  3.11922e+21
-18.71  3.14928e+21
-18.5927  3.17403e+21
-18.4754  3.19355e+21
-18.3581  3.20834e+21
-18.2408  3.21849e+21
-18.1235  3.2246e+21
-18.0062  3.22694e+21
-17.8889  3.22621e+21
-17.7716  3.22283e+21
-17.6543  3.21714e+21
-17.537  3.21004e+21
-17.4197  3.20207e+21
-17.3024  3.19417e+21
-17.1851  3.18722e+21
-17.0678  3.1825e+21
-16.9505  3.1815e+21
-16.8332  3.18567e+21
-16.7159  3.19635e+21
-16.5986  3.21463e+21
-16.4813  3.24139e+21
-16.364  3.27738e+21
-16.2466  3.32261e+21
-16.1293  3.37709e+21
-16.012  3.43944e+21
-15.8947  3.50878e+21
-15.7774  3.58328e+21
-15.6601  3.66072e+21
-15.5428  3.73893e+21
-15.4255  3.81519e+21
-15.3082  3.88686e+21
-15.1909  3.95203e+21
-15.0736  4.00791e+21
-14.9563  4.05336e+21
-14.839  4.08695e+21
-14.7217  4.10864e+21
-14.6044  4.11847e+21
-14.4871  4.11768e+21
-14.3698  4.10798e+21
-14.2525  4.09138e+21
-14.1352  4.07013e+21
-14.0178  4.04724e+21
-13.9005  4.02498e+21
-13.7832  4.00581e+21
-13.6659  3.99177e+21
-13.5486  3.98427e+21
-13.4313  3.98446e+21
-13.314  3.99275e+21
-13.1967  4.00913e+21
-13.0794  4.03343e+21
-12.9621  4.06436e+21
-12.8448  4.10129e+21
-12.7275  4.14267e+21
-12.6102  4.18738e+21
-12.4929  4.23403e+21
-12.3756  4.28144e+21
-12.2583  4.32872e+21
-12.141  4.37531e+21
-12.0237  4.42063e+21
-11.9064  4.46429e+21
-11.7891  4.50608e+21
-11.6718  4.54609e+21
-11.5544  4.58441e+21
-11.4371  4.62099e+21
-11.3198  4.65549e+21
-11.2025  4.68803e+21
-11.0852  4.71815e+21
-10.9679  4.74542e+21
-10.8506  4.76956e+21
-10.7333  4.78971e+21
-10.616  4.8052e+21
-10.4987  4.81619e+21
-10.3814  4.82183e+21
-10.2641  4.82243e+21
-10.1468  4.81821e+21
-10.0295  4.80998e+21
-9.91217  4.79877e+21
-9.79487  4.78585e+21
-9.67756  4.77322e+21
-9.56026  4.76246e+21
-9.44295  4.75526e+21
-9.32565  4.7539e+21
-9.20834  4.7596e+21
-9.09104  4.77367e+21
-8.97373  4.79689e+21
-8.85643  4.8294e+21
-8.73913  4.87101e+21
-8.62182  4.92087e+21
-8.50452  4.97764e+21
-8.38721  5.03976e+21
-8.26991  5.10481e+21
-8.1526  5.17063e+21
-8.03529  5.23467e+21
-7.91799  5.2947e+21
-7.80069  5.34837e+21
-7.68338  5.39366e+21
-7.56608  5.42918e+21
-7.44877  5.45421e+21
-7.33146  5.46813e+21
-7.21416  5.47121e+21
-7.09685  5.46417e+21
-6.97955  5.44813e+21
-6.86224  5.42496e+21
-6.74494  5.39606e+21
-6.62763  5.36361e+21
-6.51033  5.32958e+21
-6.39302  5.29603e+21
-6.27572  5.26466e+21
-6.15842  5.23741e+21
-6.04111  5.21554e+21
-5.92381  5.20037e+21
-5.8065  5.19298e+21
-5.68919  5.19396e+21
-5.57189  5.20383e+21
-5.45458  5.22291e+21
-5.33728  5.25083e+21
-5.21997  5.2875e+21
-5.10267  5.33203e+21
-4.98536  5.38385e+21
-4.86806  5.44134e+21
-4.75075  5.50312e+21
-4.63345  5.56771e+21
-4.51614  5.63278e+21
-4.39884  5.69651e+21
-4.28154  5.75636e+21
-4.16423  5.81017e+21
-4.04692  5.85602e+21
-3.92962  5.89202e+21
-3.81231  5.91674e+21
-3.69501  5.92938e+21
-3.5777  5.92936e+21
-3.4604  5.9169e+21
-3.34309  5.89268e+21
-3.22579  5.85814e+21
-3.10849  5.81486e+21
-2.99118  5.76525e+21
-2.87387  5.71162e+21
-2.75657  5.657e+21
-2.63926  5.60366e+21
-2.52196  5.55449e+21
-2.40465  5.51189e+21
-2.28735  5.47769e+21
-2.17005  5.4538e+21
-2.05274  5.4408e+21
-1.93544  5.43957e+21
-1.81813  5.45008e+21
-1.70083  5.47189e+21
-1.58352  5.50392e+21
-1.46622  5.54517e+21
-1.34891  5.59377e+21
-1.2316  5.648e+21
-1.1143  5.70582e+21
-0.996995  5.76518e+21
-0.87969  5.8239e+21
-0.762385  5.88007e+21
-0.64508  5.9316e+21
-0.527775  5.97708e+21
-0.41047  6.01494e+21
-0.293165  6.04431e+21
-0.17586  6.06419e+21
-0.058555  6.0741e+21
0.05875  6.07389e+21
0.176055  6.06349e+21
0.29336  6.04332e+21
0.410665  6.01364e+21
0.52797  5.97553e+21
0.645275  5.9299e+21
0.76258  5.87826e+21
0.879885  5.82222e+21
0.99719  5.76359e+21
1.1145  5.70452e+21
1.2318  5.64703e+21
1.3491  5.59309e+21
1.46641  5.54483e+21
1.58371  5.5041e+21
1.70102  5.47252e+21
1.81832  5.45121e+21
1.93563  5.4413e+21
2.05294  5.44287e+21
2.17024  5.45618e+21
2.28754  5.48069e+21
2.40485  5.51518e+21
2.52216  5.55834e+21
2.63946  5.60766e+21
2.75677  5.66129e+21
2.87407  5.71639e+21
2.99137  5.77018e+21
3.10868  5.82005e+21
3.22599  5.86336e+21
3.34329  5.89807e+21
3.4606  5.92236e+21
3.5779  5.93465e+21
3.69521  5.93464e+21
3.81251  5.92195e+21
3.92982  5.89704e+21
4.04712  5.86084e+21
4.16443  5.81476e+21
4.28173  5.76073e+21
4.39903  5.70067e+21
4.51634  5.63688e+21
4.63364  5.57171e+21
4.75095  5.50717e+21
4.86825  5.44538e+21
4.98556  5.38819e+21
5.10286  5.33668e+21
5.22017  5.29257e+21
5.33748  5.25641e+21
5.45478  5.22912e+21
5.57209  5.21081e+21
5.68939  5.20147e+21
5.8067  5.20133e+21
5.924  5.2093e+21
6.0413  5.22504e+21
6.15861  5.24733e+21
6.27591  5.27508e+21
6.39322  5.30688e+21
6.51052  5.3407e+21
6.62783  5.3748e+21
6.74514  5.40711e+21
6.86244  5.43589e+21
6.97975  5.45895e+21
7.09705  5.4747e+21
7.21436  5.48154e+21
7.33166  5.47798e+21
7.44897  5.4639e+21
7.56627  5.43871e+21
7.68358  5.40285e+21
7.80088  5.3574e+21
7.91819  5.30368e+21
8.03549  5.24376e+21
8.1528  5.17992e+21
8.2701  5.11407e+21
8.38741  5.04926e+21
8.50471  4.98749e+21
8.62202  4.93097e+21
8.73932  4.88136e+21
8.85662  4.84002e+21
8.97393  4.80777e+21
9.09123  4.78477e+21
9.20854  4.77084e+21
9.32584  4.76536e+21
9.44315  4.76682e+21
9.56045  4.77388e+21
9.67776  4.78477e+21
9.79506  4.79735e+21
9.91237  4.81021e+21
10.0297  4.82134e+21
10.147  4.82963e+21
10.2643  4.8338e+21
10.3816  4.83303e+21
10.4989  4.82739e+21
10.6162  4.81652e+21
10.7335  4.80081e+21
10.8508  4.78059e+21
10.9681  4.75664e+21
11.0854  4.72948e+21
11.2027  4.69949e+21
11.32  4.66692e+21
11.4373  4.63232e+21
11.5546  4.5959e+21
11.6719  4.55769e+21
11.7893  4.51776e+21
11.9066  4.47594e+21
12.0239  4.43233e+21
12.1412  4.38725e+21
12.2585  4.34079e+21
12.3758  4.29341e+21
12.4931  4.24613e+21
12.6104  4.19953e+21
12.7277  4.15506e+21
12.845  4.11393e+21
12.9623  4.07714e+21
13.0796  4.04634e+21
13.1969  4.02239e+21
13.3142  4.00618e+21
13.4315  3.99819e+21
13.5488  3.99833e+21
13.6661  4.00615e+21
13.7834  4.02041e+21
13.9007  4.03975e+21
14.018  4.06225e+21
14.1354  4.08532e+21
14.2527  4.10652e+21
14.37  4.12317e+21
14.4873  4.13279e+21
14.6046  4.13347e+21
14.7219  4.12333e+21
14.8392  4.10149e+21
14.9565  4.0675e+21
15.0738  4.02175e+21
15.1911  3.96546e+21
15.3084  3.90013e+21
15.4257  3.82805e+21
15.543  3.75151e+21
15.6603  3.67323e+21
15.7776  3.5957e+21
15.8949  3.5214e+21
16.0122  3.45209e+21
16.1295  3.38983e+21
16.2468  3.33578e+21
16.3641  3.29088e+21
16.4815  3.25534e+21
16.5988  3.2289e+21
16.7161  3.21102e+21
16.8334  3.20094e+21
16.9507  3.1972e+21
17.068  3.19841e+21
17.1853  3.20337e+21
17.3026  3.21037e+21
17.4199  3.21849e+21
17.5372  3.22659e+21
17.6545  3.23366e+21
17.7718  3.23915e+21
17.8891  3.24238e+21
18.0064  3.24288e+21
18.1237  3.24022e+21
18.241  3.23387e+21
18.3583  3.22345e+21
18.4756  3.20841e+21
18.5929  3.18854e+21
18.7102  3.16363e+21
18.8275  3.13335e+21
18.9449  3.09766e+21
19.0622  3.05665e+21
19.1795  3.01074e+21
19.2968  2.96018e+21
19.4141  2.90566e+21
19.5314  2.84784e+21
19.6487  2.78776e+21
19.766  2.72652e+21
19.8833  2.66555e+21
20.0006  2.60622e+21
20.1179  2.55009e+21
20.2352  2.49843e+21
20.3525  2.45241e+21
20.4698  2.41303e+21
20.5871  2.38099e+21
20.7044  2.35632e+21
20.8217  2.3392e+21
20.939  2.32908e+21
21.0563  2.32531e+21
21.1736  2.32698e+21
21.291  2.3327e+21
21.4083  2.34151e+21
21.5256  2.35159e+21
21.6429  2.36138e+21
21.7602  2.36928e+21
21.8775  2.37365e+21
21.9948  2.37286e+21
22.1121  2.36575e+21
22.2294  2.35162e+21
22.3467  2.32992e+21
22.464  2.30067e+21
22.5813  2.26445e+21
22.6986  2.22205e+21
22.8159  2.17469e+21
22.9332  2.12363e+21
23.0505  2.07044e+21
23.1678  2.01641e+21
23.2851  1.96308e+21
23.4024  1.91159e+21
23.5198  1.86299e+21
23.6371  1.81833e+21
23.7544  1.77814e+21
23.8717  1.74324e+21
23.989  1.71352e+21
24.1063  1.68938e+21
24.2236  1.67054e+21
24.3409  1.65671e+21
24.4582  1.64739e+21
24.5755  1.64201e+21
24.6928  1.63994e+21
24.8101  1.64052e+21
24.9274  1.64277e+21
25.0447  1.64593e+21
25.162  1.6491e+21
25.2793  1.65152e+21
25.3966  1.6523e+21
25.5139  1.6508e+21
25.6312  1.64635e+21
25.7485  1.63843e+21
25.8658  1.62698e+21
25.9832  1.61163e+21
26.1005  1.5929e+21
26.2178  1.5707e+21
26.3351  1.54551e+21
26.4524  1.51779e+21
26.5697  1.48797e+21
26.687  1.45664e+21
26.8043  1.42437e+21
26.9216  1.39176e+21
27.0389  1.35944e+21
27.1562  1.32792e+21
27.2735  1.29783e+21
27.3908  1.2696e+21
27.5081  1.24362e+21
27.6254  1.22009e+21
27.7427  1.19905e+21
27.86  1.18047e+21
27.9773  1.16416e+21
28.0946  1.14977e+21
28.212  1.13684e+21
28.3293  1.12513e+21
28.4466  1.1141e+21
28.5639  1.10351e+21
28.6812  1.09269e+21
28.7985  1.08147e+21
28.9158  1.06944e+21
29.0331  1.05638e+21
29.1504  1.04205e+21
29.2677  1.02627e+21
29.385  1.00913e+21
29.5023  9.90723e+20
29.6196  9.71133e+20
29.7369  9.50581e+20
29.8542  9.29328e+20
29.9715  9.078e+20
30.0888  8.86301e+20
30.2061  8.65183e+20
30.3234  8.4465e+20
30.4407  8.25e+20
30.558  8.06434e+20
30.6754  7.89049e+20
30.7927  7.72956e+20
30.91  7.57823e+20
31.0273  7.43655e+20
31.1446  7.30052e+20
31.2619  7.1666e+20
31.3792  7.03302e+20
31.4965  6.89615e+20
31.6138  6.75337e+20
31.7311  6.60572e+20
31.8484  6.45186e+20
31.9657  6.29433e+20
32.083  6.13395e+20
32.2003  5.97479e+20
32.3176  5.81965e+20
32.4349  5.67074e+20
32.5522  5.53153e+20
32.6695  5.40397e+20
32.7868  5.28904e+20
32.9042  5.18715e+20
33.0215  5.09839e+20
33.1388  5.02115e+20
33.2561  4.95362e+20
33.3734  4.8922e+20
33.4907  4.83439e+20
33.608  4.77688e+20
33.7253  4.71821e+20
33.8426  4.65658e+20
33.9599  4.59159e+20
34.0772  4.52426e+20
34.1945  4.45627e+20
34.3118  4.39006e+20
34.4291  4.3269e+20
34.5464  4.26955e+20
34.6637  4.21997e+20
34.781  4.17979e+20
34.8983  4.14992e+20
35.0156  4.13102e+20
35.1329  4.12241e+20
35.2503  4.12339e+20
35.3676  4.13219e+20
35.4849  4.14482e+20
35.6022  4.15554e+20
35.7195  4.15882e+20
35.8368  4.14706e+20
35.9541  4.11329e+20
36.0714  4.05243e+20
36.1887  3.96105e+20
36.306  3.83786e+20
36.4233  3.68699e+20
36.5406  3.51311e+20
36.6579  3.32461e+20
36.7752  3.12939e+20
36.8925  2.93707e+20
37.0098  2.75474e+20
37.1271  2.58832e+20
37.2444  2.44236e+20
37.3617  2.31958e+20
37.479  2.22218e+20
37.5964  2.15208e+20
37.7137  2.11053e+20
37.831  2.09915e+20
37.9483  2.11768e+20
38.0656  2.16448e+20
38.1829  2.23524e+20
38.3002  2.32265e+20
38.4175  2.41744e+20
38.5348  2.5073e+20
38.6521  2.58014e+20
38.7694  2.62524e+20
38.8867  2.63385e+20
39.004  2.60249e+20
39.1213  2.53056e+20
39.2386  2.42348e+20
39.3559  2.28863e+20
39.4732  2.13668e+20
39.5905  1.97847e+20
39.7078  1.8243e+20
39.8251  1.68233e+20
39.9425  1.55945e+20
40.0598  1.45973e+20
40.1771  1.38509e+20
40.2944  1.33545e+20
40.4117  1.30987e+20
40.529  1.30573e+20
40.6463  1.31934e+20
40.7636  1.34696e+20
40.8809  1.38353e+20
40.9982  1.42389e+20
41.1155  1.46354e+20
41.2328  1.49773e+20
41.3501  1.52337e+20
41.4674  1.53812e+20
41.5847  1.54141e+20
41.702  1.53377e+20
41.8193  1.51696e+20
41.9366  1.49372e+20
42.0539  1.46769e+20
42.1712  1.44275e+20
42.2885  1.42324e+20
42.4059  1.41323e+20
42.5232  1.41658e+20
42.6405  1.43522e+20
42.7578  1.47003e+20
42.8751  1.5191e+20
42.9924  1.57815e+20
43.1097  1.64132e+20
43.227  1.70037e+20
43.3443  1.74693e+20
43.4616  1.7739e+20
43.5789  1.77588e+20
43.6962  1.75135e+20
43.8135  1.70113e+20
43.9308  1.63027e+20
44.0481  1.54521e+20
44.1654  1.45348e+20
44.2827  1.3626e+20
44.4  1.27854e+20
44.5173  1.20491e+20
44.6347  1.14441e+20
44.752  1.09855e+20
44.8693  1.06795e+20
44.9866  1.0536e+20
45.1039  1.0575e+20
45.2212  1.08108e+20
45.3385  1.12624e+20
45.4558  1.19333e+20
45.5731  1.28057e+20
45.6904  1.38332e+20
45.8077  1.49547e+20
45.925  1.608e+20
46.0423  1.71241e+20
46.1596  1.80001e+20
46.2769  1.86509e+20
46.3942  1.90421e+20
46.5115  1.91636e+20
46.6288  1.90496e+20
46.7461  1.87379e+20
46.8634  1.82901e+20
46.9808  1.7772e+20
47.0981  1.72361e+20
47.2154  1.67401e+20
47.3327  1.63159e+20
47.45  1.60053e+20
47.5673  1.58179e+20
47.6846  1.57601e+20
47.8019  1.58389e+20
47.9192  1.60368e+20
48.0365  1.63304e+20
48.1538  1.66887e+20
48.2711  1.70701e+20
48.3884  1.744e+20
48.5057  1.77571e+20
48.623  1.79975e+20
48.7403  1.8141e+20
48.8576  1.818e+20
48.9749  1.81371e+20
49.0922  1.80333e+20
49.2095  1.79013e+20
49.3269  1.77872e+20
49.4442  1.77405e+20
49.5615  1.7786e+20
49.6788  1.7963e+20
49.7961  1.82948e+20
49.9134  1.87764e+20
50.0307  1.93959e+20
50.148  2.01189e+20
50.2653  2.08981e+20
50.3826  2.16643e+20
50.4999  2.23568e+20
50.6172  2.29068e+20
50.7345  2.32685e+20
50.8518  2.33953e+20
