#S 1 spectral density
#N 2
#UFWHM 13.4901
#L  abscissas [um]  spectral density
-58.5938  6.68751e+18
-58.4764  6.03447e+18
-58.3591  5.77008e+18
-58.2418  6.11597e+18
-58.1245  7.09935e+18
-58.0072  8.5357e+18
-57.8899  1.00686e+19
-57.7726  1.12958e+19
-57.6553  1.18753e+19
-57.538  1.16084e+19
-57.4207  1.04976e+19
-57.3034  8.73497e+18
-57.1861  6.64138e+18
-57.0688  4.57193e+18
-56.9515  2.85e+18
-56.8342  1.69003e+18
-56.7169  1.19383e+18
-56.5996  1.32539e+18
-56.4823  1.98903e+18
-56.365  3.03761e+18
-56.2477  4.3424e+18
-56.1303  5.77284e+18
-56.013  7.22641e+18
-55.8957  8.59546e+18
-55.7784  9.77554e+18
-55.6611  1.064e+19
-55.5438  1.10625e+19
-55.4265  1.09553e+19
-55.3092  1.02926e+19
-55.1919  9.14257e+18
-55.0746  7.63078e+18
-54.9573  6.00268e+18
-54.84  4.48118e+18
-54.7227  3.31408e+18
-54.6054  2.6636e+18
-54.4881  2.62689e+18
-54.3708  3.21042e+18
-54.2535  4.33684e+18
-54.1362  5.891e+18
-54.0189  7.72691e+18
-53.9016  9.71863e+18
-53.7842  1.17445e+19
-53.6669  1.37108e+19
-53.5496  1.55074e+19
-53.4323  1.70594e+19
-53.315  1.82639e+19
-53.1977  1.90442e+19
-53.0804  1.93504e+19
-52.9631  1.91534e+19
-52.8458  1.84778e+19
-52.7285  1.74075e+19
-52.6112  1.60449e+19
-52.4939  1.45231e+19
-52.3766  1.29745e+19
-52.2593  1.15221e+19
-52.142  1.02577e+19
-52.0247  9.24362e+18
-51.9074  8.51867e+18
-51.7901  8.08799e+18
-51.6728  7.93904e+18
-51.5555  8.02191e+18
-51.4381  8.27506e+18
-51.3208  8.59176e+18
-51.2035  8.89016e+18
-51.0862  9.07046e+18
-50.9689  9.11473e+18
-50.8516  9.06571e+18
-50.7343  9.03351e+18
-50.617  9.22244e+18
-50.4997  9.8624e+18
-50.3824  1.11544e+19
-50.2651  1.32515e+19
-50.1478  1.61081e+19
-50.0305  1.95894e+19
-49.9132  2.33373e+19
-49.7959  2.69195e+19
-49.6786  2.98674e+19
-49.5613  3.17602e+19
-49.444  3.23039e+19
-49.3267  3.14074e+19
-49.2094  2.91623e+19
-49.092  2.58599e+19
-48.9747  2.18758e+19
-48.8574  1.76762e+19
-48.7401  1.36588e+19
-48.6228  1.01557e+19
-48.5055  7.3592e+18
-48.3882  5.31958e+18
-48.2709  3.97641e+18
-48.1536  3.17717e+18
-48.0363  2.73682e+18
-47.919  2.47418e+18
-47.8017  2.26267e+18
-47.6844  2.05213e+18
-47.5671  1.87439e+18
-47.4498  1.84079e+18
-47.3325  2.09628e+18
-47.2152  2.79274e+18
-47.0979  4.00588e+18
-46.9806  5.71113e+18
-46.8633  7.7471e+18
-46.7459  9.84356e+18
-46.6286  1.1634e+19
-46.5113  1.27539e+19
-46.394  1.29461e+19
-46.2767  1.21107e+19
-46.1594  1.03876e+19
-46.0421  8.13231e+18
-45.9248  5.86704e+18
-45.8075  4.14553e+18
-45.6902  3.44205e+18
-45.5729  4.01515e+18
-45.4556  5.82349e+18
-45.3383  8.5367e+18
-45.221  1.15777e+19
-45.1037  1.42897e+19
-44.9864  1.60802e+19
-44.8691  1.65477e+19
-44.7518  1.56246e+19
-44.6345  1.35499e+19
-44.5172  1.08134e+19
-44.3998  8.04433e+18
-44.2825  5.83813e+18
-44.1652  4.63127e+18
-44.0479  4.57437e+18
-43.9306  5.56099e+18
-43.8133  7.21536e+18
-43.696  9.06728e+18
-43.5787  1.06232e+19
-43.4614  1.15002e+19
-43.3441  1.15017e+19
-43.2268  1.06596e+19
-43.1095  9.16171e+18
-42.9922  7.33788e+18
-42.8749  5.56597e+18
-42.7576  4.19388e+18
-42.6403  3.4756e+18
-42.523  3.58023e+18
-42.4057  4.53497e+18
-42.2884  6.26093e+18
-42.171  8.57738e+18
-42.0537  1.12282e+19
-41.9364  1.38926e+19
-41.8191  1.62271e+19
-41.7018  1.79163e+19
-41.5845  1.87092e+19
-41.4672  1.84706e+19
-41.3499  1.72212e+19
-41.2326  1.51506e+19
-41.1153  1.25802e+19
-40.998  9.92489e+18
-40.8807  7.60037e+18
-40.7634  5.94631e+18
-40.6461  5.15985e+18
-40.5288  5.24898e+18
-40.4115  6.0607e+18
-40.2942  7.31924e+18
-40.1769  8.68677e+18
-40.0596  9.86296e+18
-39.9423  1.06537e+19
-39.825  1.0992e+19
-39.7076  1.09209e+19
-39.5903  1.05923e+19
-39.473  1.01697e+19
-39.3557  9.8472e+18
-39.2384  9.7436e+18
-39.1211  9.9496e+18
-39.0038  1.05408e+19
-38.8865  1.15877e+19
-38.7692  1.31599e+19
-38.6519  1.53646e+19
-38.5346  1.82736e+19
-38.4173  2.18794e+19
-38.3  2.60616e+19
-38.1827  3.05065e+19
-38.0654  3.47518e+19
-37.9481  3.82257e+19
-37.8308  4.03311e+19
-37.7135  4.06013e+19
-37.5962  3.87701e+19
-37.4789  3.48981e+19
-37.3615  2.93737e+19
-37.2442  2.28542e+19
-37.1269  1.61866e+19
-37.0096  1.01812e+19
-36.8923  5.5522e+18
-36.775  2.71058e+18
-36.6577  1.72994e+18
-36.5404  2.35849e+18
-36.4231  4.10277e+18
-36.3058  6.33659e+18
-36.1885  8.46954e+18
-36.0712  1.00467e+19
-35.9539  1.08275e+19
-35.8366  1.07922e+19
-35.7193  1.00974e+19
-35.602  9.03567e+18
-35.4847  7.89607e+18
-35.3674  6.90461e+18
-35.2501  6.19285e+18
-35.1328  5.78264e+18
-35.0154  5.59646e+18
-34.8981  5.51638e+18
-34.7808  5.43534e+18
-34.6635  5.29362e+18
-34.5462  5.09671e+18
-34.4289  4.90138e+18
-34.3116  4.80294e+18
-34.1943  4.89445e+18
-34.077  5.25175e+18
-33.9597  5.89398e+18
-33.8424  6.79799e+18
-33.7251  7.86741e+18
-33.6078  9.00733e+18
-33.4905  1.00891e+19
-33.3732  1.09877e+19
-33.2559  1.16024e+19
-33.1386  1.18648e+19
-33.0213  1.17344e+19
-32.904  1.12238e+19
-32.7867  1.03704e+19
-32.6693  9.26633e+18
-32.552  8.00226e+18
-32.4347  6.72688e+18
-32.3174  5.56766e+18
-32.2001  4.63725e+18
-32.0828  4.02595e+18
-31.9655  3.7723e+18
-31.8482  3.91067e+18
-31.7309  4.42451e+18
-31.6136  5.28885e+18
-31.4963  6.48159e+18
-31.379  7.96941e+18
-31.2617  9.73469e+18
-31.1444  1.17307e+19
-31.0271  1.38693e+19
-30.9098  1.6054e+19
-30.7925  1.81183e+19
-30.6752  1.99036e+19
-30.5579  2.1246e+19
-30.4406  2.20099e+19
-30.3232  2.21502e+19
-30.2059  2.16943e+19
-30.0886  2.07839e+19
-29.9713  1.96272e+19
-29.854  1.84703e+19
-29.7367  1.75696e+19
-29.6194  1.71343e+19
-29.5021  1.7301e+19
-29.3848  1.81028e+19
-29.2675  1.94858e+19
-29.1502  2.13136e+19
-29.0329  2.34042e+19
-28.9156  2.55247e+19
-28.7983  2.74733e+19
-28.681  2.9056e+19
-28.5637  3.01506e+19
-28.4464  3.07015e+19
-28.3291  3.07503e+19
-28.2118  3.04116e+19
-28.0944  2.99389e+19
-27.9771  2.96106e+19
-27.8598  2.97323e+19
-27.7425  3.05926e+19
-27.6252  3.2313e+19
-27.5079  3.49615e+19
-27.3906  3.83621e+19
-27.2733  4.22115e+19
-27.156  4.60546e+19
-27.0387  4.93976e+19
-26.9214  5.17914e+19
-26.8041  5.29026e+19
-26.6868  5.25777e+19
-26.5695  5.08615e+19
-26.4522  4.79906e+19
-26.3349  4.4345e+19
-26.2176  4.03672e+19
-26.1003  3.64689e+19
-25.983  3.2982e+19
-25.8657  3.01179e+19
-25.7483  2.79452e+19
-25.631  2.64439e+19
-25.5137  2.54897e+19
-25.3964  2.49235e+19
-25.2791  2.4589e+19
-25.1618  2.43524e+19
-25.0445  2.41076e+19
-24.9272  2.38322e+19
-24.8099  2.34808e+19
-24.6926  2.31136e+19
-24.5753  2.28091e+19
-24.458  2.26357e+19
-24.3407  2.27261e+19
-24.2234  2.3205e+19
-24.1061  2.4192e+19
-23.9888  2.584e+19
-23.8715  2.82423e+19
-23.7542  3.15552e+19
-23.6369  3.58736e+19
-23.5196  4.13045e+19
-23.4023  4.79752e+19
-23.2849  5.59184e+19
-23.1676  6.51336e+19
-23.0503  7.55501e+19
-22.933  8.68718e+19
-22.8157  9.8786e+19
-22.6984  1.10696e+20
-22.5811  1.22011e+20
-22.4638  1.3215e+20
-22.3465  1.40455e+20
-22.2292  1.46583e+20
-22.1119  1.5031e+20
-21.9946  1.51644e+20
-21.8773  1.50777e+20
-21.76  1.48145e+20
-21.6427  1.44213e+20
-21.5254  1.39438e+20
-21.4081  1.34296e+20
-21.2908  1.29134e+20
-21.1735  1.24195e+20
-21.0561  1.19715e+20
-20.9388  1.15813e+20
-20.8215  1.12754e+20
-20.7042  1.10707e+20
-20.5869  1.09997e+20
-20.4696  1.10893e+20
-20.3523  1.13788e+20
-20.235  1.18953e+20
-20.1177  1.26773e+20
-20.0004  1.37413e+20
-19.8831  1.51005e+20
-19.7658  1.67562e+20
-19.6485  1.86959e+20
-19.5312  2.08812e+20
-19.4139  2.3257e+20
-19.2966  2.574e+20
-19.1793  2.82276e+20
-19.062  3.05957e+20
-18.9447  3.27224e+20
-18.8274  3.44936e+20
-18.71  3.5804e+20
-18.5927  3.65987e+20
-18.4754  3.68661e+20
-18.3581  3.66305e+20
-18.2408  3.59804e+20
-18.1235  3.50201e+20
-18.0062  3.38944e+20
-17.8889  3.27547e+20
-17.7716  3.17318e+20
-17.6543  3.09809e+20
-17.537  3.05987e+20
-17.4197  3.06897e+20
-17.3024  3.13134e+20
-17.1851  3.25251e+20
-17.0678  3.43477e+20
-16.9505  3.67789e+20
-16.8332  3.97955e+20
-16.7159  4.3346e+20
-16.5986  4.73559e+20
-16.4813  5.17174e+20
-16.364  5.63071e+20
-16.2466  6.09777e+20
-16.1293  6.55605e+20
-16.012  6.99378e+20
-15.8947  7.39672e+20
-15.7774  7.75537e+20
-15.6601  8.06402e+20
-15.5428  8.32148e+20
-15.4255  8.53116e+20
-15.3082  8.70327e+20
-15.1909  8.84684e+20
-15.0736  8.98118e+20
-14.9563  9.12197e+20
-14.839  9.28761e+20
-14.7217  9.49245e+20
-14.6044  9.7515e+20
-14.4871  1.00712e+21
-14.3698  1.04563e+21
-14.2525  1.09031e+21
-14.1352  1.14041e+21
-14.0178  1.19452e+21
-13.9005  1.25119e+21
-13.7832  1.30869e+21
-13.6659  1.36523e+21
-13.5486  1.41944e+21
-13.4313  1.47033e+21
-13.314  1.51713e+21
-13.1967  1.55969e+21
-13.0794  1.59841e+21
-12.9621  1.63396e+21
-12.8448  1.66734e+21
-12.7275  1.69977e+21
-12.6102  1.73252e+21
-12.4929  1.76668e+21
-12.3756  1.80331e+21
-12.2583  1.84321e+21
-12.141  1.88697e+21
-12.0237  1.93506e+21
-11.9064  1.98773e+21
-11.7891  2.0453e+21
-11.6718  2.10808e+21
-11.5544  2.17645e+21
-11.4371  2.25067e+21
-11.3198  2.33158e+21
-11.2025  2.41964e+21
-11.0852  2.51564e+21
-10.9679  2.62023e+21
-10.8506  2.73378e+21
-10.7333  2.85648e+21
-10.616  2.98819e+21
-10.4987  3.12849e+21
-10.3814  3.27611e+21
-10.2641  3.42954e+21
-10.1468  3.58742e+21
-10.0295  3.74731e+21
-9.91217  3.90706e+21
-9.79487  4.06484e+21
-9.67756  4.2187e+21
-9.56026  4.36695e+21
-9.44295  4.50841e+21
-9.32565  4.64291e+21
-9.20834  4.77016e+21
-9.09104  4.89106e+21
-8.97373  5.00651e+21
-8.85643  5.11858e+21
-8.73913  5.22878e+21
-8.62182  5.33935e+21
-8.50452  5.45217e+21
-8.38721  5.56932e+21
-8.26991  5.69184e+21
-8.1526  5.82112e+21
-8.03529  5.95734e+21
-7.91799  6.10095e+21
-7.80069  6.2517e+21
-7.68338  6.40894e+21
-7.56608  6.57259e+21
-7.44877  6.74224e+21
-7.33146  6.9174e+21
-7.21416  7.09796e+21
-7.09685  7.28393e+21
-6.97955  7.4751e+21
-6.86224  7.67133e+21
-6.74494  7.87217e+21
-6.62763  8.07631e+21
-6.51033  8.28274e+21
-6.39302  8.48956e+21
-6.27572  8.6946e+21
-6.15842  8.89566e+21
-6.04111  9.09014e+21
-5.92381  9.27561e+21
-5.8065  9.45057e+21
-5.68919  9.61343e+21
-5.57189  9.76379e+21
-5.45458  9.90204e+21
-5.33728  1.00298e+22
-5.21997  1.01486e+22
-5.10267  1.02622e+22
-4.98536  1.03734e+22
-4.86806  1.04858e+22
-4.75075  1.06029e+22
-4.63345  1.07275e+22
-4.51614  1.08617e+22
-4.39884  1.10066e+22
-4.28154  1.11621e+22
-4.16423  1.13276e+22
-4.04692  1.15e+22
-3.92962  1.1677e+22
-3.81231  1.18551e+22
-3.69501  1.20303e+22
-3.5777  1.21992e+22
-3.4604  1.23579e+22
-3.34309  1.25037e+22
-3.22579  1.26345e+22
-3.10849  1.27498e+22
-2.99118  1.28493e+22
-2.87387  1.29347e+22
-2.75657  1.30083e+22
-2.63926  1.30736e+22
-2.52196  1.31346e+22
-2.40465  1.31956e+22
-2.28735  1.32604e+22
-2.17005  1.33338e+22
-2.05274  1.34189e+22
-1.93544  1.35177e+22
-1.81813  1.36322e+22
-1.70083  1.37623e+22
-1.58352  1.39072e+22
-1.46622  1.4065e+22
-1.34891  1.42325e+22
-1.2316  1.44065e+22
-1.1143  1.45823e+22
-0.996995  1.47559e+22
-0.87969  1.49229e+22
-0.762385  1.50781e+22
-0.64508  1.52186e+22
-0.527775  1.53406e+22
-0.41047  1.54411e+22
-0.293165  1.55179e+22
-0.17586  1.55697e+22
-0.058555  1.55953e+22
0.05875  1.55941e+22
0.176055  1.55663e+22
0.29336  1.55123e+22
0.410665  1.54333e+22
0.52797  1.53306e+22
0.645275  1.52067e+22
0.76258  1.50644e+22
0.879885  1.49075e+22
0.99719  1.47394e+22
1.1145  1.45647e+22
1.2318  1.43878e+22
1.3491  1.42131e+22
1.46641  1.40448e+22
1.58371  1.38865e+22
1.70102  1.37412e+22
1.81832  1.36106e+22
1.93563  1.3496e+22
2.05294  1.33968e+22
2.17024  1.33118e+22
2.28754  1.32386e+22
2.40485  1.31732e+22
2.52216  1.31123e+22
2.63946  1.30513e+22
2.75677  1.29858e+22
2.87407  1.29121e+22
2.99137  1.28265e+22
3.10868  1.27266e+22
3.22599  1.26111e+22
3.34329  1.24798e+22
3.4606  1.23337e+22
3.5779  1.21745e+22
3.69521  1.20053e+22
3.81251  1.18296e+22
3.92982  1.16507e+22
4.04712  1.14729e+22
4.16443  1.12998e+22
4.28173  1.11339e+22
4.39903  1.09775e+22
4.51634  1.08321e+22
4.63364  1.06973e+22
4.75095  1.05722e+22
4.86825  1.04545e+22
4.98556  1.03417e+22
5.10286  1.02304e+22
5.22017  1.01163e+22
5.33748  9.99716e+21
5.45478  9.86936e+21
5.57209  9.7309e+21
5.68939  9.58021e+21
5.8067  9.41705e+21
5.924  9.2418e+21
6.0413  9.05608e+21
6.15861  8.86139e+21
6.27591  8.66002e+21
6.39322  8.45476e+21
6.51052  8.24772e+21
6.62783  8.04105e+21
6.74514  7.83665e+21
6.86244  7.63599e+21
6.97975  7.43974e+21
7.09705  7.24879e+21
7.21436  7.06316e+21
7.33166  6.88276e+21
7.44897  6.70825e+21
7.56627  6.53928e+21
7.68358  6.37619e+21
7.80088  6.21943e+21
7.91819  6.06926e+21
8.03549  5.92626e+21
8.1528  5.79055e+21
8.2701  5.6616e+21
8.38741  5.53924e+21
8.50471  5.42219e+21
8.62202  5.30946e+21
8.73932  5.19871e+21
8.85662  5.0884e+21
8.97393  4.97642e+21
9.09123  4.86075e+21
9.20854  4.73993e+21
9.32584  4.61278e+21
9.44315  4.47857e+21
9.56045  4.33729e+21
9.67776  4.18965e+21
9.79506  4.03644e+21
9.91237  3.87942e+21
10.0297  3.72048e+21
10.147  3.56168e+21
10.2643  3.40497e+21
10.3816  3.25254e+21
10.4989  3.10603e+21
10.6162  2.96688e+21
10.7335  2.83608e+21
10.8508  2.71435e+21
10.9681  2.60167e+21
11.0854  2.49807e+21
11.2027  2.40287e+21
11.32  2.31554e+21
11.4373  2.23542e+21
11.5546  2.16177e+21
11.6719  2.09401e+21
11.7893  2.03194e+21
11.9066  1.97494e+21
12.0239  1.92269e+21
12.1412  1.87524e+21
12.2585  1.83188e+21
12.3758  1.79248e+21
12.4931  1.75621e+21
12.6104  1.72239e+21
12.7277  1.6899e+21
12.845  1.65761e+21
12.9623  1.62433e+21
13.0796  1.58901e+21
13.1969  1.55028e+21
13.3142  1.50787e+21
13.4315  1.46116e+21
13.5488  1.41034e+21
13.6661  1.35619e+21
13.7834  1.29974e+21
13.9007  1.24244e+21
14.018  1.1859e+21
14.1354  1.13199e+21
14.2527  1.0822e+21
14.37  1.03778e+21
14.4873  9.99534e+20
14.6046  9.67685e+20
14.7219  9.41957e+20
14.8392  9.2154e+20
14.9565  9.05055e+20
15.0738  8.91071e+20
15.1911  8.77659e+20
15.3084  8.63246e+20
15.4257  8.46159e+20
15.543  8.25265e+20
15.6603  7.99672e+20
15.7776  7.6899e+20
15.8949  7.33373e+20
16.0122  6.93473e+20
16.1295  6.50091e+20
16.2468  6.046e+20
16.3641  5.58418e+20
16.4815  5.12959e+20
16.5988  4.69761e+20
16.7161  4.30101e+20
16.8334  3.94939e+20
16.9507  3.65089e+20
17.068  3.41077e+20
17.1853  3.23119e+20
17.3026  3.11244e+20
17.4199  3.05145e+20
17.5372  3.04353e+20
17.6545  3.0829e+20
17.7718  3.1588e+20
17.8891  3.26047e+20
18.0064  3.37467e+20
18.1237  3.48694e+20
18.241  3.58161e+20
18.3583  3.64552e+20
18.4756  3.66748e+20
18.5929  3.63928e+20
18.7102  3.55748e+20
18.8275  3.42529e+20
18.9449  3.24757e+20
19.0622  3.03422e+20
19.1795  2.79773e+20
19.2968  2.5499e+20
19.4141  2.30317e+20
19.5314  2.06725e+20
19.6487  1.85067e+20
19.766  1.65935e+20
19.8833  1.49578e+20
20.0006  1.36234e+20
20.1179  1.2584e+20
20.2352  1.1826e+20
20.3525  1.13248e+20
20.4698  1.10506e+20
20.5871  1.09722e+20
20.7044  1.1055e+20
20.8217  1.12684e+20
20.939  1.15837e+20
21.0563  1.19752e+20
21.1736  1.24279e+20
21.291  1.2922e+20
21.4083  1.34415e+20
21.5256  1.39529e+20
21.6429  1.44271e+20
21.7602  1.48168e+20
21.8775  1.50736e+20
21.9948  1.5149e+20
22.1121  1.50091e+20
22.2294  1.46248e+20
22.3467  1.40027e+20
22.464  1.31585e+20
22.5813  1.2139e+20
22.6986  1.10008e+20
22.8159  9.80794e+19
22.9332  8.61925e+19
23.0505  7.48935e+19
23.1678  6.45329e+19
23.2851  5.53543e+19
23.4024  4.74913e+19
23.5198  4.08903e+19
23.6371  3.55154e+19
23.7544  3.12569e+19
23.8717  2.79923e+19
23.989  2.56315e+19
24.1063  2.40065e+19
24.2236  2.30332e+19
24.3409  2.25728e+19
24.4582  2.24655e+19
24.5755  2.26423e+19
24.6928  2.29426e+19
24.8101  2.32924e+19
24.9274  2.36124e+19
25.0447  2.3893e+19
25.162  2.41325e+19
25.2793  2.43794e+19
25.3966  2.47194e+19
25.5139  2.52998e+19
25.6312  2.62814e+19
25.7485  2.78307e+19
25.8658  3.00429e+19
25.9832  3.29605e+19
26.1005  3.6501e+19
26.2178  4.04534e+19
26.3351  4.44612e+19
26.4524  4.8114e+19
26.5697  5.09769e+19
26.687  5.26672e+19
26.8043  5.29598e+19
26.9216  5.18003e+19
27.0389  4.9342e+19
27.1562  4.59493e+19
27.2735  4.20757e+19
27.3908  3.82112e+19
27.5081  3.48198e+19
27.6254  3.21959e+19
27.7427  3.05165e+19
27.86  2.97222e+19
27.9773  2.9646e+19
28.0946  3.00176e+19
28.212  3.05129e+19
28.3293  3.08603e+19
28.4466  3.08107e+19
28.5639  3.02351e+19
28.6812  2.9113e+19
28.7985  2.74964e+19
28.9158  2.55073e+19
29.0331  2.33528e+19
29.1504  2.12413e+19
29.2677  1.93997e+19
29.385  1.80159e+19
29.5023  1.72251e+19
29.6196  1.70716e+19
29.7369  1.75182e+19
29.8542  1.84299e+19
29.9715  1.95868e+19
30.0888  2.07485e+19
30.2061  2.16549e+19
30.3234  2.2096e+19
30.4407  2.195e+19
30.558  2.11733e+19
30.6754  1.98352e+19
30.7927  1.80352e+19
30.91  1.59606e+19
31.0273  1.3785e+19
31.1446  1.16462e+19
31.2619  9.65925e+18
31.3792  7.9016e+18
31.4965  6.42123e+18
31.6138  5.24519e+18
31.7311  4.39341e+18
31.8484  3.90118e+18
31.9657  3.78862e+18
32.083  4.05325e+18
32.2003  4.68197e+18
32.3176  5.62469e+18
32.4349  6.78164e+18
32.5522  8.0543e+18
32.6695  9.30648e+18
32.7868  1.04044e+19
32.9042  1.12353e+19
33.0215  1.1733e+19
33.1388  1.18399e+19
33.2561  1.15664e+19
33.3734  1.0934e+19
33.4907  1.00263e+19
33.608  8.94683e+18
33.7253  7.81451e+18
33.8426  6.74826e+18
33.9599  5.86024e+18
34.0772  5.22766e+18
34.1945  4.88062e+18
34.3118  4.79641e+18
34.4291  4.90131e+18
34.5464  5.10005e+18
34.6637  5.30404e+18
34.781  5.44783e+18
34.8983  5.53743e+18
35.0156  5.63216e+18
35.1329  5.84106e+18
35.2503  6.27334e+18
35.3676  7.00245e+18
35.4849  8.00129e+18
35.6022  9.14702e+18
35.7195  1.01947e+19
35.8368  1.08553e+19
35.9541  1.08576e+19
36.0714  1.00287e+19
36.1887  8.4183e+18
36.306  6.25661e+18
36.4233  4.01471e+18
36.5406  2.29513e+18
36.6579  1.71756e+18
36.7752  2.77267e+18
36.8925  5.69998e+18
37.0098  1.04185e+19
37.1271  1.6491e+19
37.2444  2.32309e+19
37.3617  2.97864e+19
37.479  3.5316e+19
37.5964  3.91568e+19
37.7137  4.09462e+19
37.831  4.05929e+19
37.9483  3.84066e+19
38.0656  3.48394e+19
38.1829  3.05186e+19
38.3002  2.60027e+19
38.4175  2.17733e+19
38.5348  1.81377e+19
38.6521  1.52124e+19
38.7694  1.30096e+19
38.8867  1.14476e+19
39.004  1.04279e+19
39.1213  9.86757e+18
39.2386  9.69091e+18
39.3559  9.82277e+18
39.4732  1.01671e+19
39.5905  1.05958e+19
39.7078  1.09346e+19
39.8251  1.10071e+19
39.9425  1.06637e+19
40.0598  9.85124e+18
40.1771  8.66279e+18
40.2944  7.29423e+18
40.4117  6.03917e+18
40.529  5.2343e+18
40.6463  5.15909e+18
40.7636  5.96368e+18
40.8809  7.63108e+18
40.9982  9.96371e+18
41.1155  1.26122e+19
41.2328  1.51633e+19
41.3501  1.72082e+19
41.4674  1.84237e+19
41.5847  1.86275e+19
41.702  1.78075e+19
41.8193  1.61025e+19
41.9366  1.37621e+19
42.0539  1.11124e+19
42.1712  8.48662e+18
42.2885  6.19709e+18
42.4059  4.50515e+18
42.5232  3.58235e+18
42.6405  3.50409e+18
42.7578  4.23699e+18
42.8751  5.61794e+18
42.9924  7.38919e+18
43.1097  9.18986e+18
43.227  1.06713e+19
43.3443  1.14941e+19
43.4616  1.14624e+19
43.5789  1.05618e+19
43.6962  9.0052e+18
43.8135  7.15856e+18
43.9308  5.52485e+18
44.0481  4.57998e+18
44.1654  4.6715e+18
44.2827  5.91536e+18
44.4  8.13786e+18
44.5173  1.09038e+19
44.6347  1.36176e+19
44.752  1.56578e+19
44.8693  1.65321e+19
44.9866  1.5994e+19
45.1039  1.41708e+19
45.2212  1.14285e+19
45.3385  8.38618e+18
45.4558  5.71405e+18
45.5731  3.96133e+18
45.6904  3.45886e+18
45.8077  4.22976e+18
45.925  6.00479e+18
46.0423  8.30687e+18
46.1596  1.05734e+19
46.2769  1.22748e+19
46.3942  1.30858e+19
46.5115  1.28496e+19
46.6288  1.16876e+19
46.7461  9.86107e+18
46.8634  7.74381e+18
46.9808  5.69496e+18
47.0981  3.98845e+18
47.2154  2.77387e+18
47.3327  2.08409e+18
47.45  1.82606e+18
47.5673  1.85879e+18
47.6846  2.03816e+18
47.8019  2.25213e+18
47.9192  2.46686e+18
48.0365  2.74183e+18
48.1538  3.20387e+18
48.2711  4.03167e+18
48.3884  5.41316e+18
48.5057  7.49162e+18
48.623  1.03422e+19
48.7403  1.38911e+19
48.8576  1.79485e+19
48.9749  2.21895e+19
49.0922  2.61898e+19
49.2095  2.94911e+19
49.3269  3.17246e+19
49.4442  3.25914e+19
49.5615  3.19964e+19
49.6788  3.00382e+19
49.7961  2.70321e+19
49.9134  2.33771e+19
50.0307  1.95774e+19
50.148  1.60743e+19
50.2653  1.31869e+19
50.3826  1.11026e+19
50.4999  9.81033e+18
50.6172  9.19328e+18
50.7345  9.03077e+18
50.8518  9.088e+18
