#S 1 spectral density
#N 2
#UFWHM 11.7305
#L  abscissas [um]  spectral density
-58.5938  2.64208e+19
-58.4764  3.06638e+19
-58.3591  3.37156e+19
-58.2418  3.52013e+19
-58.1245  3.49087e+19
-58.0072  3.28058e+19
-57.8899  2.91332e+19
-57.7726  2.43311e+19
-57.6553  1.9039e+19
-57.538  1.40154e+19
-57.4207  1.00454e+19
-57.3034  7.8045e+18
-57.1861  7.75451e+18
-57.0688  1.00525e+19
-56.9515  1.45202e+19
-56.8342  2.06899e+19
-56.7169  2.7858e+19
-56.5996  3.52018e+19
-56.4823  4.19528e+19
-56.365  4.74813e+19
-56.2477  5.13016e+19
-56.1303  5.32489e+19
-56.013  5.33222e+19
-55.8957  5.17035e+19
-55.7784  4.86664e+19
-55.6611  4.45536e+19
-55.5438  3.97607e+19
-55.4265  3.46672e+19
-55.3092  2.96437e+19
-55.1919  2.50993e+19
-55.0746  2.13661e+19
-54.9573  1.87034e+19
-54.84  1.7258e+19
-54.7227  1.69629e+19
-54.6054  1.76088e+19
-54.4881  1.87951e+19
-54.3708  2.00407e+19
-54.2535  2.08418e+19
-54.1362  2.08374e+19
-54.0189  1.98659e+19
-53.9016  1.80182e+19
-53.7842  1.56466e+19
-53.6669  1.32854e+19
-53.5496  1.15355e+19
-53.4323  1.09285e+19
-53.315  1.18137e+19
-53.1977  1.4262e+19
-53.0804  1.80713e+19
-52.9631  2.27964e+19
-52.8458  2.78216e+19
-52.7285  3.2512e+19
-52.6112  3.62842e+19
-52.4939  3.87932e+19
-52.3766  3.9864e+19
-52.2593  3.95896e+19
-52.142  3.82394e+19
-52.0247  3.62171e+19
-51.9074  3.39667e+19
-51.7901  3.18999e+19
-51.6728  3.03157e+19
-51.5555  2.93856e+19
-51.4381  2.91272e+19
-51.3208  2.94345e+19
-51.2035  3.00878e+19
-51.0862  3.07982e+19
-50.9689  3.13012e+19
-50.8516  3.13553e+19
-50.7343  3.07267e+19
-50.617  2.93355e+19
-50.4997  2.71783e+19
-50.3824  2.42989e+19
-50.2651  2.08904e+19
-50.1478  1.71579e+19
-50.0305  1.34211e+19
-49.9132  9.92484e+18
-49.7959  6.9931e+18
-49.6786  4.88451e+18
-49.5613  3.79031e+18
-49.444  3.79668e+18
-49.3267  4.87762e+18
-49.2094  6.86867e+18
-49.092  9.5057e+18
-48.9747  1.24613e+19
-48.8574  1.53964e+19
-48.7401  1.80409e+19
-48.6228  2.02283e+19
-48.5055  2.19638e+19
-48.3882  2.33956e+19
-48.2709  2.47574e+19
-48.1536  2.63227e+19
-48.0363  2.82845e+19
-47.919  3.06988e+19
-47.8017  3.34363e+19
-47.6844  3.61825e+19
-47.5671  3.85149e+19
-47.4498  3.99919e+19
-47.3325  4.02606e+19
-47.2152  3.91801e+19
-47.0979  3.68607e+19
-46.9806  3.36499e+19
-46.8633  3.01051e+19
-46.7459  2.68208e+19
-46.6286  2.44162e+19
-46.5113  2.33135e+19
-46.394  2.37538e+19
-46.2767  2.56685e+19
-46.1594  2.88477e+19
-46.0421  3.29113e+19
-45.9248  3.74049e+19
-45.8075  4.18882e+19
-45.6902  4.59848e+19
-45.5729  4.93993e+19
-45.4556  5.1965e+19
-45.3383  5.35183e+19
-45.221  5.40596e+19
-45.1037  5.35436e+19
-44.9864  5.20249e+19
-44.8691  4.96565e+19
-44.7518  4.66016e+19
-44.6345  4.30841e+19
-44.5172  3.94189e+19
-44.3998  3.58627e+19
-44.2825  3.26591e+19
-44.1652  2.99077e+19
-44.0479  2.76572e+19
-43.9306  2.58014e+19
-43.8133  2.41981e+19
-43.696  2.26531e+19
-43.5787  2.09644e+19
-43.4614  1.90249e+19
-43.3441  1.68079e+19
-43.2268  1.44026e+19
-43.1095  1.20042e+19
-42.9922  9.83228e+18
-42.8749  8.14975e+18
-42.7576  7.18882e+18
-42.6403  7.10654e+18
-42.523  7.95413e+18
-42.4057  9.6846e+18
-42.2884  1.2103e+19
-42.171  1.49175e+19
-42.0537  1.77828e+19
-41.9364  2.02835e+19
-41.8191  2.20598e+19
-41.7018  2.28333e+19
-41.5845  2.2481e+19
-41.4672  2.10708e+19
-41.3499  1.88956e+19
-41.2326  1.6424e+19
-41.1153  1.426e+19
-40.998  1.30512e+19
-40.8807  1.33691e+19
-40.7634  1.56033e+19
-40.6461  1.9917e+19
-40.5288  2.61829e+19
-40.4115  3.40126e+19
-40.2942  4.27668e+19
-40.1769  5.16884e+19
-40.0596  6.00495e+19
-39.9423  6.71038e+19
-39.825  7.22764e+19
-39.7076  7.52353e+19
-39.5903  7.58432e+19
-39.473  7.41625e+19
-39.3557  7.04003e+19
-39.2384  6.49215e+19
-39.1211  5.81504e+19
-39.0038  5.05578e+19
-38.8865  4.26311e+19
-38.7692  3.48344e+19
-38.6519  2.75687e+19
-38.5346  2.11732e+19
-38.4173  1.58755e+19
-38.3  1.17939e+19
-38.1827  8.95286e+18
-38.0654  7.23205e+18
-37.9481  6.44943e+18
-37.8308  6.35052e+18
-37.7135  6.66088e+18
-37.5962  7.13292e+18
-37.4789  7.57326e+18
-37.3615  7.83869e+18
-37.2442  7.91402e+18
-37.1269  7.81183e+18
-37.0096  7.64712e+18
-36.8923  7.53963e+18
-36.775  7.63806e+18
-36.6577  8.0887e+18
-36.5404  9.03538e+18
-36.4231  1.05738e+19
-36.3058  1.27793e+19
-36.1885  1.56924e+19
-36.0712  1.92909e+19
-35.9539  2.35156e+19
-35.8366  2.8228e+19
-35.7193  3.32042e+19
-35.602  3.8201e+19
-35.4847  4.29093e+19
-35.3674  4.7028e+19
-35.2501  5.02943e+19
-35.1328  5.25273e+19
-35.0154  5.36843e+19
-34.8981  5.38368e+19
-34.7808  5.31782e+19
-34.6635  5.20383e+19
-34.5462  5.07347e+19
-34.4289  4.96444e+19
-34.3116  4.89958e+19
-34.1943  4.8983e+19
-34.077  4.9604e+19
-33.9597  5.07733e+19
-33.8424  5.22355e+19
-33.7251  5.37432e+19
-33.6078  5.49507e+19
-33.4905  5.5548e+19
-33.3732  5.53045e+19
-33.2559  5.40653e+19
-33.1386  5.1746e+19
-33.0213  4.84166e+19
-32.904  4.42533e+19
-32.7867  3.95173e+19
-32.6693  3.4556e+19
-32.552  2.97522e+19
-32.4347  2.54781e+19
-32.3174  2.20886e+19
-32.2001  1.98202e+19
-32.0828  1.88136e+19
-31.9655  1.90975e+19
-31.8482  2.05566e+19
-31.7309  2.30147e+19
-31.6136  2.62455e+19
-31.4963  2.99972e+19
-31.379  3.40455e+19
-31.2617  3.81657e+19
-31.1444  4.21815e+19
-31.0271  4.59237e+19
-30.9098  4.92356e+19
-30.7925  5.19464e+19
-30.6752  5.3935e+19
-30.5579  5.51128e+19
-30.4406  5.55466e+19
-30.3232  5.54109e+19
-30.2059  5.49951e+19
-30.0886  5.47085e+19
-29.9713  5.49774e+19
-29.854  5.62556e+19
-29.7367  5.87107e+19
-29.6194  6.24236e+19
-29.5021  6.71511e+19
-29.3848  7.24756e+19
-29.2675  7.78035e+19
-29.1502  8.25515e+19
-29.0329  8.61361e+19
-28.9156  8.82701e+19
-28.7983  8.88039e+19
-28.681  8.78866e+19
-28.5637  8.58182e+19
-28.4464  8.29788e+19
-28.3291  7.97698e+19
-28.2118  7.64619e+19
-28.0944  7.31683e+19
-27.9771  6.98313e+19
-27.8598  6.63205e+19
-27.7425  6.23714e+19
-27.6252  5.78142e+19
-27.5079  5.25271e+19
-27.3906  4.65591e+19
-27.2733  4.004e+19
-27.156  3.3323e+19
-27.0387  2.67291e+19
-26.9214  2.06524e+19
-26.8041  1.54071e+19
-26.6868  1.12502e+19
-26.5695  8.31116e+18
-26.4522  6.618e+18
-26.3349  6.10356e+18
-26.2176  6.6569e+18
-26.1003  8.15653e+18
-25.983  1.0506e+19
-25.8657  1.36406e+19
-25.7483  1.75294e+19
-25.631  2.21573e+19
-25.5137  2.75138e+19
-25.3964  3.35474e+19
-25.2791  4.01126e+19
-25.1618  4.70207e+19
-25.0445  5.39819e+19
-24.9272  6.06649e+19
-24.8099  6.67913e+19
-24.6926  7.20847e+19
-24.5753  7.63343e+19
-24.458  7.95749e+19
-24.3407  8.18362e+19
-24.2234  8.32852e+19
-24.1061  8.41768e+19
-23.9888  8.47446e+19
-23.8715  8.52405e+19
-23.7542  8.58052e+19
-23.6369  8.65841e+19
-23.5196  8.76299e+19
-23.4023  8.88791e+19
-23.2849  9.03108e+19
-23.1676  9.17529e+19
-23.0503  9.29814e+19
-22.933  9.37469e+19
-22.8157  9.36329e+19
-22.6984  9.23763e+19
-22.5811  8.96724e+19
-22.4638  8.53195e+19
-22.3465  7.9471e+19
-22.2292  7.23568e+19
-22.1119  6.46101e+19
-21.9946  5.70613e+19
-21.8773  5.06738e+19
-21.76  4.64225e+19
-21.6427  4.50722e+19
-21.5254  4.71742e+19
-21.4081  5.28507e+19
-21.2908  6.191e+19
-21.1735  7.38018e+19
-21.0561  8.77562e+19
-20.9388  1.02924e+20
-20.8215  1.18485e+20
-20.7042  1.3374e+20
-20.5869  1.4816e+20
-20.4696  1.61451e+20
-20.3523  1.73456e+20
-20.235  1.84147e+20
-20.1177  1.9355e+20
-20.0004  2.01756e+20
-19.8831  2.08971e+20
-19.7658  2.15196e+20
-19.6485  2.20606e+20
-19.5312  2.2527e+20
-19.4139  2.29303e+20
-19.2966  2.32714e+20
-19.1793  2.35434e+20
-19.062  2.37408e+20
-18.9447  2.38496e+20
-18.8274  2.3851e+20
-18.71  2.37435e+20
-18.5927  2.35267e+20
-18.4754  2.32105e+20
-18.3581  2.2844e+20
-18.2408  2.24608e+20
-18.1235  2.21369e+20
-18.0062  2.1923e+20
-17.8889  2.18809e+20
-17.7716  2.2062e+20
-17.6543  2.24659e+20
-17.537  2.3104e+20
-17.4197  2.39335e+20
-17.3024  2.4899e+20
-17.1851  2.59239e+20
-17.0678  2.69254e+20
-16.9505  2.78193e+20
-16.8332  2.85411e+20
-16.7159  2.90317e+20
-16.5986  2.92777e+20
-16.4813  2.92939e+20
-16.364  2.91388e+20
-16.2466  2.89071e+20
-16.1293  2.87369e+20
-16.012  2.87655e+20
-15.8947  2.91533e+20
-15.7774  3.00305e+20
-15.6601  3.14988e+20
-15.5428  3.36034e+20
-15.4255  3.63424e+20
-15.3082  3.96256e+20
-15.1909  4.3321e+20
-15.0736  4.72393e+20
-14.9563  5.11807e+20
-14.839  5.49294e+20
-14.7217  5.83164e+20
-14.6044  6.12011e+20
-14.4871  6.34999e+20
-14.3698  6.52136e+20
-14.2525  6.64057e+20
-14.1352  6.7194e+20
-14.0178  6.77138e+20
-13.9005  6.81309e+20
-13.7832  6.86021e+20
-13.6659  6.92534e+20
-13.5486  7.01777e+20
-13.4313  7.14342e+20
-13.314  7.30295e+20
-13.1967  7.49494e+20
-13.0794  7.71466e+20
-12.9621  7.95817e+20
-12.8448  8.21936e+20
-12.7275  8.49633e+20
-12.6102  8.78284e+20
-12.4929  9.07833e+20
-12.3756  9.38118e+20
-12.2583  9.68816e+20
-12.141  9.99844e+20
-12.0237  1.03114e+21
-11.9064  1.06249e+21
-11.7891  1.09358e+21
-11.6718  1.1243e+21
-11.5544  1.15417e+21
-11.4371  1.18271e+21
-11.3198  1.2097e+21
-11.2025  1.23453e+21
-11.0852  1.25686e+21
-10.9679  1.27656e+21
-10.8506  1.29356e+21
-10.7333  1.30847e+21
-10.616  1.32232e+21
-10.4987  1.33655e+21
-10.3814  1.35334e+21
-10.2641  1.37524e+21
-10.1468  1.40531e+21
-10.0295  1.44642e+21
-9.91217  1.50172e+21
-9.79487  1.57375e+21
-9.67756  1.66449e+21
-9.56026  1.77517e+21
-9.44295  1.90582e+21
-9.32565  2.05592e+21
-9.20834  2.2237e+21
-9.09104  2.4069e+21
-8.97373  2.60229e+21
-8.85643  2.8068e+21
-8.73913  3.01718e+21
-8.62182  3.23009e+21
-8.50452  3.44266e+21
-8.38721  3.65292e+21
-8.26991  3.85903e+21
-8.1526  4.0602e+21
-8.03529  4.25592e+21
-7.91799  4.44656e+21
-7.80069  4.633e+21
-7.68338  4.81602e+21
-7.56608  4.99706e+21
-7.44877  5.17782e+21
-7.33146  5.3595e+21
-7.21416  5.54355e+21
-7.09685  5.73108e+21
-6.97955  5.92304e+21
-6.86224  6.11988e+21
-6.74494  6.32162e+21
-6.62763  6.52812e+21
-6.51033  6.73828e+21
-6.39302  6.95098e+21
-6.27572  7.16425e+21
-6.15842  7.37583e+21
-6.04111  7.58274e+21
-5.92381  7.78169e+21
-5.8065  7.96906e+21
-5.68919  8.14099e+21
-5.57189  8.29438e+21
-5.45458  8.42631e+21
-5.33728  8.53464e+21
-5.21997  8.61845e+21
-5.10267  8.67834e+21
-4.98536  8.71637e+21
-4.86806  8.73552e+21
-4.75075  8.74074e+21
-4.63345  8.73792e+21
-4.51614  8.73332e+21
-4.39884  8.734e+21
-4.28154  8.74721e+21
-4.16423  8.78011e+21
-4.04692  8.8384e+21
-3.92962  8.92779e+21
-3.81231  9.05269e+21
-3.69501  9.21577e+21
-3.5777  9.41871e+21
-3.4604  9.66102e+21
-3.34309  9.9406e+21
-3.22579  1.02537e+22
-3.10849  1.05956e+22
-2.99118  1.09597e+22
-2.87387  1.13393e+22
-2.75657  1.17268e+22
-2.63926  1.21151e+22
-2.52196  1.24966e+22
-2.40465  1.28655e+22
-2.28735  1.32163e+22
-2.17005  1.35444e+22
-2.05274  1.38471e+22
-1.93544  1.41216e+22
-1.81813  1.43674e+22
-1.70083  1.45841e+22
-1.58352  1.47729e+22
-1.46622  1.49348e+22
-1.34891  1.50716e+22
-1.2316  1.51861e+22
-1.1143  1.52805e+22
-0.996995  1.53576e+22
-0.87969  1.54195e+22
-0.762385  1.54684e+22
-0.64508  1.55067e+22
-0.527775  1.55361e+22
-0.41047  1.5558e+22
-0.293165  1.55735e+22
-0.17586  1.55838e+22
-0.058555  1.55893e+22
0.05875  1.55904e+22
0.176055  1.55867e+22
0.29336  1.55786e+22
0.410665  1.55648e+22
0.52797  1.55447e+22
0.645275  1.55171e+22
0.76258  1.54805e+22
0.879885  1.54329e+22
0.99719  1.53726e+22
1.1145  1.52971e+22
1.2318  1.5204e+22
1.3491  1.50904e+22
1.46641  1.49545e+22
1.58371  1.47936e+22
1.70102  1.46059e+22
1.81832  1.43898e+22
1.93563  1.41448e+22
2.05294  1.38708e+22
2.17024  1.3569e+22
2.28754  1.32413e+22
2.40485  1.28907e+22
2.52216  1.2522e+22
2.63946  1.21404e+22
2.75677  1.17524e+22
2.87407  1.13647e+22
2.99137  1.09851e+22
3.10868  1.06208e+22
3.22599  1.0279e+22
3.34329  9.96581e+21
3.4606  9.68612e+21
3.5779  9.44405e+21
3.69521  9.24139e+21
3.81251  9.07826e+21
3.92982  8.95362e+21
4.04712  8.86453e+21
4.16443  8.80664e+21
4.28173  8.77438e+21
4.39903  8.76136e+21
4.51634  8.76084e+21
4.63364  8.76572e+21
4.75095  8.76871e+21
4.86825  8.76337e+21
4.98556  8.74371e+21
5.10286  8.70524e+21
5.22017  8.64413e+21
5.33748  8.55938e+21
5.45478  8.4497e+21
5.57209  8.31642e+21
5.68939  8.16171e+21
5.8067  7.98806e+21
5.924  7.79937e+21
6.0413  7.59952e+21
6.15861  7.39182e+21
6.27591  7.17964e+21
6.39322  6.96612e+21
6.51052  6.75335e+21
6.62783  6.54334e+21
6.74514  6.33719e+21
6.86244  6.13593e+21
6.97975  5.93963e+21
7.09705  5.74848e+21
7.21436  5.56173e+21
7.33166  5.3781e+21
7.44897  5.19697e+21
7.56627  5.01665e+21
7.68358  4.83564e+21
7.80088  4.65254e+21
7.91819  4.46596e+21
8.03549  4.27486e+21
8.1528  4.07857e+21
8.2701  3.87659e+21
8.38741  3.66956e+21
8.50471  3.45829e+21
8.62202  3.24478e+21
8.73932  3.03093e+21
8.85662  2.81954e+21
8.97393  2.61405e+21
9.09123  2.41784e+21
9.20854  2.23388e+21
9.32584  2.06539e+21
9.44315  1.91473e+21
9.56045  1.7835e+21
9.67776  1.6725e+21
9.79506  1.58135e+21
9.91237  1.50918e+21
10.0297  1.45363e+21
10.147  1.41228e+21
10.2643  1.38205e+21
10.3816  1.36006e+21
10.4989  1.34312e+21
10.6162  1.32883e+21
10.7335  1.31481e+21
10.8508  1.2997e+21
10.9681  1.2825e+21
11.0854  1.26273e+21
11.2027  1.24021e+21
11.32  1.21522e+21
11.4373  1.1881e+21
11.5546  1.15925e+21
11.6719  1.1292e+21
11.7893  1.0983e+21
11.9066  1.06687e+21
12.0239  1.03538e+21
12.1412  1.00395e+21
12.2585  9.72714e+20
12.3758  9.41911e+20
12.4931  9.11628e+20
12.6104  8.82086e+20
12.7277  8.5338e+20
12.845  8.25651e+20
12.9623  7.99533e+20
13.0796  7.75204e+20
13.1969  7.53157e+20
13.3142  7.33995e+20
13.4315  7.18035e+20
13.5488  7.05359e+20
13.6661  6.95976e+20
13.7834  6.89339e+20
13.9007  6.84385e+20
14.018  6.79904e+20
14.1354  6.74499e+20
14.2527  6.66385e+20
14.37  6.54081e+20
14.4873  6.36709e+20
14.6046  6.13483e+20
14.7219  5.84553e+20
14.8392  5.50637e+20
14.9565  5.13127e+20
15.0738  4.73835e+20
15.1911  4.3475e+20
15.3084  3.98043e+20
15.4257  3.65509e+20
15.543  3.38423e+20
15.6603  3.17578e+20
15.7776  3.03072e+20
15.8949  2.94441e+20
16.0122  2.90605e+20
16.1295  2.90291e+20
16.2468  2.91947e+20
16.3641  2.9409e+20
16.4815  2.95442e+20
16.5988  2.95057e+20
16.7161  2.92361e+20
16.8334  2.87181e+20
16.9507  2.79763e+20
17.068  2.70587e+20
17.1853  2.60349e+20
17.3026  2.49936e+20
17.4199  2.40196e+20
17.5372  2.3192e+20
17.6545  2.2551e+20
17.7718  2.21434e+20
17.8891  2.1977e+20
18.0064  2.20226e+20
18.1237  2.2238e+20
18.241  2.25755e+20
18.3583  2.29632e+20
18.4756  2.33366e+20
18.5929  2.36521e+20
18.7102  2.38769e+20
18.8275  2.39828e+20
18.9449  2.39781e+20
19.0622  2.38694e+20
19.1795  2.36671e+20
19.2968  2.3393e+20
19.4141  2.30501e+20
19.5314  2.26467e+20
19.6487  2.21825e+20
19.766  2.16403e+20
19.8833  2.10211e+20
20.0006  2.03034e+20
20.1179  1.94796e+20
20.2352  1.85312e+20
20.3525  1.74568e+20
20.4698  1.6249e+20
20.5871  1.49072e+20
20.7044  1.34448e+20
20.8217  1.18996e+20
20.939  1.03229e+20
21.0563  8.7888e+19
21.1736  7.37846e+19
21.291  6.18089e+19
21.4083  5.27194e+19
21.5256  4.70771e+19
21.6429  4.50591e+19
21.7602  4.65181e+19
21.8775  5.09089e+19
21.9948  5.74083e+19
22.1121  6.50135e+19
22.2294  7.27994e+19
22.3467  7.99277e+19
22.464  8.57584e+19
22.5813  9.00416e+19
22.6986  9.26854e+19
22.8159  9.38391e+19
22.9332  9.38664e+19
23.0505  9.30509e+19
23.1678  9.17611e+19
23.2851  9.03093e+19
23.4024  8.88486e+19
23.5198  8.75855e+19
23.6371  8.65704e+19
23.7544  8.58202e+19
23.8717  8.52856e+19
23.989  8.48277e+19
24.1063  8.43208e+19
24.2236  8.34673e+19
24.3409  8.20302e+19
24.4582  7.98168e+19
24.5755  7.65752e+19
24.6928  7.2299e+19
24.8101  6.70086e+19
24.9274  6.08709e+19
25.0447  5.41457e+19
25.162  4.71573e+19
25.2793  4.02369e+19
25.3966  3.36398e+19
25.5139  2.76063e+19
25.6312  2.22453e+19
25.7485  1.76025e+19
25.8658  1.37073e+19
25.9832  1.05791e+19
26.1005  8.22532e+18
26.2178  6.72339e+18
26.3351  6.17641e+18
26.4524  6.70188e+18
26.5697  8.40251e+18
26.687  1.13406e+19
26.8043  1.54788e+19
26.9216  2.06958e+19
27.0389  2.67584e+19
27.1562  3.33297e+19
27.2735  4.00577e+19
27.3908  4.65544e+19
27.5081  5.25634e+19
27.6254  5.79051e+19
27.7427  6.25384e+19
27.86  6.65783e+19
27.9773  7.02359e+19
28.0946  7.36917e+19
28.212  7.70967e+19
28.3293  8.04819e+19
28.4466  8.36911e+19
28.5639  8.64756e+19
28.6812  8.84554e+19
28.7985  8.92388e+19
28.9158  8.85331e+19
29.0331  8.62247e+19
29.1504  8.2495e+19
29.2677  7.76501e+19
29.385  7.22843e+19
29.5023  6.69621e+19
29.6196  6.22936e+19
29.7369  5.8684e+19
29.8542  5.63311e+19
29.9715  5.51997e+19
30.0888  5.49996e+19
30.2061  5.5362e+19
30.3234  5.58077e+19
30.4407  5.59443e+19
30.558  5.54754e+19
30.6754  5.42184e+19
30.7927  5.21914e+19
30.91  4.94223e+19
31.0273  4.60618e+19
31.1446  4.22502e+19
31.2619  3.82109e+19
31.3792  3.40576e+19
31.4965  3.00152e+19
31.6138  2.62906e+19
31.7311  2.30988e+19
31.8484  2.06782e+19
31.9657  1.92681e+19
32.083  1.90418e+19
32.2003  2.00866e+19
32.3176  2.23843e+19
32.4349  2.57962e+19
32.5522  3.00597e+19
32.6695  3.48419e+19
32.7868  3.97685e+19
32.9042  4.44461e+19
33.0215  4.8536e+19
33.1388  5.17959e+19
33.2561  5.40379e+19
33.3734  5.52335e+19
33.4907  5.54006e+19
33.608  5.47481e+19
33.7253  5.3534e+19
33.8426  5.20157e+19
33.9599  5.05636e+19
34.0772  4.94332e+19
34.1945  4.88565e+19
34.3118  4.89417e+19
34.4291  4.96549e+19
34.5464  5.08212e+19
34.6637  5.21558e+19
34.781  5.33637e+19
34.8983  5.40248e+19
35.0156  5.38558e+19
35.1329  5.26729e+19
35.2503  5.03843e+19
35.3676  4.70575e+19
35.4849  4.28771e+19
35.6022  3.81019e+19
35.7195  3.30637e+19
35.8368  2.80458e+19
35.9541  2.33309e+19
36.0714  1.91136e+19
36.1887  1.55389e+19
36.306  1.26642e+19
36.4233  1.04974e+19
36.5406  8.99636e+18
36.6579  8.09345e+18
36.7752  7.65906e+18
36.8925  7.57899e+18
37.0098  7.69688e+18
37.1271  7.87014e+18
37.2444  7.96073e+18
37.3617  7.87433e+18
37.479  7.58477e+18
37.5964  7.12853e+18
37.7137  6.62768e+18
37.831  6.29245e+18
37.9483  6.37394e+18
38.0656  7.14667e+18
38.1829  8.87412e+18
38.3002  1.17472e+19
38.4175  1.58651e+19
38.5348  2.12196e+19
38.6521  2.76671e+19
38.7694  3.49803e+19
38.8867  4.28059e+19
39.004  5.07232e+19
39.1213  5.82603e+19
39.2386  6.49353e+19
39.3559  7.03047e+19
39.4732  7.39338e+19
39.5905  7.54943e+19
39.7078  7.47577e+19
39.8251  7.16733e+19
39.9425  6.64152e+19
40.0598  5.93728e+19
40.1771  5.10714e+19
40.2944  4.21997e+19
40.4117  3.35739e+19
40.529  2.58983e+19
40.6463  1.97674e+19
40.7636  1.55927e+19
40.8809  1.34702e+19
40.9982  1.32497e+19
41.1155  1.45127e+19
41.2328  1.66858e+19
41.3501  1.91346e+19
41.4674  2.12566e+19
41.5847  2.25958e+19
41.702  2.28708e+19
41.8193  2.20309e+19
41.9366  2.01941e+19
42.0539  1.76537e+19
42.1712  1.47723e+19
42.2885  1.19528e+19
42.4059  9.56012e+18
42.5232  7.87232e+18
42.6405  7.07708e+18
42.7578  7.21602e+18
42.8751  8.22884e+18
42.9924  9.95943e+18
43.1097  1.21792e+19
43.227  1.46092e+19
43.3443  1.70346e+19
43.4616  1.92649e+19
43.5789  2.12094e+19
43.6962  2.28985e+19
43.8135  2.44599e+19
43.9308  2.60561e+19
44.0481  2.79118e+19
44.1654  3.0172e+19
44.2827  3.29402e+19
44.4  3.62004e+19
44.5173  3.97809e+19
44.6347  4.34654e+19
44.752  4.69832e+19
44.8693  5.00313e+19
44.9866  5.24002e+19
45.1039  5.38403e+19
45.2212  5.42995e+19
45.3385  5.36912e+19
45.4558  5.20165e+19
45.5731  4.93525e+19
45.6904  4.58312e+19
45.8077  4.16442e+19
45.925  3.71011e+19
46.0423  3.25842e+19
46.1596  2.85314e+19
46.2769  2.54025e+19
46.3942  2.35931e+19
46.5115  2.32918e+19
46.6288  2.45343e+19
46.7461  2.70657e+19
46.8634  3.04442e+19
46.9808  3.40699e+19
47.0981  3.72955e+19
47.2154  3.95899e+19
47.3327  4.05923e+19
47.45  4.02341e+19
47.5673  3.86597e+19
47.6846  3.62286e+19
47.8019  3.33979e+19
47.9192  3.05971e+19
48.0365  2.81365e+19
48.1538  2.61417e+19
48.2711  2.45576e+19
48.3884  2.31732e+19
48.5057  2.17406e+19
48.623  1.99863e+19
48.7403  1.7783e+19
48.8576  1.51455e+19
48.9749  1.22237e+19
49.0922  9.29516e+18
49.2095  6.7001e+18
49.3269  4.75984e+18
49.4442  3.73195e+18
49.5615  3.77503e+18
49.6788  4.90794e+18
49.7961  7.04611e+18
49.9134  9.97647e+18
50.0307  1.34646e+19
50.148  1.72107e+19
50.2653  2.09083e+19
50.3826  2.42907e+19
50.4999  2.71335e+19
50.6172  2.92797e+19
50.7345  3.06485e+19
50.8518  3.12597e+19
