#S 1 spectral density
#N 2
#UFWHM 27.0975
#L  abscissas [um]  spectral density
-58.5938  5.3388e+19
-58.4764  5.70494e+19
-58.3591  6.07344e+19
-58.2418  6.42685e+19
-58.1245  6.73804e+19
-58.0072  6.97173e+19
-57.8899  7.10302e+19
-57.7726  7.10721e+19
-57.6553  6.98454e+19
-57.538  6.75077e+19
-57.4207  6.44073e+19
-57.3034  6.09759e+19
-57.1861  5.76689e+19
-57.0688  5.48549e+19
-56.9515  5.27696e+19
-56.8342  5.1472e+19
-56.7169  5.08889e+19
-56.5996  5.08887e+19
-56.4823  5.13193e+19
-56.365  5.20919e+19
-56.2477  5.32215e+19
-56.1303  5.47497e+19
-56.013  5.67681e+19
-55.8957  5.93438e+19
-55.7784  6.24594e+19
-55.6611  6.59849e+19
-55.5438  6.96974e+19
-55.4265  7.33944e+19
-55.3092  7.68096e+19
-55.1919  7.97751e+19
-55.0746  8.22644e+19
-54.9573  8.42978e+19
-54.84  8.60269e+19
-54.7227  8.76032e+19
-54.6054  8.91713e+19
-54.4881  9.0814e+19
-54.3708  9.24826e+19
-54.2535  9.41412e+19
-54.1362  9.56646e+19
-54.0189  9.69035e+19
-53.9016  9.77434e+19
-53.7842  9.81326e+19
-53.6669  9.79994e+19
-53.5496  9.74359e+19
-53.4323  9.64425e+19
-53.315  9.51353e+19
-53.1977  9.35703e+19
-53.0804  9.18266e+19
-52.9631  9.00506e+19
-52.8458  8.84067e+19
-52.7285  8.7085e+19
-52.6112  8.63453e+19
-52.4939  8.6461e+19
-52.3766  8.77154e+19
-52.2593  9.03448e+19
-52.142  9.45499e+19
-52.0247  1.00406e+20
-51.9074  1.07945e+20
-51.7901  1.17017e+20
-51.6728  1.27332e+20
-51.5555  1.3852e+20
-51.4381  1.5004e+20
-51.3208  1.61252e+20
-51.2035  1.71528e+20
-51.0862  1.80144e+20
-50.9689  1.8662e+20
-50.8516  1.90554e+20
-50.7343  1.91785e+20
-50.617  1.90403e+20
-50.4997  1.86855e+20
-50.3824  1.8177e+20
-50.2651  1.7601e+20
-50.1478  1.70417e+20
-50.0305  1.65955e+20
-49.9132  1.63299e+20
-49.7959  1.63079e+20
-49.6786  1.65659e+20
-49.5613  1.70958e+20
-49.444  1.78772e+20
-49.3267  1.88655e+20
-49.2094  1.99882e+20
-49.092  2.11594e+20
-48.9747  2.22983e+20
-48.8574  2.33227e+20
-48.7401  2.41648e+20
-48.6228  2.47799e+20
-48.5055  2.51313e+20
-48.3882  2.52309e+20
-48.2709  2.51063e+20
-48.1536  2.48087e+20
-48.0363  2.43992e+20
-47.919  2.39594e+20
-47.8017  2.35642e+20
-47.6844  2.32801e+20
-47.5671  2.31629e+20
-47.4498  2.32552e+20
-47.3325  2.35884e+20
-47.2152  2.41599e+20
-47.0979  2.49638e+20
-46.9806  2.59606e+20
-46.8633  2.70901e+20
-46.7459  2.82984e+20
-46.6286  2.9506e+20
-46.5113  3.06386e+20
-46.394  3.16278e+20
-46.2767  3.24423e+20
-46.1594  3.30749e+20
-46.0421  3.3539e+20
-45.9248  3.38784e+20
-45.8075  3.4164e+20
-45.6902  3.44484e+20
-45.5729  3.479e+20
-45.4556  3.52068e+20
-45.3383  3.56972e+20
-45.221  3.62225e+20
-45.1037  3.67244e+20
-44.9864  3.71498e+20
-44.8691  3.74235e+20
-44.7518  3.75074e+20
-44.6345  3.73768e+20
-44.5172  3.70446e+20
-44.3998  3.65369e+20
-44.2825  3.58875e+20
-44.1652  3.51311e+20
-44.0479  3.43197e+20
-43.9306  3.34726e+20
-43.8133  3.26316e+20
-43.696  3.18423e+20
-43.5787  3.11426e+20
-43.4614  3.05828e+20
-43.3441  3.02293e+20
-43.2268  3.01422e+20
-43.1095  3.03729e+20
-42.9922  3.0948e+20
-42.8749  3.18716e+20
-42.7576  3.31133e+20
-42.6403  3.46048e+20
-42.523  3.62619e+20
-42.4057  3.79805e+20
-42.2884  3.96704e+20
-42.171  4.12362e+20
-42.0537  4.26152e+20
-41.9364  4.37806e+20
-41.8191  4.46969e+20
-41.7018  4.54082e+20
-41.5845  4.59176e+20
-41.4672  4.62702e+20
-41.3499  4.6516e+20
-41.2326  4.66846e+20
-41.1153  4.68078e+20
-40.998  4.68887e+20
-40.8807  4.69141e+20
-40.7634  4.6861e+20
-40.6461  4.66832e+20
-40.5288  4.63366e+20
-40.4115  4.57494e+20
-40.2942  4.48758e+20
-40.1769  4.37e+20
-40.0596  4.22215e+20
-39.9423  4.04775e+20
-39.825  3.85322e+20
-39.7076  3.64794e+20
-39.5903  3.44157e+20
-39.473  3.24581e+20
-39.3557  3.07162e+20
-39.2384  2.92798e+20
-39.1211  2.82369e+20
-39.0038  2.76422e+20
-38.8865  2.75503e+20
-38.7692  2.79771e+20
-38.6519  2.89287e+20
-38.5346  3.03761e+20
-38.4173  3.22658e+20
-38.3  3.44955e+20
-38.1827  3.694e+20
-38.0654  3.94276e+20
-37.9481  4.17711e+20
-37.8308  4.37811e+20
-37.7135  4.52851e+20
-37.5962  4.61624e+20
-37.4789  4.63522e+20
-37.3615  4.58342e+20
-37.2442  4.46867e+20
-37.1269  4.30283e+20
-37.0096  4.10436e+20
-36.8923  3.88918e+20
-36.775  3.67619e+20
-36.6577  3.48018e+20
-36.5404  3.31374e+20
-36.4231  3.18411e+20
-36.3058  3.0954e+20
-36.1885  3.0473e+20
-36.0712  3.03735e+20
-35.9539  3.06062e+20
-35.8366  3.11033e+20
-35.7193  3.17897e+20
-35.602  3.2569e+20
-35.4847  3.33584e+20
-35.3674  3.40686e+20
-35.2501  3.46224e+20
-35.1328  3.49447e+20
-35.0154  3.49873e+20
-34.8981  3.47475e+20
-34.7808  3.42329e+20
-34.6635  3.34745e+20
-34.5462  3.25441e+20
-34.4289  3.15151e+20
-34.3116  3.04538e+20
-34.1943  2.94427e+20
-34.077  2.85431e+20
-33.9597  2.77928e+20
-33.8424  2.72228e+20
-33.7251  2.68431e+20
-33.6078  2.66555e+20
-33.4905  2.6647e+20
-33.3732  2.67928e+20
-33.2559  2.70775e+20
-33.1386  2.74624e+20
-33.0213  2.79257e+20
-32.904  2.8435e+20
-32.7867  2.89622e+20
-32.6693  2.94776e+20
-32.552  2.99553e+20
-32.4347  3.03839e+20
-32.3174  3.07418e+20
-32.2001  3.10177e+20
-32.0828  3.12028e+20
-31.9655  3.12825e+20
-31.8482  3.12549e+20
-31.7309  3.11117e+20
-31.6136  3.0857e+20
-31.4963  3.04932e+20
-31.379  3.003e+20
-31.2617  2.94904e+20
-31.1444  2.88937e+20
-31.0271  2.82765e+20
-30.9098  2.76628e+20
-30.7925  2.70886e+20
-30.6752  2.65779e+20
-30.5579  2.61565e+20
-30.4406  2.58391e+20
-30.3232  2.56306e+20
-30.2059  2.55523e+20
-30.0886  2.55959e+20
-29.9713  2.57613e+20
-29.854  2.60419e+20
-29.7367  2.64325e+20
-29.6194  2.69108e+20
-29.5021  2.74663e+20
-29.3848  2.80778e+20
-29.2675  2.87251e+20
-29.1502  2.93888e+20
-29.0329  3.00513e+20
-28.9156  3.07021e+20
-28.7983  3.1334e+20
-28.681  3.1933e+20
-28.5637  3.25085e+20
-28.4464  3.30487e+20
-28.3291  3.35645e+20
-28.2118  3.40579e+20
-28.0944  3.45334e+20
-27.9771  3.50019e+20
-27.8598  3.5467e+20
-27.7425  3.59436e+20
-27.6252  3.64298e+20
-27.5079  3.69271e+20
-27.3906  3.74326e+20
-27.2733  3.79361e+20
-27.156  3.843e+20
-27.0387  3.89049e+20
-26.9214  3.93632e+20
-26.8041  3.98079e+20
-26.6868  4.02534e+20
-26.5695  4.07295e+20
-26.4522  4.12678e+20
-26.3349  4.19088e+20
-26.2176  4.26863e+20
-26.1003  4.36415e+20
-25.983  4.4801e+20
-25.8657  4.61905e+20
-25.7483  4.78238e+20
-25.631  4.96997e+20
-25.5137  5.18407e+20
-25.3964  5.42168e+20
-25.2791  5.68162e+20
-25.1618  5.96043e+20
-25.0445  6.25456e+20
-24.9272  6.55754e+20
-24.8099  6.86347e+20
-24.6926  7.16557e+20
-24.5753  7.45692e+20
-24.458  7.73036e+20
-24.3407  7.98058e+20
-24.2234  8.20249e+20
-24.1061  8.39411e+20
-23.9888  8.5531e+20
-23.8715  8.68055e+20
-23.7542  8.77688e+20
-23.6369  8.84648e+20
-23.5196  8.89358e+20
-23.4023  8.92307e+20
-23.2849  8.9427e+20
-23.1676  8.95867e+20
-23.0503  8.98041e+20
-22.933  9.01519e+20
-22.8157  9.06995e+20
-22.6984  9.15182e+20
-22.5811  9.26614e+20
-22.4638  9.4184e+20
-22.3465  9.61201e+20
-22.2292  9.85121e+20
-22.1119  1.01379e+21
-21.9946  1.04731e+21
-21.8773  1.08563e+21
-21.76  1.12847e+21
-21.6427  1.1754e+21
-21.5254  1.22544e+21
-21.4081  1.27771e+21
-21.2908  1.33071e+21
-21.1735  1.38302e+21
-21.0561  1.43319e+21
-20.9388  1.47975e+21
-20.8215  1.52201e+21
-20.7042  1.55879e+21
-20.5869  1.58989e+21
-20.4696  1.61534e+21
-20.3523  1.63554e+21
-20.235  1.65115e+21
-20.1177  1.66307e+21
-20.0004  1.67236e+21
-19.8831  1.68036e+21
-19.7658  1.68807e+21
-19.6485  1.69681e+21
-19.5312  1.70748e+21
-19.4139  1.72127e+21
-19.2966  1.73873e+21
-19.1793  1.76037e+21
-19.062  1.78635e+21
-18.9447  1.81673e+21
-18.8274  1.85115e+21
-18.71  1.88925e+21
-18.5927  1.93071e+21
-18.4754  1.97505e+21
-18.3581  2.02231e+21
-18.2408  2.07218e+21
-18.1235  2.12477e+21
-18.0062  2.18023e+21
-17.8889  2.23881e+21
-17.7716  2.30061e+21
-17.6543  2.36549e+21
-17.537  2.43351e+21
-17.4197  2.50413e+21
-17.3024  2.57682e+21
-17.1851  2.65067e+21
-17.0678  2.72443e+21
-16.9505  2.79696e+21
-16.8332  2.86671e+21
-16.7159  2.93231e+21
-16.5986  2.99202e+21
-16.4813  3.04437e+21
-16.364  3.08828e+21
-16.2466  3.12283e+21
-16.1293  3.14806e+21
-16.012  3.16379e+21
-15.8947  3.1713e+21
-15.7774  3.17199e+21
-15.6601  3.16796e+21
-15.5428  3.16178e+21
-15.4255  3.15606e+21
-15.3082  3.1535e+21
-15.1909  3.15713e+21
-15.0736  3.16877e+21
-14.9563  3.1906e+21
-14.839  3.22365e+21
-14.7217  3.2688e+21
-14.6044  3.32568e+21
-14.4871  3.39359e+21
-14.3698  3.47122e+21
-14.2525  3.55648e+21
-14.1352  3.64686e+21
-14.0178  3.74008e+21
-13.9005  3.83311e+21
-13.7832  3.9236e+21
-13.6659  4.00949e+21
-13.5486  4.08865e+21
-13.4313  4.16019e+21
-13.314  4.22326e+21
-13.1967  4.27824e+21
-13.0794  4.32587e+21
-12.9621  4.36694e+21
-12.8448  4.40326e+21
-12.7275  4.4364e+21
-12.6102  4.46804e+21
-12.4929  4.49946e+21
-12.3756  4.53186e+21
-12.2583  4.56614e+21
-12.141  4.60271e+21
-12.0237  4.64145e+21
-11.9064  4.68195e+21
-11.7891  4.72347e+21
-11.6718  4.76512e+21
-11.5544  4.80643e+21
-11.4371  4.84676e+21
-11.3198  4.88537e+21
-11.2025  4.92268e+21
-11.0852  4.95901e+21
-10.9679  4.99504e+21
-10.8506  5.03209e+21
-10.7333  5.07127e+21
-10.616  5.1139e+21
-10.4987  5.16173e+21
-10.3814  5.21526e+21
-10.2641  5.27544e+21
-10.1468  5.34246e+21
-10.0295  5.4159e+21
-9.91217  5.49495e+21
-9.79487  5.57802e+21
-9.67756  5.66352e+21
-9.56026  5.74903e+21
-9.44295  5.83196e+21
-9.32565  5.91051e+21
-9.20834  5.9821e+21
-9.09104  6.04488e+21
-8.97373  6.09784e+21
-8.85643  6.13994e+21
-8.73913  6.17145e+21
-8.62182  6.19293e+21
-8.50452  6.2059e+21
-8.38721  6.21245e+21
-8.26991  6.21451e+21
-8.1526  6.21509e+21
-8.03529  6.21636e+21
-7.91799  6.22102e+21
-7.80069  6.23103e+21
-7.68338  6.24791e+21
-7.56608  6.27309e+21
-7.44877  6.30747e+21
-7.33146  6.35084e+21
-7.21416  6.40308e+21
-7.09685  6.46337e+21
-6.97955  6.53045e+21
-6.86224  6.6033e+21
-6.74494  6.68012e+21
-6.62763  6.75934e+21
-6.51033  6.83924e+21
-6.39302  6.91848e+21
-6.27572  6.99532e+21
-6.15842  7.06872e+21
-6.04111  7.1374e+21
-5.92381  7.20041e+21
-5.8065  7.25721e+21
-5.68919  7.30689e+21
-5.57189  7.34906e+21
-5.45458  7.38345e+21
-5.33728  7.40972e+21
-5.21997  7.42783e+21
-5.10267  7.43804e+21
-4.98536  7.44085e+21
-4.86806  7.43671e+21
-4.75075  7.42641e+21
-4.63345  7.41151e+21
-4.51614  7.39311e+21
-4.39884  7.37302e+21
-4.28154  7.353e+21
-4.16423  7.33496e+21
-4.04692  7.32109e+21
-3.92962  7.31331e+21
-3.81231  7.31333e+21
-3.69501  7.32291e+21
-3.5777  7.34293e+21
-3.4604  7.37409e+21
-3.34309  7.41616e+21
-3.22579  7.4686e+21
-3.10849  7.53019e+21
-2.99118  7.59888e+21
-2.87387  7.67219e+21
-2.75657  7.74783e+21
-2.63926  7.82247e+21
-2.52196  7.89329e+21
-2.40465  7.95772e+21
-2.28735  8.01307e+21
-2.17005  8.05758e+21
-2.05274  8.0895e+21
-1.93544  8.10845e+21
-1.81813  8.1141e+21
-1.70083  8.10722e+21
-1.58352  8.08893e+21
-1.46622  8.06092e+21
-1.34891  8.02516e+21
-1.2316  7.98379e+21
-1.1143  7.93911e+21
-0.996995  7.89331e+21
-0.87969  7.84816e+21
-0.762385  7.80549e+21
-0.64508  7.76654e+21
-0.527775  7.73252e+21
-0.41047  7.70445e+21
-0.293165  7.68287e+21
-0.17586  7.66835e+21
-0.058555  7.66116e+21
0.05875  7.66149e+21
0.176055  7.66931e+21
0.29336  7.68456e+21
0.410665  7.70669e+21
0.52797  7.73533e+21
0.645275  7.76979e+21
0.76258  7.80924e+21
0.879885  7.85233e+21
0.99719  7.89778e+21
1.1145  7.94404e+21
1.2318  7.98881e+21
1.3491  8.03025e+21
1.46641  8.06604e+21
1.58371  8.0942e+21
1.70102  8.11261e+21
1.81832  8.11945e+21
1.93563  8.11389e+21
2.05294  8.09496e+21
2.17024  8.06284e+21
2.28754  8.01841e+21
2.40485  7.96308e+21
2.52216  7.8989e+21
2.63946  7.82785e+21
2.75677  7.75336e+21
2.87407  7.678e+21
2.99137  7.60472e+21
3.10868  7.53629e+21
3.22599  7.47515e+21
3.34329  7.42295e+21
3.4606  7.3814e+21
3.5779  7.35059e+21
3.69521  7.33118e+21
3.81251  7.3222e+21
3.92982  7.32283e+21
4.04712  7.33116e+21
4.16443  7.34579e+21
4.28173  7.3644e+21
4.39903  7.38506e+21
4.51634  7.40562e+21
4.63364  7.42455e+21
4.75095  7.43978e+21
4.86825  7.45023e+21
4.98556  7.45459e+21
5.10286  7.45173e+21
5.22017  7.44139e+21
5.33748  7.42302e+21
5.45478  7.39662e+21
5.57209  7.36203e+21
5.68939  7.31942e+21
5.8067  7.26961e+21
5.924  7.21257e+21
6.0413  7.14931e+21
6.15861  7.08049e+21
6.27591  7.00708e+21
6.39322  6.93058e+21
6.51052  6.85177e+21
6.62783  6.77219e+21
6.74514  6.69344e+21
6.86244  6.61708e+21
6.97975  6.54486e+21
7.09705  6.47828e+21
7.21436  6.41871e+21
7.33166  6.3669e+21
7.44897  6.32409e+21
7.56627  6.29033e+21
7.68358  6.26539e+21
7.80088  6.24869e+21
7.91819  6.23886e+21
8.03549  6.23448e+21
8.1528  6.2334e+21
8.2701  6.2328e+21
8.38741  6.2307e+21
8.50471  6.22425e+21
8.62202  6.21122e+21
8.73932  6.18962e+21
8.85662  6.15823e+21
8.97393  6.11617e+21
9.09123  6.06332e+21
9.20854  6.00051e+21
9.32584  5.92922e+21
9.44315  5.85084e+21
9.56045  5.76783e+21
9.67776  5.68262e+21
9.79506  5.59727e+21
9.91237  5.51436e+21
10.0297  5.43546e+21
10.147  5.36219e+21
10.2643  5.29539e+21
10.3816  5.2352e+21
10.4989  5.18181e+21
10.6162  5.13418e+21
10.7335  5.09146e+21
10.8508  5.05228e+21
10.9681  5.01521e+21
11.0854  4.97926e+21
11.2027  4.94306e+21
11.32  4.90568e+21
11.4373  4.86681e+21
11.5546  4.82659e+21
11.6719  4.78531e+21
11.7893  4.74357e+21
11.9066  4.70199e+21
12.0239  4.66151e+21
12.1412  4.62284e+21
12.2585  4.58627e+21
12.3758  4.55187e+21
12.4931  4.51932e+21
12.6104  4.48772e+21
12.7277  4.45611e+21
12.845  4.42302e+21
12.9623  4.38646e+21
13.0796  4.34512e+21
13.1969  4.29746e+21
13.3142  4.24212e+21
13.4315  4.17872e+21
13.5488  4.10704e+21
13.6661  4.02766e+21
13.7834  3.94157e+21
13.9007  3.85077e+21
14.018  3.75767e+21
14.1354  3.66439e+21
14.2527  3.57384e+21
14.37  3.48862e+21
14.4873  3.41107e+21
14.6046  3.34328e+21
14.7219  3.28652e+21
14.8392  3.2417e+21
14.9565  3.2089e+21
15.0738  3.18731e+21
15.1911  3.17593e+21
15.3084  3.17269e+21
15.4257  3.17539e+21
15.543  3.18124e+21
15.6603  3.18758e+21
15.7776  3.19169e+21
15.8949  3.19097e+21
16.0122  3.18319e+21
16.1295  3.16711e+21
16.2468  3.14172e+21
16.3641  3.1067e+21
16.4815  3.06246e+21
16.5988  3.0095e+21
16.7161  2.94944e+21
16.8334  2.88347e+21
16.9507  2.81326e+21
17.068  2.74028e+21
17.1853  2.66621e+21
17.3026  2.5921e+21
17.4199  2.5193e+21
17.5372  2.44856e+21
17.6545  2.38054e+21
17.7718  2.31556e+21
17.8891  2.25382e+21
18.0064  2.19522e+21
18.1237  2.13979e+21
18.241  2.0872e+21
18.3583  2.03733e+21
18.4756  1.99008e+21
18.5929  1.94568e+21
18.7102  1.90424e+21
18.8275  1.86604e+21
18.9449  1.83158e+21
19.0622  1.80111e+21
19.1795  1.7751e+21
19.2968  1.75334e+21
19.4141  1.73582e+21
19.5314  1.72201e+21
19.6487  1.71119e+21
19.766  1.70242e+21
19.8833  1.69455e+21
20.0006  1.68646e+21
20.1179  1.677e+21
20.2352  1.6649e+21
20.3525  1.64907e+21
20.4698  1.62857e+21
20.5871  1.60285e+21
20.7044  1.57131e+21
20.8217  1.53415e+21
20.939  1.4917e+21
21.0563  1.44463e+21
21.1736  1.39412e+21
21.291  1.34135e+21
21.4083  1.2881e+21
21.5256  1.23558e+21
21.6429  1.18522e+21
21.7602  1.13812e+21
21.8775  1.09509e+21
21.9948  1.05662e+21
22.1121  1.02305e+21
22.2294  9.9433e+20
22.3467  9.70461e+20
22.464  9.51088e+20
22.5813  9.35914e+20
22.6986  9.24487e+20
22.8159  9.16382e+20
22.9332  9.10973e+20
23.0505  9.07554e+20
23.1678  9.05398e+20
23.2851  9.0373e+20
23.4024  9.01741e+20
23.5198  8.98647e+20
23.6371  8.93807e+20
23.7544  8.86616e+20
23.8717  8.76729e+20
23.989  8.63658e+20
24.1063  8.47394e+20
24.2236  8.2786e+20
24.3409  8.05238e+20
24.4582  7.79852e+20
24.5755  7.52061e+20
24.6928  7.22592e+20
24.8101  6.92053e+20
24.9274  6.61177e+20
25.0447  6.30588e+20
25.162  6.00932e+20
25.2793  5.72844e+20
25.3966  5.46683e+20
25.5139  5.22824e+20
25.6312  5.01394e+20
25.7485  4.82483e+20
25.8658  4.66102e+20
25.9832  4.52142e+20
26.1005  4.40535e+20
26.2178  4.30908e+20
26.3351  4.23077e+20
26.4524  4.16627e+20
26.5697  4.11145e+20
26.687  4.06281e+20
26.8043  4.017e+20
26.9216  3.97101e+20
27.0389  3.9241e+20
27.1562  3.87467e+20
27.2735  3.82392e+20
27.3908  3.77185e+20
27.5081  3.72002e+20
27.6254  3.66897e+20
27.7427  3.61908e+20
27.86  3.57053e+20
27.9773  3.52312e+20
28.0946  3.47539e+20
28.212  3.42672e+20
28.3293  3.37642e+20
28.4466  3.32376e+20
28.5639  3.26883e+20
28.6812  3.21033e+20
28.7985  3.14927e+20
28.9158  3.08534e+20
29.0331  3.01944e+20
29.1504  2.95229e+20
29.2677  2.88506e+20
29.385  2.81974e+20
29.5023  2.75825e+20
29.6196  2.70237e+20
29.7369  2.65386e+20
29.8542  2.61425e+20
29.9715  2.58546e+20
30.0888  2.56852e+20
30.2061  2.56395e+20
30.3234  2.57184e+20
30.4407  2.59157e+20
30.558  2.62306e+20
30.6754  2.6647e+20
30.7927  2.71532e+20
30.91  2.77179e+20
31.0273  2.83227e+20
31.1446  2.89322e+20
31.2619  2.95157e+20
31.3792  3.00461e+20
31.4965  3.04968e+20
31.6138  3.08504e+20
31.7311  3.10969e+20
31.8484  3.1228e+20
31.9657  3.12482e+20
32.083  3.1161e+20
32.2003  3.09724e+20
32.3176  3.06942e+20
32.4349  3.03335e+20
32.5522  2.99085e+20
32.6695  2.94315e+20
32.7868  2.89201e+20
32.9042  2.83956e+20
33.0215  2.78911e+20
33.1388  2.74331e+20
33.2561  2.70518e+20
33.3734  2.67719e+20
33.4907  2.66286e+20
33.608  2.6641e+20
33.7253  2.68318e+20
33.8426  2.72099e+20
33.9599  2.77762e+20
34.0772  2.85206e+20
34.1945  2.94179e+20
34.3118  3.04212e+20
34.4291  3.14663e+20
34.5464  3.2486e+20
34.6637  3.33996e+20
34.781  3.41401e+20
34.8983  3.46458e+20
35.0156  3.48752e+20
35.1329  3.4811e+20
35.2503  3.44816e+20
35.3676  3.39269e+20
35.4849  3.32182e+20
35.6022  3.24257e+20
35.7195  3.16503e+20
35.8368  3.09762e+20
35.9541  3.04847e+20
36.0714  3.02662e+20
36.1887  3.03796e+20
36.306  3.08695e+20
36.4233  3.17721e+20
36.5406  3.30746e+20
36.6579  3.475e+20
36.7752  3.6708e+20
36.8925  3.8837e+20
37.0098  4.09869e+20
37.1271  4.29669e+20
37.2444  4.46099e+20
37.3617  4.57429e+20
37.479  4.62426e+20
37.5964  4.60478e+20
37.7137  4.51509e+20
37.831  4.36376e+20
37.9483  4.1622e+20
38.0656  3.92839e+20
38.1829  3.68049e+20
38.3002  3.43686e+20
38.4175  3.21512e+20
38.5348  3.0281e+20
38.6521  2.88476e+20
38.7694  2.79157e+20
38.8867  2.75042e+20
39.004  2.76191e+20
39.1213  2.82245e+20
39.2386  2.92859e+20
39.3559  3.07325e+20
39.4732  3.24857e+20
39.5905  3.44506e+20
39.7078  3.65232e+20
39.8251  3.85851e+20
39.9425  4.05297e+20
40.0598  4.22836e+20
40.1771  4.37565e+20
40.2944  4.49259e+20
40.4117  4.57928e+20
40.529  4.63757e+20
40.6463  4.67253e+20
40.7636  4.68928e+20
40.8809  4.69413e+20
40.9982  4.69057e+20
41.1155  4.68219e+20
41.2328  4.66924e+20
41.3501  4.6519e+20
41.4674  4.62659e+20
41.5847  4.59065e+20
41.702  4.53978e+20
41.8193  4.46884e+20
41.9366  4.3766e+20
42.0539  4.26035e+20
42.1712  4.1218e+20
42.2885  3.96624e+20
42.4059  3.79771e+20
42.5232  3.6265e+20
42.6405  3.46135e+20
42.7578  3.31343e+20
42.8751  3.19068e+20
42.9924  3.09926e+20
43.1097  3.04266e+20
43.227  3.02064e+20
43.3443  3.03027e+20
43.4616  3.06645e+20
43.5789  3.12279e+20
43.6962  3.19337e+20
43.8135  3.27338e+20
43.9308  3.35763e+20
44.0481  3.44245e+20
44.1654  3.52458e+20
44.2827  3.60016e+20
44.4  3.66594e+20
44.5173  3.7179e+20
44.6347  3.75154e+20
44.752  3.76468e+20
44.8693  3.75635e+20
44.9866  3.72939e+20
45.1039  3.68738e+20
45.2212  3.63727e+20
45.3385  3.58522e+20
45.4558  3.53598e+20
45.5731  3.49418e+20
45.6904  3.46028e+20
45.8077  3.4311e+20
45.925  3.40203e+20
46.0423  3.36696e+20
46.1596  3.32018e+20
46.2769  3.25621e+20
46.3942  3.1735e+20
46.5115  3.0737e+20
46.6288  2.95999e+20
46.7461  2.83917e+20
46.8634  2.71866e+20
46.9808  2.60558e+20
47.0981  2.50713e+20
47.2154  2.42782e+20
47.3327  2.37211e+20
47.45  2.33991e+20
47.5673  2.33168e+20
47.6846  2.34495e+20
47.8019  2.37422e+20
47.9192  2.41454e+20
48.0365  2.45882e+20
48.1538  2.49923e+20
48.2711  2.52907e+20
48.3884  2.54059e+20
48.5057  2.52955e+20
48.623  2.49229e+20
48.7403  2.42961e+20
48.8576  2.34437e+20
48.9749  2.24055e+20
49.0922  2.12549e+20
49.2095  2.00781e+20
49.3269  1.89559e+20
49.4442  1.79674e+20
49.5615  1.71915e+20
49.6788  1.6669e+20
49.7961  1.64274e+20
49.9134  1.64578e+20
50.0307  1.67316e+20
50.148  1.71927e+20
50.2653  1.77562e+20
50.3826  1.83402e+20
50.4999  1.88506e+20
50.6172  1.9207e+20
50.7345  1.93381e+20
50.8518  1.92097e+20
