#S 1 spectral density
#N 2
#UFWHM 39.2972
#L  abscissas [um]  spectral density
-58.5938  1.97081e+20
-58.4764  1.9619e+20
-58.3591  1.9655e+20
-58.2418  1.97841e+20
-58.1245  1.99553e+20
-58.0072  2.01136e+20
-57.8899  2.02088e+20
-57.7726  2.01965e+20
-57.6553  2.00678e+20
-57.538  1.98336e+20
-57.4207  1.95287e+20
-57.3034  1.9213e+20
-57.1861  1.89498e+20
-57.0688  1.87914e+20
-56.9515  1.87843e+20
-56.8342  1.895e+20
-56.7169  1.92933e+20
-56.5996  1.98054e+20
-56.4823  2.0455e+20
-56.365  2.12117e+20
-56.2477  2.20377e+20
-56.1303  2.28994e+20
-56.013  2.37405e+20
-55.8957  2.45219e+20
-55.7784  2.51802e+20
-55.6611  2.56648e+20
-55.5438  2.59174e+20
-55.4265  2.58895e+20
-55.3092  2.55582e+20
-55.1919  2.49196e+20
-55.0746  2.39968e+20
-54.9573  2.28442e+20
-54.84  2.15222e+20
-54.7227  2.01238e+20
-54.6054  1.8723e+20
-54.4881  1.74053e+20
-54.3708  1.62412e+20
-54.2535  1.52766e+20
-54.1362  1.45443e+20
-54.0189  1.4068e+20
-53.9016  1.38548e+20
-53.7842  1.38858e+20
-53.6669  1.41463e+20
-53.5496  1.46027e+20
-53.4323  1.5211e+20
-53.315  1.59193e+20
-53.1977  1.66635e+20
-53.0804  1.73827e+20
-52.9631  1.80173e+20
-52.8458  1.8514e+20
-52.7285  1.88354e+20
-52.6112  1.89555e+20
-52.4939  1.88698e+20
-52.3766  1.85878e+20
-52.2593  1.81323e+20
-52.142  1.75446e+20
-52.0247  1.68755e+20
-51.9074  1.61804e+20
-51.7901  1.55171e+20
-51.6728  1.49354e+20
-51.5555  1.4479e+20
-51.4381  1.41808e+20
-51.3208  1.40458e+20
-51.2035  1.40725e+20
-51.0862  1.42255e+20
-50.9689  1.44745e+20
-50.8516  1.47693e+20
-50.7343  1.50539e+20
-50.617  1.52854e+20
-50.4997  1.54246e+20
-50.3824  1.54455e+20
-50.2651  1.53402e+20
-50.1478  1.51015e+20
-50.0305  1.47467e+20
-49.9132  1.42928e+20
-49.7959  1.37693e+20
-49.6786  1.32148e+20
-49.5613  1.26546e+20
-49.444  1.21228e+20
-49.3267  1.16568e+20
-49.2094  1.1284e+20
-49.092  1.10186e+20
-48.9747  1.08805e+20
-48.8574  1.08693e+20
-48.7401  1.09784e+20
-48.6228  1.11937e+20
-48.5055  1.14854e+20
-48.3882  1.18279e+20
-48.2709  1.21855e+20
-48.1536  1.25225e+20
-48.0363  1.28043e+20
-47.919  1.29976e+20
-47.8017  1.30761e+20
-47.6844  1.30231e+20
-47.5671  1.28299e+20
-47.4498  1.25092e+20
-47.3325  1.20848e+20
-47.2152  1.15931e+20
-47.0979  1.10817e+20
-46.9806  1.05969e+20
-46.8633  1.01805e+20
-46.7459  9.86766e+19
-46.6286  9.67531e+19
-46.5113  9.61031e+19
-46.394  9.6603e+19
-46.2767  9.81634e+19
-46.1594  1.00651e+20
-46.0421  1.03912e+20
-45.9248  1.07866e+20
-45.8075  1.12425e+20
-45.6902  1.17443e+20
-45.5729  1.2272e+20
-45.4556  1.27885e+20
-45.3383  1.32494e+20
-45.221  1.36034e+20
-45.1037  1.38062e+20
-44.9864  1.38303e+20
-44.8691  1.36629e+20
-44.7518  1.33266e+20
-44.6345  1.28707e+20
-44.5172  1.23624e+20
-44.3998  1.18693e+20
-44.2825  1.14636e+20
-44.1652  1.11855e+20
-44.0479  1.10512e+20
-43.9306  1.105e+20
-43.8133  1.11448e+20
-43.696  1.12891e+20
-43.5787  1.14339e+20
-43.4614  1.15419e+20
-43.3441  1.15914e+20
-43.2268  1.15817e+20
-43.1095  1.15262e+20
-42.9922  1.14487e+20
-42.8749  1.13769e+20
-42.7576  1.13329e+20
-42.6403  1.13355e+20
-42.523  1.13919e+20
-42.4057  1.15095e+20
-42.2884  1.16902e+20
-42.171  1.19375e+20
-42.0537  1.22562e+20
-41.9364  1.26513e+20
-41.8191  1.31304e+20
-41.7018  1.3691e+20
-41.5845  1.43297e+20
-41.4672  1.5034e+20
-41.3499  1.57832e+20
-41.2326  1.65532e+20
-41.1153  1.73144e+20
-40.998  1.80375e+20
-40.8807  1.86907e+20
-40.7634  1.92465e+20
-40.6461  1.96847e+20
-40.5288  1.99864e+20
-40.4115  2.01515e+20
-40.2942  2.01861e+20
-40.1769  2.01159e+20
-40.0596  1.99769e+20
-39.9423  1.98177e+20
-39.825  1.96892e+20
-39.7076  1.96371e+20
-39.5903  1.97073e+20
-39.473  1.99156e+20
-39.3557  2.02655e+20
-39.2384  2.07436e+20
-39.1211  2.13265e+20
-39.0038  2.19805e+20
-38.8865  2.26862e+20
-38.7692  2.34306e+20
-38.6519  2.4216e+20
-38.5346  2.50516e+20
-38.4173  2.59545e+20
-38.3  2.69366e+20
-38.1827  2.79964e+20
-38.0654  2.91088e+20
-37.9481  3.02388e+20
-37.8308  3.13292e+20
-37.7135  3.23301e+20
-37.5962  3.31913e+20
-37.4789  3.38886e+20
-37.3615  3.44126e+20
-37.2442  3.47831e+20
-37.1269  3.50486e+20
-37.0096  3.52523e+20
-36.8923  3.54461e+20
-36.775  3.56673e+20
-36.6577  3.59357e+20
-36.5404  3.6258e+20
-36.4231  3.66187e+20
-36.3058  3.70077e+20
-36.1885  3.74031e+20
-36.0712  3.77992e+20
-35.9539  3.82024e+20
-35.8366  3.86227e+20
-35.7193  3.90922e+20
-35.602  3.96281e+20
-35.4847  4.02637e+20
-35.3674  4.10118e+20
-35.2501  4.18819e+20
-35.1328  4.28683e+20
-35.0154  4.39544e+20
-34.8981  4.51473e+20
-34.7808  4.64172e+20
-34.6635  4.77539e+20
-34.5462  4.91472e+20
-34.4289  5.05871e+20
-34.3116  5.20466e+20
-34.1943  5.3512e+20
-34.077  5.49624e+20
-33.9597  5.63754e+20
-33.8424  5.77214e+20
-33.7251  5.89848e+20
-33.6078  6.01603e+20
-33.4905  6.12424e+20
-33.3732  6.22339e+20
-33.2559  6.3154e+20
-33.1386  6.40131e+20
-33.0213  6.48401e+20
-32.904  6.56454e+20
-32.7867  6.64505e+20
-32.6693  6.7268e+20
-32.552  6.80982e+20
-32.4347  6.89714e+20
-32.3174  6.98756e+20
-32.2001  7.08307e+20
-32.0828  7.18353e+20
-31.9655  7.29003e+20
-31.8482  7.40439e+20
-31.7309  7.52645e+20
-31.6136  7.65969e+20
-31.4963  7.80583e+20
-31.379  7.96718e+20
-31.2617  8.14691e+20
-31.1444  8.34599e+20
-31.0271  8.56815e+20
-30.9098  8.81218e+20
-30.7925  9.07805e+20
-30.6752  9.36158e+20
-30.5579  9.65806e+20
-30.4406  9.95982e+20
-30.3232  1.02572e+21
-30.2059  1.05442e+21
-30.0886  1.08079e+21
-29.9713  1.104e+21
-29.854  1.12329e+21
-29.7367  1.13815e+21
-29.6194  1.14806e+21
-29.5021  1.15306e+21
-29.3848  1.15343e+21
-29.2675  1.14986e+21
-29.1502  1.14316e+21
-29.0329  1.13456e+21
-28.9156  1.12551e+21
-28.7983  1.11752e+21
-28.681  1.11207e+21
-28.5637  1.11069e+21
-28.4464  1.11454e+21
-28.3291  1.12461e+21
-28.2118  1.14138e+21
-28.0944  1.16499e+21
-27.9771  1.19522e+21
-27.8598  1.23115e+21
-27.7425  1.27198e+21
-27.6252  1.31595e+21
-27.5079  1.36157e+21
-27.3906  1.40696e+21
-27.2733  1.45028e+21
-27.156  1.49001e+21
-27.0387  1.5245e+21
-26.9214  1.55301e+21
-26.8041  1.57496e+21
-26.6868  1.59024e+21
-26.5695  1.59939e+21
-26.4522  1.60315e+21
-26.3349  1.60311e+21
-26.2176  1.60059e+21
-26.1003  1.59732e+21
-25.983  1.59473e+21
-25.8657  1.59424e+21
-25.7483  1.59696e+21
-25.631  1.6036e+21
-25.5137  1.61503e+21
-25.3964  1.63087e+21
-25.2791  1.65101e+21
-25.1618  1.67479e+21
-25.0445  1.70142e+21
-24.9272  1.72976e+21
-24.8099  1.7587e+21
-24.6926  1.78729e+21
-24.5753  1.81492e+21
-24.458  1.84083e+21
-24.3407  1.86508e+21
-24.2234  1.88784e+21
-24.1061  1.90988e+21
-23.9888  1.93194e+21
-23.8715  1.95532e+21
-23.7542  1.98106e+21
-23.6369  2.01023e+21
-23.5196  2.04349e+21
-23.4023  2.08138e+21
-23.2849  2.12391e+21
-23.1676  2.17033e+21
-23.0503  2.21998e+21
-22.933  2.27092e+21
-22.8157  2.32144e+21
-22.6984  2.3693e+21
-22.5811  2.41224e+21
-22.4638  2.4483e+21
-22.3465  2.47548e+21
-22.2292  2.49295e+21
-22.1119  2.50019e+21
-21.9946  2.49753e+21
-21.8773  2.48609e+21
-21.76  2.46769e+21
-21.6427  2.44496e+21
-21.5254  2.42062e+21
-21.4081  2.39771e+21
-21.2908  2.37892e+21
-21.1735  2.36674e+21
-21.0561  2.36346e+21
-20.9388  2.37044e+21
-20.8215  2.38891e+21
-20.7042  2.41862e+21
-20.5869  2.45916e+21
-20.4696  2.50926e+21
-20.3523  2.56698e+21
-20.235  2.63004e+21
-20.1177  2.69561e+21
-20.0004  2.76097e+21
-19.8831  2.82377e+21
-19.7658  2.88139e+21
-19.6485  2.93235e+21
-19.5312  2.97541e+21
-19.4139  3.01048e+21
-19.2966  3.03773e+21
-19.1793  3.05832e+21
-19.062  3.07361e+21
-18.9447  3.08534e+21
-18.8274  3.09516e+21
-18.71  3.10499e+21
-18.5927  3.11625e+21
-18.4754  3.12986e+21
-18.3581  3.14684e+21
-18.2408  3.16692e+21
-18.1235  3.18986e+21
-18.0062  3.21466e+21
-17.8889  3.24016e+21
-17.7716  3.26483e+21
-17.6543  3.28686e+21
-17.537  3.30515e+21
-17.4197  3.31837e+21
-17.3024  3.32606e+21
-17.1851  3.32813e+21
-17.0678  3.32532e+21
-16.9505  3.31922e+21
-16.8332  3.31181e+21
-16.7159  3.30546e+21
-16.5986  3.30258e+21
-16.4813  3.3056e+21
-16.364  3.31694e+21
-16.2466  3.33815e+21
-16.1293  3.37058e+21
-16.012  3.4142e+21
-15.8947  3.46866e+21
-15.7774  3.53273e+21
-15.6601  3.60414e+21
-15.5428  3.68049e+21
-15.4255  3.75846e+21
-15.3082  3.83472e+21
-15.1909  3.90642e+21
-15.0736  3.97016e+21
-14.9563  4.02372e+21
-14.839  4.06535e+21
-14.7217  4.09437e+21
-14.6044  4.11074e+21
-14.4871  4.11546e+21
-14.3698  4.11044e+21
-14.2525  4.09795e+21
-14.1352  4.08055e+21
-14.0178  4.06144e+21
-13.9005  4.04317e+21
-13.7832  4.02816e+21
-13.6659  4.01856e+21
-13.5486  4.01541e+21
-13.4313  4.01954e+21
-13.314  4.03084e+21
-13.1967  4.04888e+21
-13.0794  4.07263e+21
-12.9621  4.10054e+21
-12.8448  4.13141e+21
-12.7275  4.16355e+21
-12.6102  4.19583e+21
-12.4929  4.22706e+21
-12.3756  4.25655e+21
-12.2583  4.28424e+21
-12.141  4.31041e+21
-12.0237  4.33542e+21
-11.9064  4.36005e+21
-11.7891  4.38523e+21
-11.6718  4.41188e+21
-11.5544  4.44073e+21
-11.4371  4.47236e+21
-11.3198  4.50671e+21
-11.2025  4.54362e+21
-11.0852  4.58253e+21
-10.9679  4.62214e+21
-10.8506  4.66127e+21
-10.7333  4.69819e+21
-10.616  4.73132e+21
-10.4987  4.75937e+21
-10.3814  4.78083e+21
-10.2641  4.79497e+21
-10.1468  4.80151e+21
-10.0295  4.80064e+21
-9.91217  4.79323e+21
-9.79487  4.78062e+21
-9.67756  4.76485e+21
-9.56026  4.74796e+21
-9.44295  4.7322e+21
-9.32565  4.72012e+21
-9.20834  4.71363e+21
-9.09104  4.71461e+21
-8.97373  4.72426e+21
-8.85643  4.74301e+21
-8.73913  4.77112e+21
-8.62182  4.80788e+21
-8.50452  4.85212e+21
-8.38721  4.90231e+21
-8.26991  4.95623e+21
-8.1526  5.01183e+21
-8.03529  5.06671e+21
-7.91799  5.11864e+21
-7.80069  5.16569e+21
-7.68338  5.20596e+21
-7.56608  5.23846e+21
-7.44877  5.26263e+21
-7.33146  5.2781e+21
-7.21416  5.28526e+21
-7.09685  5.28506e+21
-6.97955  5.27834e+21
-6.86224  5.26667e+21
-6.74494  5.25131e+21
-6.62763  5.23371e+21
-6.51033  5.21525e+21
-6.39302  5.19724e+21
-6.27572  5.18053e+21
-6.15842  5.16615e+21
-6.04111  5.15475e+21
-5.92381  5.14684e+21
-5.8065  5.14308e+21
-5.68919  5.14369e+21
-5.57189  5.14912e+21
-5.45458  5.1598e+21
-5.33728  5.17564e+21
-5.21997  5.19709e+21
-5.10267  5.22413e+21
-4.98536  5.25676e+21
-4.86806  5.29451e+21
-4.75075  5.33683e+21
-4.63345  5.3829e+21
-4.51614  5.43144e+21
-4.39884  5.48104e+21
-4.28154  5.5298e+21
-4.16423  5.57578e+21
-4.04692  5.61718e+21
-3.92962  5.65208e+21
-3.81231  5.67874e+21
-3.69501  5.69604e+21
-3.5777  5.703e+21
-3.4604  5.69927e+21
-3.34309  5.6852e+21
-3.22579  5.66138e+21
-3.10849  5.62929e+21
-2.99118  5.5905e+21
-2.87387  5.54729e+21
-2.75657  5.50225e+21
-2.63926  5.45752e+21
-2.52196  5.41565e+21
-2.40465  5.37905e+21
-2.28735  5.34936e+21
-2.17005  5.32828e+21
-2.05274  5.31666e+21
-1.93544  5.31503e+21
-1.81813  5.32352e+21
-1.70083  5.34155e+21
-1.58352  5.3682e+21
-1.46622  5.40237e+21
-1.34891  5.44254e+21
-1.2316  5.48703e+21
-1.1143  5.5341e+21
-0.996995  5.58195e+21
-0.87969  5.62895e+21
-0.762385  5.67347e+21
-0.64508  5.71389e+21
-0.527775  5.74928e+21
-0.41047  5.77854e+21
-0.293165  5.80099e+21
-0.17586  5.81617e+21
-0.058555  5.82377e+21
0.05875  5.8236e+21
0.176055  5.81574e+21
0.29336  5.80037e+21
0.410665  5.77767e+21
0.52797  5.74825e+21
0.645275  5.71278e+21
0.76258  5.67231e+21
0.879885  5.6279e+21
0.99719  5.58102e+21
1.1145  5.53333e+21
1.2318  5.48645e+21
1.3491  5.44223e+21
1.46641  5.40236e+21
1.58371  5.36853e+21
1.70102  5.34223e+21
1.81832  5.32456e+21
1.93563  5.31656e+21
2.05294  5.31849e+21
2.17024  5.33042e+21
2.28754  5.35194e+21
2.40485  5.38196e+21
2.52216  5.41899e+21
2.63946  5.46111e+21
2.75677  5.50611e+21
2.87407  5.55156e+21
2.99137  5.59493e+21
3.10868  5.63384e+21
3.22599  5.66607e+21
3.34329  5.68993e+21
3.4606  5.70415e+21
3.5779  5.70774e+21
3.69521  5.70073e+21
3.81251  5.68335e+21
3.92982  5.65652e+21
4.04712  5.6215e+21
4.16443  5.57992e+21
4.28173  5.53378e+21
4.39903  5.48489e+21
4.51634  5.4353e+21
4.63364  5.38682e+21
4.75095  5.34077e+21
4.86825  5.29863e+21
4.98556  5.26118e+21
5.10286  5.22896e+21
5.22017  5.20238e+21
5.33748  5.18137e+21
5.45478  5.16606e+21
5.57209  5.15609e+21
5.68939  5.15116e+21
5.8067  5.15115e+21
5.924  5.15541e+21
6.0413  5.16369e+21
6.15861  5.17543e+21
6.27591  5.19006e+21
6.39322  5.20703e+21
6.51052  5.22517e+21
6.62783  5.2436e+21
6.74514  5.26101e+21
6.86244  5.27628e+21
6.97975  5.28776e+21
7.09705  5.29427e+21
7.21436  5.29427e+21
7.33166  5.2868e+21
7.44897  5.27129e+21
7.56627  5.24707e+21
7.68358  5.21442e+21
7.80088  5.17409e+21
7.91819  5.12717e+21
8.03549  5.07531e+21
8.1528  5.02075e+21
8.2701  4.96523e+21
8.38741  4.91155e+21
8.50471  4.86163e+21
8.62202  4.81758e+21
8.73932  4.78102e+21
8.85662  4.75305e+21
8.97393  4.73445e+21
9.09123  4.72491e+21
9.20854  4.72399e+21
9.32584  4.73058e+21
9.44315  4.74262e+21
9.56045  4.75833e+21
9.67776  4.77517e+21
9.79506  4.79094e+21
9.91237  4.80347e+21
10.0297  4.8108e+21
10.147  4.81171e+21
10.2643  4.8052e+21
10.3816  4.79095e+21
10.4989  4.76952e+21
10.6162  4.74156e+21
10.7335  4.70842e+21
10.8508  4.67147e+21
10.9681  4.63245e+21
11.0854  4.59297e+21
11.2027  4.55429e+21
11.32  4.51739e+21
11.4373  4.48308e+21
11.5546  4.45163e+21
11.6719  4.42287e+21
11.7893  4.39639e+21
11.9066  4.37126e+21
12.0239  4.34671e+21
12.1412  4.322e+21
12.2585  4.29603e+21
12.3758  4.26835e+21
12.4931  4.23899e+21
12.6104  4.2079e+21
12.7277  4.17583e+21
12.845  4.14395e+21
12.9623  4.1132e+21
13.0796  4.08546e+21
13.1969  4.06189e+21
13.3142  4.04407e+21
13.4315  4.03287e+21
13.5488  4.02892e+21
13.6661  4.03227e+21
13.7834  4.04201e+21
13.9007  4.05706e+21
14.018  4.07553e+21
14.1354  4.09471e+21
14.2527  4.11204e+21
14.37  4.12448e+21
14.4873  4.12946e+21
14.6046  4.12455e+21
14.7219  4.10801e+21
14.8392  4.07889e+21
14.9565  4.03702e+21
15.0738  3.98322e+21
15.1911  3.91929e+21
15.3084  3.84757e+21
15.4257  3.77111e+21
15.543  3.693e+21
15.6603  3.61672e+21
15.7776  3.54533e+21
15.8949  3.48158e+21
16.0122  3.42721e+21
16.1295  3.3838e+21
16.2468  3.35171e+21
16.3641  3.33075e+21
16.4815  3.31975e+21
16.5988  3.31684e+21
16.7161  3.31999e+21
16.8334  3.32668e+21
16.9507  3.33425e+21
17.068  3.34033e+21
17.1853  3.34307e+21
17.3026  3.34088e+21
17.4199  3.33316e+21
17.5372  3.31987e+21
17.6545  3.30143e+21
17.7718  3.27919e+21
17.8891  3.25434e+21
18.0064  3.22869e+21
18.1237  3.20366e+21
18.241  3.18063e+21
18.3583  3.16046e+21
18.4756  3.14344e+21
18.5929  3.12969e+21
18.7102  3.11858e+21
18.8275  3.10873e+21
18.9449  3.09885e+21
19.0622  3.08713e+21
19.1795  3.07184e+21
19.2968  3.0512e+21
19.4141  3.02379e+21
19.5314  2.98864e+21
19.6487  2.94539e+21
19.766  2.89425e+21
19.8833  2.83645e+21
20.0006  2.77359e+21
20.1179  2.70804e+21
20.2352  2.64233e+21
20.3525  2.57932e+21
20.4698  2.52161e+21
20.5871  2.47174e+21
20.7044  2.43132e+21
20.8217  2.40183e+21
20.939  2.38376e+21
21.0563  2.37704e+21
21.1736  2.38073e+21
21.291  2.39308e+21
21.4083  2.41225e+21
21.5256  2.43551e+21
21.6429  2.45999e+21
21.7602  2.48275e+21
21.8775  2.50107e+21
21.9948  2.5123e+21
22.1121  2.51479e+21
22.2294  2.50733e+21
22.3467  2.4895e+21
22.464  2.46185e+21
22.5813  2.42545e+21
22.6986  2.38212e+21
22.8159  2.33394e+21
22.9332  2.28313e+21
23.0505  2.23199e+21
23.1678  2.18228e+21
23.2851  2.13574e+21
23.4024  2.09336e+21
23.5198  2.05546e+21
23.6371  2.02229e+21
23.7544  1.99325e+21
23.8717  1.96764e+21
23.989  1.94431e+21
24.1063  1.92222e+21
24.2236  1.90022e+21
24.3409  1.87739e+21
24.4582  1.85301e+21
24.5755  1.82694e+21
24.6928  1.79921e+21
24.8101  1.77043e+21
24.9274  1.7413e+21
25.0447  1.71285e+21
25.162  1.68617e+21
25.2793  1.66235e+21
25.3966  1.64216e+21
25.5139  1.62637e+21
25.6312  1.61518e+21
25.7485  1.6085e+21
25.8658  1.60599e+21
25.9832  1.60651e+21
26.1005  1.60933e+21
26.2178  1.61275e+21
26.3351  1.61528e+21
26.4524  1.61532e+21
26.5697  1.61138e+21
26.687  1.60207e+21
26.8043  1.58658e+21
26.9216  1.56441e+21
27.0389  1.53554e+21
27.1562  1.50057e+21
27.2735  1.46054e+21
27.3908  1.41679e+21
27.5081  1.37111e+21
27.6254  1.32522e+21
27.7427  1.28105e+21
27.86  1.24018e+21
27.9773  1.20417e+21
28.0946  1.17412e+21
28.212  1.15054e+21
28.3293  1.13397e+21
28.4466  1.1241e+21
28.5639  1.12051e+21
28.6812  1.12207e+21
28.7985  1.12767e+21
28.9158  1.13585e+21
29.0331  1.14502e+21
29.1504  1.15363e+21
29.2677  1.16029e+21
29.385  1.1638e+21
29.5023  1.16331e+21
29.6196  1.15809e+21
29.7369  1.14791e+21
29.8542  1.13283e+21
29.9715  1.11325e+21
30.0888  1.08971e+21
30.2061  1.06312e+21
30.3234  1.03433e+21
30.4407  1.00424e+21
30.558  9.74006e+20
30.6754  9.44182e+20
30.7927  9.15835e+20
30.91  8.89213e+20
31.0273  8.64758e+20
31.1446  8.42552e+20
31.2619  8.22543e+20
31.3792  8.04577e+20
31.4965  7.88418e+20
31.6138  7.73782e+20
31.7311  7.60406e+20
31.8484  7.48062e+20
31.9657  7.36588e+20
32.083  7.25794e+20
32.2003  7.15622e+20
32.3176  7.05964e+20
32.4349  6.96776e+20
32.5522  6.87947e+20
32.6695  6.79484e+20
32.7868  6.71297e+20
32.9042  6.6309e+20
33.0215  6.54951e+20
33.1388  6.46573e+20
33.2561  6.37908e+20
33.3734  6.28601e+20
33.4907  6.1856e+20
33.608  6.07675e+20
33.7253  5.9587e+20
33.8426  5.83119e+20
33.9599  5.69552e+20
34.0772  5.55358e+20
34.1945  5.40813e+20
34.3118  5.26071e+20
34.4291  5.11361e+20
34.5464  4.969e+20
34.6637  4.82867e+20
34.781  4.69389e+20
34.8983  4.56642e+20
35.0156  4.44702e+20
35.1329  4.33663e+20
35.2503  4.23775e+20
35.3676  4.14997e+20
35.4849  4.07512e+20
35.6022  4.01083e+20
35.7195  3.95657e+20
35.8368  3.90926e+20
35.9541  3.86629e+20
36.0714  3.82562e+20
36.1887  3.78554e+20
36.306  3.74542e+20
36.4233  3.70637e+20
36.5406  3.66975e+20
36.6579  3.63744e+20
36.7752  3.61003e+20
36.8925  3.58759e+20
37.0098  3.56781e+20
37.1271  3.54684e+20
37.2444  3.51956e+20
37.3617  3.4814e+20
37.479  3.42835e+20
37.5964  3.35735e+20
37.7137  3.27007e+20
37.831  3.16877e+20
37.9483  3.05868e+20
38.0656  2.94458e+20
38.1829  2.83216e+20
38.3002  2.72522e+20
38.4175  2.62606e+20
38.5348  2.53469e+20
38.6521  2.45003e+20
38.7694  2.37062e+20
38.8867  2.29534e+20
39.004  2.22412e+20
39.1213  2.15784e+20
39.2386  2.09921e+20
39.3559  2.0511e+20
39.4732  2.01593e+20
39.5905  1.9953e+20
39.7078  1.98869e+20
39.8251  1.99364e+20
39.9425  2.00667e+20
40.0598  2.02247e+20
40.1771  2.03628e+20
40.2944  2.04277e+20
40.4117  2.03868e+20
40.529  2.02139e+20
40.6463  1.99008e+20
40.7636  1.94537e+20
40.8809  1.88868e+20
40.9982  1.82214e+20
41.1155  1.74878e+20
41.2328  1.67149e+20
41.3501  1.59344e+20
41.4674  1.51744e+20
41.5847  1.44615e+20
41.702  1.38151e+20
41.8193  1.32477e+20
41.9366  1.27627e+20
42.0539  1.23619e+20
42.1712  1.20395e+20
42.2885  1.17879e+20
42.4059  1.16039e+20
42.5232  1.14833e+20
42.6405  1.14247e+20
42.7578  1.14199e+20
42.8751  1.14617e+20
42.9924  1.15317e+20
43.1097  1.16064e+20
43.227  1.16589e+20
43.3443  1.16648e+20
43.4616  1.16112e+20
43.5789  1.14991e+20
43.6962  1.13508e+20
43.8135  1.12031e+20
43.9308  1.11049e+20
44.0481  1.11043e+20
44.1654  1.12373e+20
44.2827  1.1514e+20
44.4  1.19176e+20
44.5173  1.24055e+20
44.6347  1.29104e+20
44.752  1.33567e+20
44.8693  1.36849e+20
44.9866  1.38439e+20
45.1039  1.38121e+20
45.2212  1.36011e+20
45.3385  1.32398e+20
45.4558  1.27746e+20
45.5731  1.22552e+20
45.6904  1.17283e+20
45.8077  1.12253e+20
45.925  1.077e+20
46.0423  1.0374e+20
46.1596  1.00494e+20
46.2769  9.80109e+19
46.3942  9.6438e+19
46.5115  9.59265e+19
46.6288  9.65716e+19
46.7461  9.84832e+19
46.8634  1.01601e+20
46.9808  1.05727e+20
47.0981  1.10538e+20
47.2154  1.15606e+20
47.3327  1.20479e+20
47.45  1.24639e+20
47.5673  1.27771e+20
47.6846  1.29666e+20
47.8019  1.30156e+20
47.9192  1.29335e+20
48.0365  1.27384e+20
48.1538  1.24555e+20
48.2711  1.21207e+20
48.3884  1.17652e+20
48.5057  1.14279e+20
48.623  1.11372e+20
48.7403  1.09278e+20
48.8576  1.08251e+20
48.9749  1.08399e+20
49.0922  1.09803e+20
49.2095  1.12475e+20
49.3269  1.16232e+20
49.4442  1.20848e+20
49.5615  1.26129e+20
49.6788  1.31705e+20
49.7961  1.37198e+20
49.9134  1.42335e+20
50.0307  1.46781e+20
50.148  1.50244e+20
50.2653  1.52514e+20
50.3826  1.5356e+20
50.4999  1.53274e+20
50.6172  1.51864e+20
50.7345  1.49528e+20
