#S 1 spectral density
#N 2
#UFWHM 8.56327
#L  abscissas [um]  spectral density
-58.5938  1.04942e+18
-58.4764  3.02386e+17
-58.3591  7.35043e+17
-58.2418  2.32586e+18
-58.1245  4.87026e+18
-58.0072  7.9938e+18
-57.8899  1.12498e+19
-57.7726  1.42322e+19
-57.6553  1.65967e+19
-57.538  1.82069e+19
-57.4207  1.90721e+19
-57.3034  1.93157e+19
-57.1861  1.9125e+19
-57.0688  1.86618e+19
-56.9515  1.80325e+19
-56.8342  1.72266e+19
-56.7169  1.61825e+19
-56.5996  1.48151e+19
-56.4823  1.30972e+19
-56.365  1.1068e+19
-56.2477  8.90002e+18
-56.1303  6.78876e+18
-56.013  4.986e+18
-55.8957  3.6654e+18
-55.7784  2.92175e+18
-55.6611  2.70956e+18
-55.5438  2.88252e+18
-55.4265  3.22462e+18
-55.3092  3.5388e+18
-55.1919  3.67723e+18
-55.0746  3.58285e+18
-54.9573  3.31001e+18
-54.84  2.95279e+18
-54.7227  2.66072e+18
-54.6054  2.51582e+18
-54.4881  2.56272e+18
-54.3708  2.76033e+18
-54.2535  3.01286e+18
-54.1362  3.2033e+18
-54.0189  3.23992e+18
-53.9016  3.06436e+18
-53.7842  2.69903e+18
-53.6669  2.19956e+18
-53.5496  1.67882e+18
-53.4323  1.23275e+18
-53.315  9.37973e+17
-53.1977  8.23504e+17
-53.0804  8.74348e+17
-52.9631  1.05326e+18
-52.8458  1.3119e+18
-52.7285  1.61672e+18
-52.6112  1.96555e+18
-52.4939  2.3858e+18
-52.3766  2.93774e+18
-52.2593  3.69613e+18
-52.142  4.73759e+18
-52.0247  6.12871e+18
-51.9074  7.8953e+18
-51.7901  1.00198e+19
-51.6728  1.24374e+19
-51.5555  1.49983e+19
-51.4381  1.7511e+19
-51.3208  1.97487e+19
-51.2035  2.14382e+19
-51.0862  2.23527e+19
-50.9689  2.22996e+19
-50.8516  2.12187e+19
-50.7343  1.91968e+19
-50.617  1.64462e+19
-50.4997  1.33068e+19
-50.3824  1.02105e+19
-50.2651  7.59292e+18
-50.1478  5.85348e+18
-50.0305  5.25874e+18
-49.9132  5.92152e+18
-49.7959  7.78201e+18
-49.6786  1.06362e+19
-49.5613  1.41386e+19
-49.444  1.78763e+19
-49.3267  2.1465e+19
-49.2094  2.45219e+19
-49.092  2.6742e+19
-48.9747  2.79425e+19
-48.8574  2.80489e+19
-48.7401  2.70809e+19
-48.6228  2.51661e+19
-48.5055  2.25036e+19
-48.3882  1.93106e+19
-48.2709  1.58791e+19
-48.1536  1.24548e+19
-48.0363  9.24189e+18
-47.919  6.41851e+18
-47.8017  4.10641e+18
-47.6844  2.38942e+18
-47.5671  1.32996e+18
-47.4498  9.95037e+17
-47.3325  1.44918e+18
-47.2152  2.74532e+18
-47.0979  4.8824e+18
-46.9806  7.78929e+18
-46.8633  1.12687e+19
-46.7459  1.49702e+19
-46.6286  1.84725e+19
-46.5113  2.12524e+19
-46.394  2.28926e+19
-46.2767  2.30529e+19
-46.1594  2.16332e+19
-46.0421  1.884e+19
-45.9248  1.50783e+19
-45.8075  1.09387e+19
-45.6902  7.07371e+18
-45.5729  4.02399e+18
-45.4556  2.16123e+18
-45.3383  1.56626e+18
-45.221  2.06378e+18
-45.1037  3.2879e+18
-44.9864  4.79761e+18
-44.8691  6.17672e+18
-44.7518  7.16209e+18
-44.6345  7.69312e+18
-44.5172  7.85805e+18
-44.3998  7.86785e+18
-44.2825  7.96063e+18
-44.1652  8.29576e+18
-44.0479  8.88058e+18
-43.9306  9.61278e+18
-43.8133  1.02662e+19
-43.696  1.0583e+19
-43.5787  1.03956e+19
-43.4614  9.64918e+18
-43.3441  8.41622e+18
-43.2268  6.92177e+18
-43.1095  5.45179e+18
-42.9922  4.28889e+18
-42.8749  3.62424e+18
-42.7576  3.52922e+18
-42.6403  3.94826e+18
-42.523  4.7129e+18
-42.4057  5.61445e+18
-42.2884  6.4486e+18
-42.171  7.06587e+18
-42.0537  7.42758e+18
-41.9364  7.56224e+18
-41.8191  7.56814e+18
-41.7018  7.59775e+18
-41.5845  7.79306e+18
-41.4672  8.28227e+18
-41.3499  9.16375e+18
-41.2326  1.05013e+19
-41.1153  1.22932e+19
-40.998  1.4488e+19
-40.8807  1.6986e+19
-40.7634  1.96202e+19
-40.6461  2.21576e+19
-40.5288  2.43518e+19
-40.4115  2.59104e+19
-40.2942  2.66376e+19
-40.1769  2.63938e+19
-40.0596  2.51592e+19
-39.9423  2.30455e+19
-39.825  2.02837e+19
-39.7076  1.71633e+19
-39.5903  1.39524e+19
-39.473  1.0905e+19
-39.3557  8.20205e+18
-39.2384  5.94117e+18
-39.1211  4.18628e+18
-39.0038  3.00343e+18
-38.8865  2.50752e+18
-38.7692  2.88822e+18
-38.6519  4.37664e+18
-38.5346  7.20668e+18
-38.4173  1.15003e+19
-38.3  1.72208e+19
-38.1827  2.406e+19
-38.0654  3.1454e+19
-37.9481  3.86481e+19
-37.8308  4.47604e+19
-37.7135  4.90214e+19
-37.5962  5.07946e+19
-37.4789  4.98211e+19
-37.3615  4.62933e+19
-37.2442  4.07081e+19
-37.1269  3.39013e+19
-37.0096  2.67811e+19
-36.8923  2.0268e+19
-36.775  1.50619e+19
-36.6577  1.15646e+19
-36.5404  9.84163e+18
-36.4231  9.67542e+18
-36.3058  1.06442e+19
-36.1885  1.2237e+19
-36.0712  1.39784e+19
-35.9539  1.54864e+19
-35.8366  1.65381e+19
-35.7193  1.70202e+19
-35.602  1.69281e+19
-35.4847  1.63426e+19
-35.3674  1.53469e+19
-35.2501  1.40223e+19
-35.1328  1.24476e+19
-35.0154  1.07279e+19
-34.8981  8.98221e+18
-34.7808  7.38937e+18
-34.6635  6.12997e+18
-34.5462  5.40207e+18
-34.4289  5.3773e+18
-34.3116  6.1233e+18
-34.1943  7.61924e+18
-34.077  9.7431e+18
-33.9597  1.22535e+19
-33.8424  1.4875e+19
-33.7251  1.72692e+19
-33.6078  1.91905e+19
-33.4905  2.04135e+19
-33.3732  2.08171e+19
-33.2559  2.03942e+19
-33.1386  1.91995e+19
-33.0213  1.73872e+19
-32.904  1.51341e+19
-32.7867  1.26534e+19
-32.6693  1.01873e+19
-32.552  7.9471e+18
-32.4347  6.15133e+18
-32.3174  4.94232e+18
-32.2001  4.43719e+18
-32.0828  4.67242e+18
-31.9655  5.61801e+18
-31.8482  7.18315e+18
-31.7309  9.2394e+18
-31.6136  1.16303e+19
-31.4963  1.42114e+19
-31.379  1.68629e+19
-31.2617  1.95188e+19
-31.1444  2.21466e+19
-31.0271  2.47078e+19
-30.9098  2.72424e+19
-30.7925  2.96946e+19
-30.6752  3.20598e+19
-30.5579  3.42791e+19
-30.4406  3.62636e+19
-30.3232  3.79616e+19
-30.2059  3.92488e+19
-30.0886  4.00888e+19
-29.9713  4.04644e+19
-29.854  4.03388e+19
-29.7367  3.97047e+19
-29.6194  3.85894e+19
-29.5021  3.70229e+19
-29.3848  3.50137e+19
-29.2675  3.2627e+19
-29.1502  2.99431e+19
-29.0329  2.71005e+19
-28.9156  2.42391e+19
-28.7983  2.15445e+19
-28.681  1.92259e+19
-28.5637  1.7492e+19
-28.4464  1.65373e+19
-28.3291  1.65317e+19
-28.2118  1.76117e+19
-28.0944  1.98846e+19
-27.9771  2.33683e+19
-27.8598  2.80421e+19
-27.7425  3.37927e+19
-27.6252  4.03721e+19
-27.5079  4.75371e+19
-27.3906  5.48618e+19
-27.2733  6.19405e+19
-27.156  6.83391e+19
-27.0387  7.3596e+19
-26.9214  7.74597e+19
-26.8041  7.97321e+19
-26.6868  8.03769e+19
-26.5695  7.946e+19
-26.4522  7.71802e+19
-26.3349  7.38439e+19
-26.2176  6.96821e+19
-26.1003  6.49846e+19
-25.983  5.99266e+19
-25.8657  5.46326e+19
-25.7483  4.92395e+19
-25.631  4.38149e+19
-25.5137  3.85073e+19
-25.3964  3.33724e+19
-25.2791  2.85735e+19
-25.1618  2.42536e+19
-25.0445  2.0562e+19
-24.9272  1.75983e+19
-24.8099  1.54762e+19
-24.6926  1.42487e+19
-24.5753  1.39708e+19
-24.458  1.4644e+19
-24.3407  1.6298e+19
-24.2234  1.89212e+19
-24.1061  2.25255e+19
-23.9888  2.70671e+19
-23.8715  3.25055e+19
-23.7542  3.87269e+19
-23.6369  4.5643e+19
-23.5196  5.31149e+19
-23.4023  6.09611e+19
-23.2849  6.90204e+19
-23.1676  7.71016e+19
-23.0503  8.50005e+19
-22.933  9.24798e+19
-22.8157  9.92539e+19
-22.6984  1.05031e+20
-22.5811  1.0957e+20
-22.4638  1.12719e+20
-22.3465  1.14411e+20
-22.2292  1.14829e+20
-22.1119  1.14311e+20
-21.9946  1.13365e+20
-21.8773  1.12653e+20
-21.76  1.12884e+20
-21.6427  1.147e+20
-21.5254  1.18548e+20
-21.4081  1.24748e+20
-21.2908  1.33348e+20
-21.1735  1.44185e+20
-21.0561  1.5695e+20
-20.9388  1.71177e+20
-20.8215  1.86418e+20
-20.7042  2.02349e+20
-20.5869  2.18591e+20
-20.4696  2.34875e+20
-20.3523  2.51021e+20
-20.235  2.66872e+20
-20.1177  2.82328e+20
-20.0004  2.97313e+20
-19.8831  3.11519e+20
-19.7658  3.25096e+20
-19.6485  3.37883e+20
-19.5312  3.49878e+20
-19.4139  3.61021e+20
-19.2966  3.71406e+20
-19.1793  3.8097e+20
-19.062  3.89752e+20
-18.9447  3.97783e+20
-18.8274  4.05195e+20
-18.71  4.1197e+20
-18.5927  4.18482e+20
-18.4754  4.2499e+20
-18.3581  4.31765e+20
-18.2408  4.39311e+20
-18.1235  4.47856e+20
-18.0062  4.5767e+20
-17.8889  4.68688e+20
-17.7716  4.80586e+20
-17.6543  4.93044e+20
-17.537  5.05204e+20
-17.4197  5.16409e+20
-17.3024  5.25921e+20
-17.1851  5.33159e+20
-17.0678  5.37761e+20
-16.9505  5.39617e+20
-16.8332  5.3913e+20
-16.7159  5.36869e+20
-16.5986  5.33829e+20
-16.4813  5.3128e+20
-16.364  5.3068e+20
-16.2466  5.3353e+20
-16.1293  5.41152e+20
-16.012  5.5513e+20
-15.8947  5.76297e+20
-15.7774  6.05491e+20
-15.6601  6.42867e+20
-15.5428  6.88208e+20
-15.4255  7.40566e+20
-15.3082  7.98738e+20
-15.1909  8.61128e+20
-15.0736  9.25724e+20
-14.9563  9.9038e+20
-14.839  1.05344e+21
-14.7217  1.11295e+21
-14.6044  1.16771e+21
-14.4871  1.21695e+21
-14.3698  1.26047e+21
-14.2525  1.29842e+21
-14.1352  1.33143e+21
-14.0178  1.3609e+21
-13.9005  1.38798e+21
-13.7832  1.4142e+21
-13.6659  1.44107e+21
-13.5486  1.47001e+21
-13.4313  1.50229e+21
-13.314  1.53886e+21
-13.1967  1.5802e+21
-13.0794  1.62708e+21
-12.9621  1.67915e+21
-12.8448  1.73658e+21
-12.7275  1.79874e+21
-12.6102  1.86538e+21
-12.4929  1.93582e+21
-12.3756  2.00937e+21
-12.2583  2.0857e+21
-12.141  2.16431e+21
-12.0237  2.24477e+21
-11.9064  2.32658e+21
-11.7891  2.40943e+21
-11.6718  2.4928e+21
-11.5544  2.57619e+21
-11.4371  2.65914e+21
-11.3198  2.74048e+21
-11.2025  2.81924e+21
-11.0852  2.89441e+21
-10.9679  2.96472e+21
-10.8506  3.02882e+21
-10.7333  3.08528e+21
-10.616  3.13301e+21
-10.4987  3.17143e+21
-10.3814  3.19952e+21
-10.2641  3.2173e+21
-10.1468  3.22516e+21
-10.0295  3.22408e+21
-9.91217  3.21517e+21
-9.79487  3.20083e+21
-9.67756  3.18322e+21
-9.56026  3.16496e+21
-9.44295  3.1489e+21
-9.32565  3.13817e+21
-9.20834  3.1354e+21
-9.09104  3.14305e+21
-8.97373  3.16349e+21
-8.85643  3.19859e+21
-8.73913  3.24912e+21
-8.62182  3.31602e+21
-8.50452  3.39932e+21
-8.38721  3.49855e+21
-8.26991  3.6125e+21
-8.1526  3.73984e+21
-8.03529  3.87823e+21
-7.91799  4.02572e+21
-7.80069  4.18007e+21
-7.68338  4.33874e+21
-7.56608  4.50009e+21
-7.44877  4.66251e+21
-7.33146  4.82504e+21
-7.21416  4.98704e+21
-7.09685  5.14892e+21
-6.97955  5.31116e+21
-6.86224  5.47508e+21
-6.74494  5.64272e+21
-6.62763  5.81528e+21
-6.51033  5.99503e+21
-6.39302  6.18388e+21
-6.27572  6.38352e+21
-6.15842  6.59536e+21
-6.04111  6.82015e+21
-5.92381  7.05853e+21
-5.8065  7.31076e+21
-5.68919  7.57593e+21
-5.57189  7.85354e+21
-5.45458  8.14222e+21
-5.33728  8.44088e+21
-5.21997  8.7477e+21
-5.10267  9.0616e+21
-4.98536  9.3808e+21
-4.86806  9.70393e+21
-4.75075  1.00296e+22
-4.63345  1.03567e+22
-4.51614  1.06837e+22
-4.39884  1.10093e+22
-4.28154  1.13321e+22
-4.16423  1.16507e+22
-4.04692  1.19634e+22
-3.92962  1.22692e+22
-3.81231  1.25668e+22
-3.69501  1.28552e+22
-3.5777  1.3134e+22
-3.4604  1.34032e+22
-3.34309  1.36633e+22
-3.22579  1.39156e+22
-3.10849  1.41623e+22
-2.99118  1.44059e+22
-2.87387  1.465e+22
-2.75657  1.48987e+22
-2.63926  1.51557e+22
-2.52196  1.54255e+22
-2.40465  1.57119e+22
-2.28735  1.60181e+22
-2.17005  1.63466e+22
-2.05274  1.66989e+22
-1.93544  1.70751e+22
-1.81813  1.7474e+22
-1.70083  1.7893e+22
-1.58352  1.83281e+22
-1.46622  1.87746e+22
-1.34891  1.92261e+22
-1.2316  1.96758e+22
-1.1143  2.01164e+22
-0.996995  2.05398e+22
-0.87969  2.09387e+22
-0.762385  2.13053e+22
-0.64508  2.16331e+22
-0.527775  2.19157e+22
-0.41047  2.21477e+22
-0.293165  2.23253e+22
-0.17586  2.24448e+22
-0.058555  2.25041e+22
0.05875  2.25025e+22
0.176055  2.24396e+22
0.29336  2.23168e+22
0.410665  2.21364e+22
0.52797  2.19013e+22
0.645275  2.16162e+22
0.76258  2.12861e+22
0.879885  2.09175e+22
0.99719  2.0517e+22
1.1145  2.00922e+22
1.2318  1.96507e+22
1.3491  1.92003e+22
1.46641  1.87483e+22
1.58371  1.83015e+22
1.70102  1.78662e+22
1.81832  1.74472e+22
1.93563  1.70481e+22
2.05294  1.66719e+22
2.17024  1.63196e+22
2.28754  1.59911e+22
2.40485  1.56849e+22
2.52216  1.53986e+22
2.63946  1.51287e+22
2.75677  1.48717e+22
2.87407  1.46232e+22
2.99137  1.43789e+22
3.10868  1.41351e+22
3.22599  1.38884e+22
3.34329  1.36361e+22
3.4606  1.33761e+22
3.5779  1.31068e+22
3.69521  1.2828e+22
3.81251  1.25396e+22
3.92982  1.2242e+22
4.04712  1.19361e+22
4.16443  1.16233e+22
4.28173  1.13047e+22
4.39903  1.09819e+22
4.51634  1.06563e+22
4.63364  1.03294e+22
4.75095  1.00023e+22
4.86825  9.67662e+21
4.98556  9.35377e+21
5.10286  9.03505e+21
5.22017  8.72162e+21
5.33748  8.41532e+21
5.45478  8.11755e+21
5.57209  7.82973e+21
5.68939  7.55311e+21
5.8067  7.28899e+21
5.924  7.03793e+21
6.0413  6.80056e+21
6.15861  6.57679e+21
6.27591  6.36589e+21
6.39322  6.16716e+21
6.51052  5.97903e+21
6.62783  5.79973e+21
6.74514  5.62751e+21
6.86244  5.46049e+21
6.97975  5.29659e+21
7.09705  5.13446e+21
7.21436  4.97282e+21
7.33166  4.81076e+21
7.44897  4.64849e+21
7.56627  4.48633e+21
7.68358  4.32526e+21
7.80088  4.16689e+21
7.91819  4.01308e+21
8.03549  3.86625e+21
8.1528  3.72861e+21
8.2701  3.60206e+21
8.38741  3.48889e+21
8.50471  3.39053e+21
8.62202  3.30793e+21
8.73932  3.24168e+21
8.85662  3.19185e+21
8.97393  3.15748e+21
9.09123  3.13741e+21
9.20854  3.13011e+21
9.32584  3.1333e+21
9.44315  3.14423e+21
9.56045  3.16028e+21
9.67776  3.1787e+21
9.79506  3.19638e+21
9.91237  3.2107e+21
10.0297  3.21956e+21
10.147  3.22081e+21
10.2643  3.21308e+21
10.3816  3.1953e+21
10.4989  3.16739e+21
10.6162  3.12916e+21
10.7335  3.0815e+21
10.8508  3.02515e+21
10.9681  2.9612e+21
11.0854  2.89116e+21
11.2027  2.81611e+21
11.32  2.73733e+21
11.4373  2.65599e+21
11.5546  2.57319e+21
11.6719  2.48962e+21
11.7893  2.40627e+21
11.9066  2.32347e+21
12.0239  2.24145e+21
12.1412  2.16109e+21
12.2585  2.08253e+21
12.3758  2.00619e+21
12.4931  1.93261e+21
12.6104  1.86221e+21
12.7277  1.79571e+21
12.845  1.73368e+21
12.9623  1.67627e+21
13.0796  1.62431e+21
13.1969  1.57761e+21
13.3142  1.53633e+21
13.4315  1.49984e+21
13.5488  1.46767e+21
13.6661  1.43876e+21
13.7834  1.4119e+21
13.9007  1.3857e+21
14.018  1.3587e+21
14.1354  1.32929e+21
14.2527  1.29618e+21
14.37  1.25832e+21
14.4873  1.21477e+21
14.6046  1.16557e+21
14.7219  1.11082e+21
14.8392  1.05143e+21
14.9565  9.88548e+20
15.0738  9.23914e+20
15.1911  8.59542e+20
15.3084  7.97291e+20
15.4257  7.39189e+20
15.543  6.86929e+20
15.6603  6.41764e+20
15.7776  6.04574e+20
15.8949  5.75528e+20
16.0122  5.54435e+20
16.1295  5.40595e+20
16.2468  5.32918e+20
16.3641  5.30116e+20
16.4815  5.30706e+20
16.5988  5.33215e+20
16.7161  5.36091e+20
16.8334  5.3832e+20
16.9507  5.3869e+20
17.068  5.36723e+20
17.1853  5.32026e+20
17.3026  5.24742e+20
17.4199  5.15117e+20
17.5372  5.03823e+20
17.6545  4.91634e+20
17.7718  4.79297e+20
17.8891  4.67403e+20
18.0064  4.56561e+20
18.1237  4.46869e+20
18.241  4.38398e+20
18.3583  4.31002e+20
18.4756  4.24346e+20
18.5929  4.18026e+20
18.7102  4.1157e+20
18.8275  4.04868e+20
18.9449  3.97603e+20
19.0622  3.89601e+20
19.1795  3.80906e+20
19.2968  3.71309e+20
19.4141  3.60973e+20
19.5314  3.49766e+20
19.6487  3.37709e+20
19.766  3.24924e+20
19.8833  3.11246e+20
20.0006  2.96918e+20
20.1179  2.81924e+20
20.2352  2.66432e+20
20.3525  2.50501e+20
20.4698  2.34257e+20
20.5871  2.17888e+20
20.7044  2.01611e+20
20.8217  1.85654e+20
20.939  1.70357e+20
21.0563  1.56104e+20
21.1736  1.43323e+20
21.291  1.32473e+20
21.4083  1.23908e+20
21.5256  1.17699e+20
21.6429  1.13869e+20
21.7602  1.12099e+20
21.8775  1.11902e+20
21.9948  1.12631e+20
22.1121  1.13592e+20
22.2294  1.14116e+20
22.3467  1.1373e+20
22.464  1.1201e+20
22.5813  1.08885e+20
22.6986  1.04329e+20
22.8159  9.85797e+19
22.9332  9.18339e+19
23.0505  8.44055e+19
23.1678  7.6541e+19
23.2851  6.85074e+19
23.4024  6.04931e+19
23.5198  5.27023e+19
23.6371  4.52895e+19
23.7544  3.84206e+19
23.8717  3.22464e+19
23.989  2.68707e+19
24.1063  2.2379e+19
24.2236  1.88184e+19
24.3409  1.62343e+19
24.4582  1.46317e+19
24.5755  1.39887e+19
24.6928  1.43152e+19
24.8101  1.55797e+19
24.9274  1.77373e+19
25.0447  2.07231e+19
25.162  2.44443e+19
25.2793  2.87852e+19
25.3966  3.35777e+19
25.5139  3.8711e+19
25.6312  4.40278e+19
25.7485  4.94211e+19
25.8658  5.48202e+19
25.9832  6.00683e+19
26.1005  6.51495e+19
26.2178  6.98538e+19
26.3351  7.39882e+19
26.4524  7.73084e+19
26.5697  7.9546e+19
26.687  8.04094e+19
26.8043  7.97285e+19
26.9216  7.74003e+19
27.0389  7.34575e+19
27.1562  6.81175e+19
27.2735  6.16652e+19
27.3908  5.45284e+19
27.5081  4.71629e+19
27.6254  3.99899e+19
27.7427  3.34041e+19
27.86  2.76886e+19
27.9773  2.30531e+19
28.0946  1.96236e+19
28.212  1.74041e+19
28.3293  1.63659e+19
28.4466  1.64146e+19
28.5639  1.73983e+19
28.6812  1.91586e+19
28.7985  2.14852e+19
28.9158  2.41793e+19
29.0331  2.70336e+19
29.1504  2.9859e+19
29.2677  3.25288e+19
29.385  3.48953e+19
29.5023  3.6884e+19
29.6196  3.84449e+19
29.7369  3.95494e+19
29.8542  4.01826e+19
29.9715  4.03018e+19
30.0888  3.99511e+19
30.2061  3.91015e+19
30.3234  3.78198e+19
30.4407  3.61605e+19
30.558  3.41701e+19
30.6754  3.19801e+19
30.7927  2.96009e+19
30.91  2.71347e+19
31.0273  2.46113e+19
31.1446  2.20304e+19
31.2619  1.9401e+19
31.3792  1.67347e+19
31.4965  1.40789e+19
31.6138  1.15084e+19
31.7311  9.12963e+18
31.8484  7.09528e+18
31.9657  5.55665e+18
32.083  4.63797e+18
32.2003  4.42611e+18
32.3176  4.94901e+18
32.4349  6.16295e+18
32.5522  7.96104e+18
32.6695  1.01903e+19
32.7868  1.26406e+19
32.9042  1.50874e+19
33.0215  1.73169e+19
33.1388  1.90874e+19
33.2561  2.02519e+19
33.3734  2.06332e+19
33.4907  2.0196e+19
33.608  1.89555e+19
33.7253  1.70396e+19
33.8426  1.4649e+19
33.9599  1.20605e+19
34.0772  9.58758e+18
34.1945  7.51465e+18
34.3118  6.06813e+18
34.4291  5.36965e+18
34.5464  5.44201e+18
34.6637  6.19741e+18
34.781  7.48145e+18
34.8983  9.09195e+18
35.0156  1.08408e+19
35.1329  1.25646e+19
35.2503  1.41328e+19
35.3676  1.54704e+19
35.4849  1.64513e+19
35.6022  1.70226e+19
35.7195  1.70936e+19
35.8368  1.66083e+19
35.9541  1.55429e+19
36.0714  1.40201e+19
36.1887  1.22757e+19
36.306  1.06739e+19
36.4233  9.71214e+18
36.5406  9.89449e+18
36.6579  1.16328e+19
36.7752  1.51453e+19
36.8925  2.03522e+19
37.0098  2.68361e+19
37.1271  3.39274e+19
37.2444  4.06881e+19
37.3617  4.62189e+19
37.479  4.96896e+19
37.5964  5.05711e+19
37.7137  4.8765e+19
37.831  4.44691e+19
37.9483  3.8361e+19
38.0656  3.11631e+19
38.1829  2.38046e+19
38.3002  1.70136e+19
38.4175  1.13545e+19
38.5348  7.11567e+18
38.6521  4.33793e+18
38.7694  2.8886e+18
38.8867  2.53533e+18
39.004  3.04318e+18
39.1213  4.22804e+18
39.2386  5.98472e+18
39.3559  8.23747e+18
39.4732  1.09282e+19
39.5905  1.39556e+19
39.7078  1.71431e+19
39.8251  2.02591e+19
39.9425  2.2994e+19
40.0598  2.50763e+19
40.1771  2.62764e+19
40.2944  2.65007e+19
40.4117  2.57482e+19
40.529  2.41684e+19
40.6463  2.19904e+19
40.7636  1.94522e+19
40.8809  1.68392e+19
40.9982  1.43733e+19
41.1155  1.22069e+19
41.2328  1.04526e+19
41.3501  9.15416e+18
41.4674  8.30179e+18
41.5847  7.83513e+18
41.702  7.66039e+18
41.8193  7.64318e+18
41.9366  7.63071e+18
42.0539  7.48833e+18
42.1712  7.11706e+18
42.2885  6.48016e+18
42.4059  5.63182e+18
42.5232  4.71729e+18
42.6405  3.94506e+18
42.7578  3.5246e+18
42.8751  3.62074e+18
42.9924  4.28974e+18
43.1097  5.45928e+18
43.227  6.92676e+18
43.3443  8.41662e+18
43.4616  9.635e+18
43.5789  1.03684e+19
43.6962  1.05382e+19
43.8135  1.01928e+19
43.9308  9.53622e+18
44.0481  8.80266e+18
44.1654  8.22659e+18
44.2827  7.90943e+18
44.4  7.82667e+18
44.5173  7.81432e+18
44.6347  7.6562e+18
44.752  7.12461e+18
44.8693  6.1322e+18
44.9866  4.74834e+18
45.1039  3.25349e+18
45.2212  2.04315e+18
45.3385  1.57485e+18
45.4558  2.21445e+18
45.5731  4.1266e+18
45.6904  7.20896e+18
45.8077  1.11107e+19
45.925  1.52579e+19
46.0423  1.90109e+19
46.1596  2.1774e+19
46.2769  2.31362e+19
46.3942  2.29433e+19
46.5115  2.12537e+19
46.6288  1.84339e+19
46.7461  1.49098e+19
46.8634  1.11882e+19
46.9808  7.72493e+18
47.0981  4.82415e+18
47.2154  2.69959e+18
47.3327  1.4181e+18
47.45  9.80863e+17
47.5673  1.33065e+18
47.6846  2.40884e+18
47.8019  4.14294e+18
47.9192  6.46613e+18
48.0365  9.29751e+18
48.1538  1.25114e+19
48.2711  1.5944e+19
48.3884  1.93632e+19
48.5057  2.25307e+19
48.623  2.51721e+19
48.7403  2.70501e+19
48.8576  2.80044e+19
48.9749  2.78821e+19
49.0922  2.66647e+19
49.2095  2.44254e+19
49.3269  2.13797e+19
49.4442  1.779e+19
49.5615  1.40619e+19
49.6788  1.05796e+19
49.7961  7.74537e+18
49.9134  5.89408e+18
50.0307  5.24989e+18
50.148  5.85484e+18
50.2653  7.60735e+18
50.3826  1.02335e+19
50.4999  1.33324e+19
50.6172  1.64669e+19
50.7345  1.92081e+19
50.8518  2.12161e+19
50.9691  2.22653e+19
