#S 1 spectral density
#N 2
#UFWHM 13.9593
#L  abscissas [um]  spectral density
-58.5938  3.11731e+18
-58.4764  3.96687e+18
-58.3591  5.66029e+18
-58.2418  8.09508e+18
-58.1245  1.09704e+19
-58.0072  1.37891e+19
-57.8899  1.60485e+19
-57.7726  1.72953e+19
-57.6553  1.72597e+19
-57.538  1.59401e+19
-57.4207  1.36025e+19
-57.3034  1.06805e+19
-57.1861  7.72238e+18
-57.0688  5.22175e+18
-56.9515  3.54114e+18
-56.8342  2.82741e+18
-56.7169  3.02814e+18
-56.5996  3.92025e+18
-56.4823  5.19095e+18
-56.365  6.528e+18
-56.2477  7.67339e+18
-56.1303  8.47983e+18
-56.013  8.87129e+18
-55.8957  8.87924e+18
-55.7784  8.54887e+18
-55.6611  7.96349e+18
-55.5438  7.20768e+18
-55.4265  6.33886e+18
-55.3092  5.45888e+18
-55.1919  4.67969e+18
-55.0746  4.13364e+18
-54.9573  3.95217e+18
-54.84  4.24389e+18
-54.7227  5.04101e+18
-54.6054  6.31815e+18
-54.4881  7.93485e+18
-54.3708  9.66323e+18
-54.2535  1.12593e+19
-54.1362  1.24713e+19
-54.0189  1.30812e+19
-53.9016  1.29907e+19
-53.7842  1.22116e+19
-53.6669  1.08198e+19
-53.5496  9.02015e+18
-53.4323  7.0657e+18
-53.315  5.22788e+18
-53.1977  3.7759e+18
-53.0804  2.93466e+18
-52.9631  2.86103e+18
-52.8458  3.62207e+18
-52.7285  5.18985e+18
-52.6112  7.4199e+18
-52.4939  1.00575e+19
-52.3766  1.2782e+19
-52.2593  1.52229e+19
-52.142  1.70378e+19
-52.0247  1.79449e+19
-51.9074  1.77966e+19
-51.7901  1.65903e+19
-51.6728  1.44904e+19
-51.5555  1.17594e+19
-51.4381  8.76631e+18
-51.3208  5.86214e+18
-51.2035  3.37639e+18
-51.0862  1.54156e+18
-50.9689  4.94185e+17
-50.8516  2.7401e+17
-50.7343  8.4785e+17
-50.617  2.13277e+18
-50.4997  4.02087e+18
-50.3824  6.38764e+18
-50.2651  9.10951e+18
-50.1478  1.20168e+19
-50.0305  1.49576e+19
-49.9132  1.77111e+19
-49.7959  2.00837e+19
-49.6786  2.18982e+19
-49.5613  2.3016e+19
-49.444  2.33535e+19
-49.3267  2.29337e+19
-49.2094  2.18435e+19
-49.092  2.02282e+19
-48.9747  1.826e+19
-48.8574  1.61239e+19
-48.7401  1.39747e+19
-48.6228  1.19265e+19
-48.5055  1.00773e+19
-48.3882  8.45809e+18
-48.2709  7.10636e+18
-48.1536  6.02755e+18
-48.0363  5.23113e+18
-47.919  4.71397e+18
-47.8017  4.47896e+18
-47.6844  4.51827e+18
-47.5671  4.83978e+18
-47.4498  5.45142e+18
-47.3325  6.33143e+18
-47.2152  7.4714e+18
-47.0979  8.80018e+18
-46.9806  1.02245e+19
-46.8633  1.15843e+19
-46.7459  1.26565e+19
-46.6286  1.32413e+19
-46.5113  1.31398e+19
-46.394  1.22753e+19
-46.2767  1.06813e+19
-46.1594  8.56805e+18
-46.0421  6.29446e+18
-45.9248  4.28601e+18
-45.8075  2.96024e+18
-45.6902  2.61664e+18
-45.5729  3.35171e+18
-45.4556  5.01207e+18
-45.3383  7.22428e+18
-45.221  9.47524e+18
-45.1037  1.12326e+19
-44.9864  1.20917e+19
-44.8691  1.18907e+19
-44.7518  1.07168e+19
-44.6345  8.9605e+18
-44.5172  7.17735e+18
-44.3998  5.93153e+18
-44.2825  5.68069e+18
-44.1652  6.6363e+18
-44.0479  8.72774e+18
-43.9306  1.16244e+19
-43.8133  1.48063e+19
-43.696  1.77114e+19
-43.5787  1.98831e+19
-43.4614  2.1061e+19
-43.3441  2.11967e+19
-43.2268  2.04717e+19
-43.1095  1.92114e+19
-42.9922  1.77911e+19
-42.8749  1.65179e+19
-42.7576  1.56017e+19
-42.6403  1.5078e+19
-42.523  1.4882e+19
-42.4057  1.48564e+19
-42.2884  1.48482e+19
-42.171  1.47397e+19
-42.0537  1.4487e+19
-41.9364  1.41438e+19
-41.8191  1.38122e+19
-41.7018  1.36598e+19
-41.5845  1.38263e+19
-41.4672  1.44404e+19
-41.3499  1.5542e+19
-41.2326  1.71208e+19
-41.1153  1.90623e+19
-40.998  2.11601e+19
-40.8807  2.31463e+19
-40.7634  2.46847e+19
-40.6461  2.54542e+19
-40.5288  2.51502e+19
-40.4115  2.36076e+19
-40.2942  2.08493e+19
-40.1769  1.70939e+19
-40.0596  1.27559e+19
-39.9423  8.45528e+18
-39.825  4.86465e+18
-39.7076  2.58941e+18
-39.5903  2.0627e+18
-39.473  3.43223e+18
-39.3557  6.52698e+18
-39.2384  1.08822e+19
-39.1211  1.58107e+19
-39.0038  2.05677e+19
-38.8865  2.45034e+19
-38.7692  2.71976e+19
-38.6519  2.84961e+19
-38.5346  2.85541e+19
-38.4173  2.77298e+19
-38.3  2.65085e+19
-38.1827  2.53195e+19
-38.0654  2.44488e+19
-37.9481  2.39944e+19
-37.8308  2.38251e+19
-37.7135  2.36878e+19
-37.5962  2.32748e+19
-37.4789  2.23471e+19
-37.3615  2.0824e+19
-37.2442  1.88187e+19
-37.1269  1.6558e+19
-37.0096  1.43986e+19
-36.8923  1.26672e+19
-36.775  1.15949e+19
-36.6577  1.12545e+19
-36.5404  1.15494e+19
-36.4231  1.22361e+19
-36.3058  1.30054e+19
-36.1885  1.35667e+19
-36.0712  1.37142e+19
-35.9539  1.33639e+19
-35.8366  1.25791e+19
-35.7193  1.15201e+19
-35.602  1.03582e+19
-35.4847  9.3198e+18
-35.3674  8.51494e+18
-35.2501  7.99424e+18
-35.1328  7.73063e+18
-35.0154  7.6529e+18
-34.8981  7.67219e+18
-34.7808  7.72416e+18
-34.6635  7.78101e+18
-34.5462  7.85283e+18
-34.4289  7.98405e+18
-34.3116  8.19863e+18
-34.1943  8.50266e+18
-34.077  8.86259e+18
-33.9597  9.20822e+18
-33.8424  9.44465e+18
-33.7251  9.47127e+18
-33.6078  9.22029e+18
-33.4905  8.66247e+18
-33.3732  7.82611e+18
-33.2559  6.78373e+18
-33.1386  5.65268e+18
-33.0213  4.57925e+18
-32.904  3.71644e+18
-32.7867  3.20724e+18
-32.6693  3.18141e+18
-32.552  3.72369e+18
-32.4347  4.88969e+18
-32.3174  6.66943e+18
-32.2001  8.98819e+18
-32.0828  1.17099e+19
-31.9655  1.46131e+19
-31.8482  1.74899e+19
-31.7309  2.00797e+19
-31.6136  2.21438e+19
-31.4963  2.3528e+19
-31.379  2.41355e+19
-31.2617  2.39987e+19
-31.1444  2.3229e+19
-31.0271  2.19918e+19
-30.9098  2.05376e+19
-30.7925  1.9117e+19
-30.6752  1.79881e+19
-30.5579  1.73501e+19
-30.4406  1.73445e+19
-30.3232  1.80452e+19
-30.2059  1.94112e+19
-30.0886  2.13282e+19
-29.9713  2.35981e+19
-29.854  2.59133e+19
-29.7367  2.79294e+19
-29.6194  2.93116e+19
-29.5021  2.97692e+19
-29.3848  2.91066e+19
-29.2675  2.72813e+19
-29.1502  2.44574e+19
-29.0329  2.09858e+19
-28.9156  1.7355e+19
-28.7983  1.41536e+19
-28.681  1.19804e+19
-28.5637  1.13528e+19
-28.4464  1.2633e+19
-28.3291  1.59819e+19
-28.2118  2.1324e+19
-28.0944  2.84045e+19
-27.9771  3.6781e+19
-27.8598  4.58913e+19
-27.7425  5.51664e+19
-27.6252  6.39487e+19
-27.5079  7.17281e+19
-27.3906  7.80242e+19
-27.2733  8.25348e+19
-27.156  8.50346e+19
-27.0387  8.55173e+19
-26.9214  8.4114e+19
-26.8041  8.1108e+19
-26.6868  7.68919e+19
-26.5695  7.18959e+19
-26.4522  6.65527e+19
-26.3349  6.12673e+19
-26.2176  5.62978e+19
-26.1003  5.1758e+19
-25.983  4.76181e+19
-25.8657  4.37436e+19
-25.7483  3.99634e+19
-25.631  3.61026e+19
-25.5137  3.20791e+19
-25.3964  2.78844e+19
-25.2791  2.36474e+19
-25.1618  1.95904e+19
-25.0445  1.60032e+19
-24.9272  1.31886e+19
-24.8099  1.14243e+19
-24.6926  1.09232e+19
-24.5753  1.18258e+19
-24.458  1.41351e+19
-24.3407  1.77976e+19
-24.2234  2.26408e+19
-24.1061  2.84339e+19
-23.9888  3.48905e+19
-23.8715  4.16688e+19
-23.7542  4.8471e+19
-23.6369  5.49957e+19
-23.5196  6.09973e+19
-23.4023  6.63328e+19
-23.2849  7.09205e+19
-23.1676  7.47812e+19
-23.0503  7.80281e+19
-22.933  8.07238e+19
-22.8157  8.30884e+19
-22.6984  8.52021e+19
-22.5811  8.72305e+19
-22.4638  8.93821e+19
-22.3465  9.17637e+19
-22.2292  9.4662e+19
-22.1119  9.82988e+19
-21.9946  1.02934e+20
-21.8773  1.08733e+20
-21.76  1.15832e+20
-21.6427  1.24222e+20
-21.5254  1.33684e+20
-21.4081  1.43909e+20
-21.2908  1.54438e+20
-21.1735  1.64769e+20
-21.0561  1.74458e+20
-20.9388  1.83078e+20
-20.8215  1.90502e+20
-20.7042  1.96573e+20
-20.5869  2.01407e+20
-20.4696  2.05099e+20
-20.3523  2.07873e+20
-20.235  2.09785e+20
-20.1177  2.11076e+20
-20.0004  2.11719e+20
-19.8831  2.11726e+20
-19.7658  2.11194e+20
-19.6485  2.10227e+20
-19.5312  2.08985e+20
-19.4139  2.07693e+20
-19.2966  2.06636e+20
-19.1793  2.0612e+20
-19.062  2.06426e+20
-18.9447  2.07868e+20
-18.8274  2.10748e+20
-18.71  2.15271e+20
-18.5927  2.2176e+20
-18.4754  2.30523e+20
-18.3581  2.41774e+20
-18.2408  2.55827e+20
-18.1235  2.72719e+20
-18.0062  2.92488e+20
-17.8889  3.1492e+20
-17.7716  3.39454e+20
-17.6543  3.65667e+20
-17.537  3.92618e+20
-17.4197  4.19594e+20
-17.3024  4.45663e+20
-17.1851  4.70192e+20
-17.0678  4.92612e+20
-16.9505  5.12503e+20
-16.8332  5.29779e+20
-16.7159  5.44529e+20
-16.5986  5.57174e+20
-16.4813  5.68281e+20
-16.364  5.78714e+20
-16.2466  5.89414e+20
-16.1293  6.0131e+20
-16.012  6.15871e+20
-15.8947  6.34086e+20
-15.7774  6.57015e+20
-15.6601  6.85434e+20
-15.5428  7.19811e+20
-15.4255  7.60134e+20
-15.3082  8.06085e+20
-15.1909  8.56463e+20
-15.0736  9.10227e+20
-14.9563  9.65616e+20
-14.839  1.02093e+21
-14.7217  1.07415e+21
-14.6044  1.12394e+21
-14.4871  1.16872e+21
-14.3698  1.20778e+21
-14.2525  1.24059e+21
-14.1352  1.26733e+21
-14.0178  1.28847e+21
-13.9005  1.30514e+21
-13.7832  1.3187e+21
-13.6659  1.33061e+21
-13.5486  1.34266e+21
-13.4313  1.35656e+21
-13.314  1.37369e+21
-13.1967  1.39529e+21
-13.0794  1.42241e+21
-12.9621  1.45563e+21
-12.8448  1.49533e+21
-12.7275  1.54157e+21
-12.6102  1.59429e+21
-12.4929  1.65321e+21
-12.3756  1.71811e+21
-12.2583  1.78879e+21
-12.141  1.86514e+21
-12.0237  1.94716e+21
-11.9064  2.03489e+21
-11.7891  2.12859e+21
-11.6718  2.22847e+21
-11.5544  2.33458e+21
-11.4371  2.44663e+21
-11.3198  2.56442e+21
-11.2025  2.68691e+21
-11.0852  2.81313e+21
-10.9679  2.94145e+21
-10.8506  3.06991e+21
-10.7333  3.19637e+21
-10.616  3.31873e+21
-10.4987  3.43517e+21
-10.3814  3.54367e+21
-10.2641  3.64306e+21
-10.1468  3.73334e+21
-10.0295  3.81445e+21
-9.91217  3.88765e+21
-9.79487  3.95527e+21
-9.67756  4.02005e+21
-9.56026  4.08524e+21
-9.44295  4.15434e+21
-9.32565  4.23139e+21
-9.20834  4.31947e+21
-9.09104  4.42167e+21
-8.97373  4.53994e+21
-8.85643  4.67607e+21
-8.73913  4.82991e+21
-8.62182  5.00113e+21
-8.50452  5.18808e+21
-8.38721  5.38881e+21
-8.26991  5.59996e+21
-8.1526  5.8186e+21
-8.03529  6.04078e+21
-7.91799  6.26321e+21
-7.80069  6.48256e+21
-7.68338  6.69562e+21
-7.56608  6.90021e+21
-7.44877  7.09465e+21
-7.33146  7.27758e+21
-7.21416  7.44858e+21
-7.09685  7.60777e+21
-6.97955  7.75593e+21
-6.86224  7.89412e+21
-6.74494  8.0241e+21
-6.62763  8.14712e+21
-6.51033  8.26578e+21
-6.39302  8.38236e+21
-6.27572  8.49924e+21
-6.15842  8.61903e+21
-6.04111  8.74421e+21
-5.92381  8.87698e+21
-5.8065  9.01956e+21
-5.68919  9.17327e+21
-5.57189  9.33904e+21
-5.45458  9.5172e+21
-5.33728  9.7073e+21
-5.21997  9.90748e+21
-5.10267  1.01161e+22
-4.98536  1.03301e+22
-4.86806  1.0546e+22
-4.75075  1.07603e+22
-4.63345  1.09688e+22
-4.51614  1.11679e+22
-4.39884  1.13538e+22
-4.28154  1.15238e+22
-4.16423  1.16765e+22
-4.04692  1.181e+22
-3.92962  1.19252e+22
-3.81231  1.20234e+22
-3.69501  1.21067e+22
-3.5777  1.21791e+22
-3.4604  1.22441e+22
-3.34309  1.2306e+22
-3.22579  1.23691e+22
-3.10849  1.24379e+22
-2.99118  1.25156e+22
-2.87387  1.26051e+22
-2.75657  1.27084e+22
-2.63926  1.28265e+22
-2.52196  1.29588e+22
-2.40465  1.31047e+22
-2.28735  1.32618e+22
-2.17005  1.34277e+22
-2.05274  1.35995e+22
-1.93544  1.37736e+22
-1.81813  1.39471e+22
-1.70083  1.41169e+22
-1.58352  1.42804e+22
-1.46622  1.44357e+22
-1.34891  1.45808e+22
-1.2316  1.4715e+22
-1.1143  1.48371e+22
-0.996995  1.49471e+22
-0.87969  1.50449e+22
-0.762385  1.51296e+22
-0.64508  1.52021e+22
-0.527775  1.52623e+22
-0.41047  1.53099e+22
-0.293165  1.53451e+22
-0.17586  1.53683e+22
-0.058555  1.53794e+22
0.05875  1.53782e+22
0.176055  1.5365e+22
0.29336  1.53398e+22
0.410665  1.53025e+22
0.52797  1.52527e+22
0.645275  1.51907e+22
0.76258  1.51165e+22
0.879885  1.50301e+22
0.99719  1.49312e+22
1.1145  1.482e+22
1.2318  1.46967e+22
1.3491  1.45618e+22
1.46641  1.44158e+22
1.58371  1.42599e+22
1.70102  1.40958e+22
1.81832  1.39254e+22
1.93563  1.37517e+22
2.05294  1.35772e+22
2.17024  1.34055e+22
2.28754  1.32397e+22
2.40485  1.30825e+22
2.52216  1.29368e+22
2.63946  1.28045e+22
2.75677  1.26866e+22
2.87407  1.25835e+22
2.99137  1.24939e+22
3.10868  1.24162e+22
3.22599  1.23474e+22
3.34329  1.22841e+22
3.4606  1.22221e+22
3.5779  1.21568e+22
3.69521  1.20843e+22
3.81251  1.20004e+22
3.92982  1.19014e+22
4.04712  1.17854e+22
4.16443  1.1651e+22
4.28173  1.14975e+22
4.39903  1.13263e+22
4.51634  1.11393e+22
4.63364  1.09393e+22
4.75095  1.07297e+22
4.86825  1.05144e+22
4.98556  1.02976e+22
5.10286  1.00831e+22
5.22017  9.87359e+21
5.33748  9.67294e+21
5.45478  9.48271e+21
5.57209  9.30452e+21
5.68939  9.13866e+21
5.8067  8.98495e+21
5.924  8.84253e+21
6.0413  8.71003e+21
6.15861  8.5852e+21
6.27591  8.4655e+21
6.39322  8.34881e+21
6.51052  8.23232e+21
6.62783  8.11352e+21
6.74514  7.99013e+21
6.86244  7.86021e+21
6.97975  7.72154e+21
7.09705  7.57311e+21
7.21436  7.41353e+21
7.33166  7.24199e+21
7.44897  7.05894e+21
7.56627  6.86451e+21
7.68358  6.65982e+21
7.80088  6.44687e+21
7.91819  6.2279e+21
8.03549  6.00601e+21
8.1528  5.78461e+21
8.2701  5.56681e+21
8.38741  5.35656e+21
8.50471  5.15683e+21
8.62202  4.971e+21
8.73932  4.80076e+21
8.85662  4.6479e+21
8.97393  4.5128e+21
9.09123  4.39519e+21
9.20854  4.29369e+21
9.32584  4.20607e+21
9.44315  4.12941e+21
9.56045  4.06031e+21
9.67776  3.99531e+21
9.79506  3.93053e+21
9.91237  3.86294e+21
10.0297  3.7897e+21
10.147  3.70882e+21
10.2643  3.61888e+21
10.3816  3.51967e+21
10.4989  3.41157e+21
10.6162  3.29579e+21
10.7335  3.17395e+21
10.8508  3.04819e+21
10.9681  2.92049e+21
11.0854  2.79317e+21
11.2027  2.66786e+21
11.32  2.54619e+21
11.4373  2.42935e+21
11.5546  2.31808e+21
11.6719  2.21269e+21
11.7893  2.11368e+21
11.9066  2.0207e+21
12.0239  1.93351e+21
12.1412  1.85229e+21
12.2585  1.77653e+21
12.3758  1.70649e+21
12.4931  1.64215e+21
12.6104  1.58377e+21
12.7277  1.53154e+21
12.845  1.48566e+21
12.9623  1.44629e+21
13.0796  1.41347e+21
13.1969  1.3865e+21
13.3142  1.36514e+21
13.4315  1.34816e+21
13.5488  1.33429e+21
13.6661  1.32219e+21
13.7834  1.31021e+21
13.9007  1.29662e+21
14.018  1.27982e+21
14.1354  1.25865e+21
14.2527  1.23197e+21
14.37  1.19917e+21
14.4873  1.16024e+21
14.6046  1.11552e+21
14.7219  1.06595e+21
14.8392  1.01289e+21
14.9565  9.57875e+20
15.0738  9.02855e+20
15.1911  8.49403e+20
15.3084  7.99302e+20
15.4257  7.53748e+20
15.543  7.13775e+20
15.6603  6.7973e+20
15.7776  6.51603e+20
15.8949  6.28936e+20
16.0122  6.11039e+20
16.1295  5.96734e+20
16.2468  5.8496e+20
16.3641  5.74536e+20
16.4815  5.64273e+20
16.5988  5.53314e+20
16.7161  5.40845e+20
16.8334  5.26207e+20
16.9507  5.09066e+20
17.068  4.89316e+20
17.1853  4.67044e+20
17.3026  4.42672e+20
17.4199  4.16674e+20
17.5372  3.89792e+20
17.6545  3.62973e+20
17.7718  3.36914e+20
17.8891  3.12418e+20
18.0064  2.90157e+20
18.1237  2.70568e+20
18.241  2.53786e+20
18.3583  2.39906e+20
18.4756  2.28802e+20
18.5929  2.20223e+20
18.7102  2.13835e+20
18.8275  2.09474e+20
18.9449  2.06748e+20
19.0622  2.05412e+20
19.1795  2.05226e+20
19.2968  2.05828e+20
19.4141  2.06965e+20
19.5314  2.08288e+20
19.6487  2.09534e+20
19.766  2.10549e+20
19.8833  2.11019e+20
20.0006  2.11012e+20
20.1179  2.10396e+20
20.2352  2.09159e+20
20.3525  2.07209e+20
20.4698  2.04445e+20
20.5871  2.00746e+20
20.7044  1.95925e+20
20.8217  1.89861e+20
20.939  1.82483e+20
21.0563  1.73795e+20
21.1736  1.64106e+20
21.291  1.53736e+20
21.4083  1.43222e+20
21.5256  1.32975e+20
21.6429  1.23515e+20
21.7602  1.15147e+20
21.8775  1.08051e+20
21.9948  1.02254e+20
22.1121  9.76684e+19
22.2294  9.4051e+19
22.3467  9.11753e+19
22.464  8.87843e+19
22.5813  8.66705e+19
22.6986  8.46295e+19
22.8159  8.25323e+19
22.9332  8.01954e+19
23.0505  7.7498e+19
23.1678  7.42694e+19
23.2851  7.03979e+19
23.4024  6.58269e+19
23.5198  6.05033e+19
23.6371  5.45124e+19
23.7544  4.80118e+19
23.8717  4.12423e+19
23.989  3.45031e+19
24.1063  2.80951e+19
24.2236  2.23544e+19
24.3409  1.75716e+19
24.4582  1.39713e+19
24.5755  1.17242e+19
24.6928  1.08875e+19
24.8101  1.14422e+19
24.9274  1.32521e+19
25.0447  1.61073e+19
25.162  1.97257e+19
25.2793  2.38008e+19
25.3966  2.80451e+19
25.5139  3.22412e+19
25.6312  3.62675e+19
25.7485  4.01306e+19
25.8658  4.3926e+19
25.9832  4.78056e+19
26.1005  5.19825e+19
26.2178  5.65703e+19
26.3351  6.15616e+19
26.4524  6.68559e+19
26.5697  7.21867e+19
26.687  7.71633e+19
26.8043  8.13461e+19
26.9216  8.4293e+19
27.0389  8.55812e+19
27.1562  8.49851e+19
27.2735  8.23629e+19
27.3908  7.77473e+19
27.5081  7.13526e+19
27.6254  6.35032e+19
27.7427  5.46832e+19
27.86  4.5427e+19
27.9773  3.63425e+19
28.0946  2.80348e+19
28.212  2.10349e+19
28.3293  1.57921e+19
28.4466  1.25503e+19
28.5639  1.13688e+19
28.6812  1.20813e+19
28.7985  1.43198e+19
28.9158  1.7559e+19
29.0331  2.12045e+19
29.1504  2.46701e+19
29.2677  2.74645e+19
29.385  2.92562e+19
29.5023  2.98875e+19
29.6196  2.93896e+19
29.7369  2.79669e+19
29.8542  2.59278e+19
29.9715  2.36037e+19
30.0888  2.13399e+19
30.2061  1.94173e+19
30.3234  1.80606e+19
30.4407  1.73828e+19
30.558  1.73947e+19
30.6754  1.80504e+19
30.7927  1.91656e+19
30.91  2.05629e+19
31.0273  2.19923e+19
31.1446  2.32e+19
31.2619  2.39368e+19
31.3792  2.40389e+19
31.4965  2.33867e+19
31.6138  2.19745e+19
31.7311  1.98885e+19
31.8484  1.7309e+19
31.9657  1.44557e+19
32.083  1.1563e+19
32.2003  8.87595e+18
32.3176  6.59551e+18
32.4349  4.84263e+18
32.5522  3.70623e+18
32.6695  3.18304e+18
32.7868  3.22573e+18
32.9042  3.74207e+18
33.0215  4.60796e+18
33.1388  5.67547e+18
33.2561  6.79635e+18
33.3734  7.82514e+18
33.4907  8.65228e+18
33.608  9.20096e+18
33.7253  9.44382e+18
33.8426  9.41889e+18
33.9599  9.18868e+18
34.0772  8.8547e+18
34.1945  8.50771e+18
34.3118  8.21938e+18
34.4291  8.02043e+18
34.5464  7.90309e+18
34.6637  7.83482e+18
34.781  7.78311e+18
34.8983  7.73407e+18
35.0156  7.71784e+18
35.1329  7.80034e+18
35.2503  8.06792e+18
35.3676  8.59906e+18
35.4849  9.40892e+18
35.6022  1.04556e+19
35.7195  1.1603e+19
35.8368  1.26776e+19
35.9541  1.34452e+19
36.0714  1.37851e+19
36.1887  1.36278e+19
36.306  1.30501e+19
36.4233  1.22641e+19
36.5406  1.15668e+19
36.6579  1.12653e+19
36.7752  1.15947e+19
36.8925  1.26534e+19
37.0098  1.4373e+19
37.1271  1.6524e+19
37.2444  1.87669e+19
37.3617  2.07712e+19
37.479  2.22979e+19
37.5964  2.32461e+19
37.7137  2.36975e+19
37.831  2.38789e+19
37.9483  2.41095e+19
38.0656  2.46176e+19
38.1829  2.55419e+19
38.3002  2.67663e+19
38.4175  2.79961e+19
38.5348  2.88092e+19
38.6521  2.87066e+19
38.7694  2.73555e+19
38.8867  2.4596e+19
39.004  2.05861e+19
39.1213  1.5764e+19
39.2386  1.08025e+19
39.3559  6.45078e+18
39.4732  3.37978e+18
39.5905  2.05504e+18
39.7078  2.64398e+18
39.8251  4.98753e+18
39.9425  8.64169e+18
40.0598  1.29746e+19
40.1771  1.7325e+19
40.2944  2.10927e+19
40.4117  2.38251e+19
40.529  2.53226e+19
40.6463  2.55918e+19
40.7636  2.47804e+19
40.8809  2.31972e+19
40.9982  2.11925e+19
41.1155  1.90734e+19
41.2328  1.71372e+19
41.3501  1.55671e+19
41.4674  1.44843e+19
41.5847  1.38947e+19
41.702  1.37463e+19
41.8193  1.39133e+19
41.9366  1.42426e+19
42.0539  1.45831e+19
42.1712  1.48203e+19
42.2885  1.49093e+19
42.4059  1.48893e+19
42.5232  1.48881e+19
42.6405  1.50512e+19
42.7578  1.5567e+19
42.8751  1.64862e+19
42.9924  1.77515e+19
43.1097  1.91748e+19
43.227  2.04432e+19
43.3443  2.11642e+19
43.4616  2.10338e+19
43.5789  1.98469e+19
43.6962  1.76643e+19
43.8135  1.47412e+19
43.9308  1.15674e+19
44.0481  8.68476e+18
44.1654  6.61141e+18
44.2827  5.67024e+18
44.4  5.93557e+18
44.5173  7.1872e+18
44.6347  8.96744e+18
44.752  1.06935e+19
44.8693  1.18311e+19
44.9866  1.20164e+19
45.1039  1.11226e+19
45.2212  9.35651e+18
45.3385  7.11338e+18
45.4558  4.91967e+18
45.5731  3.2973e+18
45.6904  2.6176e+18
45.8077  3.01154e+18
45.925  4.38171e+18
46.0423  6.4233e+18
46.1596  8.71097e+18
46.2769  1.08177e+19
46.3942  1.24002e+19
46.5115  1.32469e+19
46.6288  1.3325e+19
46.7461  1.27175e+19
46.8634  1.16197e+19
46.9808  1.02581e+19
47.0981  8.82148e+18
47.2154  7.47804e+18
47.3327  6.32246e+18
47.45  5.43798e+18
47.5673  4.83111e+18
47.6846  4.50673e+18
47.8019  4.46669e+18
47.9192  4.72044e+18
48.0365  5.25948e+18
48.1538  6.08183e+18
48.2711  7.18454e+18
48.3884  8.56596e+18
48.5057  1.02101e+19
48.623  1.20905e+19
48.7403  1.41454e+19
48.8576  1.63177e+19
48.9749  1.84703e+19
49.0922  2.04402e+19
49.2095  2.20471e+19
49.3269  2.31402e+19
49.4442  2.35352e+19
49.5615  2.3167e+19
49.6788  2.20144e+19
49.7961  2.01649e+19
49.9134  1.77389e+19
50.0307  1.49386e+19
50.148  1.19734e+19
50.2653  9.03421e+18
50.3826  6.3086e+18
50.4999  3.93939e+18
50.6172  2.06767e+18
50.7345  8.08928e+17
