#S 1 spectral density
#N 2
#UFWHM 13.842
#L  abscissas [um]  spectral density
-58.5938  7.25242e+18
-58.4764  8.56477e+18
-58.3591  9.67231e+18
-58.2418  1.04976e+19
-58.1245  1.09616e+19
-58.0072  1.09842e+19
-57.8899  1.05479e+19
-57.7726  9.69622e+18
-57.6553  8.58601e+18
-57.538  7.46008e+18
-57.4207  6.61308e+18
-57.3034  6.32046e+18
-57.1861  6.76299e+18
-57.0688  7.95033e+18
-56.9515  9.71686e+18
-56.8342  1.17361e+19
-56.7169  1.36201e+19
-56.5996  1.49509e+19
-56.4823  1.54669e+19
-56.365  1.50733e+19
-56.2477  1.38306e+19
-56.1303  1.20284e+19
-56.013  1.00257e+19
-55.8957  8.18215e+18
-55.7784  6.7708e+18
-55.6611  5.94336e+18
-55.5438  5.6874e+18
-55.4265  5.8837e+18
-55.3092  6.32053e+18
-55.1919  6.7928e+18
-55.0746  7.13188e+18
-54.9573  7.25308e+18
-54.84  7.13303e+18
-54.7227  6.82409e+18
-54.6054  6.38262e+18
-54.4881  5.87772e+18
-54.3708  5.35491e+18
-54.2535  4.85073e+18
-54.1362  4.39517e+18
-54.0189  4.0233e+18
-53.9016  3.79258e+18
-53.7842  3.77412e+18
-53.6669  4.04912e+18
-53.5496  4.68995e+18
-53.4323  5.72513e+18
-53.315  7.14335e+18
-53.1977  8.86887e+18
-53.0804  1.07869e+19
-52.9631  1.27275e+19
-52.8458  1.4506e+19
-52.7285  1.59494e+19
-52.6112  1.68734e+19
-52.4939  1.71539e+19
-52.3766  1.67017e+19
-52.2593  1.55426e+19
-52.142  1.37528e+19
-52.0247  1.15306e+19
-51.9074  9.1453e+18
-51.7901  6.92924e+18
-51.6728  5.23388e+18
-51.5555  4.3341e+18
-51.4381  4.42511e+18
-51.3208  5.51564e+18
-51.2035  7.4588e+18
-51.0862  9.9202e+18
-50.9689  1.25068e+19
-50.8516  1.47872e+19
-50.7343  1.63499e+19
-50.617  1.69792e+19
-50.4997  1.66162e+19
-50.3824  1.53554e+19
-50.2651  1.35196e+19
-50.1478  1.14026e+19
-50.0305  9.41373e+18
-49.9132  7.80334e+18
-49.7959  6.7629e+18
-49.6786  6.33204e+18
-49.5613  6.41822e+18
-49.444  6.83985e+18
-49.3267  7.37745e+18
-49.2094  7.82702e+18
-49.092  8.03296e+18
-48.9747  7.92165e+18
-48.8574  7.5124e+18
-48.7401  6.90267e+18
-48.6228  6.25606e+18
-48.5055  5.76367e+18
-48.3882  5.58019e+18
-48.2709  5.83065e+18
-48.1536  6.53231e+18
-48.0363  7.61719e+18
-47.919  8.89906e+18
-47.8017  1.0161e+19
-47.6844  1.11341e+19
-47.5671  1.16141e+19
-47.4498  1.14783e+19
-47.3325  1.07352e+19
-47.2152  9.50297e+18
-47.0979  8.0249e+18
-46.9806  6.57652e+18
-46.8633  5.41221e+18
-46.7459  4.69199e+18
-46.6286  4.47191e+18
-46.5113  4.68181e+18
-46.394  5.16508e+18
-46.2767  5.74063e+18
-46.1594  6.2562e+18
-46.0421  6.63595e+18
-45.9248  6.90173e+18
-45.8075  7.12558e+18
-45.6902  7.40966e+18
-45.5729  7.81454e+18
-45.4556  8.33729e+18
-45.3383  8.84868e+18
-45.221  9.21292e+18
-45.1037  9.24281e+18
-44.9864  8.83284e+18
-44.8691  8.009e+18
-44.7518  6.93722e+18
-44.6345  5.88173e+18
-44.5172  5.15279e+18
-44.3998  5.0127e+18
-44.2825  5.57987e+18
-44.1652  6.7812e+18
-44.0479  8.35967e+18
-43.9306  9.91403e+18
-43.8133  1.10372e+19
-43.696  1.13955e+19
-43.5787  1.08358e+19
-43.4614  9.43226e+18
-43.3441  7.48796e+18
-43.2268  5.42897e+18
-43.1095  3.72453e+18
-42.9922  2.74686e+18
-42.8749  2.70136e+18
-42.7576  3.57359e+18
-42.6403  5.16952e+18
-42.523  7.13829e+18
-42.4057  9.12073e+18
-42.2884  1.0806e+19
-42.171  1.20232e+19
-42.0537  1.27116e+19
-41.9364  1.29907e+19
-41.8191  1.30342e+19
-41.7018  1.3061e+19
-41.5845  1.32157e+19
-41.4672  1.35807e+19
-41.3499  1.41176e+19
-41.2326  1.47279e+19
-41.1153  1.52201e+19
-40.998  1.53984e+19
-40.8807  1.51077e+19
-40.7634  1.42686e+19
-40.6461  1.28864e+19
-40.5288  1.11082e+19
-40.4115  9.19671e+18
-40.2942  7.54189e+18
-40.1769  6.61293e+18
-40.0596  6.87238e+18
-39.9423  8.72632e+18
-39.825  1.24081e+19
-39.7076  1.78745e+19
-39.5903  2.48073e+19
-39.473  3.2533e+19
-39.3557  4.01903e+19
-39.2384  4.67719e+19
-39.1211  5.13234e+19
-39.0038  5.31742e+19
-38.8865  5.20345e+19
-38.7692  4.80505e+19
-38.6519  4.19315e+19
-38.5346  3.46583e+19
-38.4173  2.74279e+19
-38.3  2.13441e+19
-38.1827  1.72649e+19
-38.0654  1.55876e+19
-37.9481  1.6233e+19
-37.8308  1.865e+19
-37.7135  2.19869e+19
-37.5962  2.52705e+19
-37.4789  2.76289e+19
-37.3615  2.84412e+19
-37.2442  2.74416e+19
-37.1269  2.47876e+19
-37.0096  2.08784e+19
-36.8923  1.63432e+19
-36.775  1.18105e+19
-36.6577  7.8224e+18
-36.5404  4.73912e+18
-36.4231  2.69908e+18
-36.3058  1.66409e+18
-36.1885  1.46065e+18
-36.0712  1.8623e+18
-35.9539  2.65124e+18
-35.8366  3.65746e+18
-35.7193  4.77167e+18
-35.602  5.91644e+18
-35.4847  7.04523e+18
-35.3674  8.09958e+18
-35.2501  9.00839e+18
-35.1328  9.69286e+18
-35.0154  1.00745e+19
-34.8981  1.01215e+19
-34.7808  9.8327e+18
-34.6635  9.25166e+18
-34.5462  8.47387e+18
-34.4289  7.61557e+18
-34.3116  6.76776e+18
-34.1943  6.0094e+18
-34.077  5.37592e+18
-33.9597  4.87041e+18
-33.8424  4.46898e+18
-33.7251  4.15167e+18
-33.6078  3.89739e+18
-33.4905  3.70692e+18
-33.3732  3.59897e+18
-33.2559  3.59274e+18
-33.1386  3.70523e+18
-33.0213  3.93159e+18
-32.904  4.25957e+18
-32.7867  4.64973e+18
-32.6693  5.05771e+18
-32.552  5.43089e+18
-32.4347  5.74722e+18
-32.3174  5.98867e+18
-32.2001  6.15757e+18
-32.0828  6.26701e+18
-31.9655  6.33496e+18
-31.8482  6.40885e+18
-31.7309  6.52743e+18
-31.6136  6.73961e+18
-31.4963  7.12573e+18
-31.379  7.76249e+18
-31.2617  8.73434e+18
-31.1444  1.01101e+19
-31.0271  1.19048e+19
-30.9098  1.40923e+19
-30.7925  1.65803e+19
-30.6752  1.92252e+19
-30.5579  2.18446e+19
-30.4406  2.42317e+19
-30.3232  2.62179e+19
-30.2059  2.7663e+19
-30.0886  2.85155e+19
-29.9713  2.8813e+19
-29.854  2.86249e+19
-29.7367  2.81384e+19
-29.6194  2.75504e+19
-29.5021  2.7117e+19
-29.3848  2.70527e+19
-29.2675  2.75806e+19
-29.1502  2.88729e+19
-29.0329  3.10615e+19
-28.9156  3.41193e+19
-28.7983  3.79456e+19
-28.681  4.23139e+19
-28.5637  4.68549e+19
-28.4464  5.11652e+19
-28.3291  5.47828e+19
-28.2118  5.72881e+19
-28.0944  5.8436e+19
-27.9771  5.8122e+19
-27.8598  5.64409e+19
-27.7425  5.37312e+19
-27.6252  5.03565e+19
-27.5079  4.68801e+19
-27.3906  4.37672e+19
-27.2733  4.1425e+19
-27.156  4.00663e+19
-27.0387  3.97532e+19
-26.9214  4.0368e+19
-26.8041  4.16461e+19
-26.6868  4.32444e+19
-26.5695  4.47816e+19
-26.4522  4.59157e+19
-26.3349  4.63954e+19
-26.2176  4.60711e+19
-26.1003  4.49028e+19
-25.983  4.29802e+19
-25.8657  4.05121e+19
-25.7483  3.78106e+19
-25.631  3.52449e+19
-25.5137  3.3222e+19
-25.3964  3.20935e+19
-25.2791  3.21393e+19
-25.1618  3.35189e+19
-25.0445  3.62237e+19
-24.9272  4.00933e+19
-24.8099  4.48032e+19
-24.6926  4.99636e+19
-24.5753  5.51714e+19
-24.458  5.99677e+19
-24.3407  6.40643e+19
-24.2234  6.72561e+19
-24.1061  6.9459e+19
-23.9888  7.07482e+19
-23.8715  7.12379e+19
-23.7542  7.11741e+19
-23.6369  7.07929e+19
-23.5196  7.03554e+19
-23.4023  7.01134e+19
-23.2849  7.02403e+19
-23.1676  7.08876e+19
-23.0503  7.21041e+19
-22.933  7.38491e+19
-22.8157  7.60088e+19
-22.6984  7.83486e+19
-22.5811  8.06353e+19
-22.4638  8.26434e+19
-22.3465  8.4137e+19
-22.2292  8.50829e+19
-22.1119  8.54959e+19
-21.9946  8.55409e+19
-21.8773  8.5476e+19
-21.76  8.56451e+19
-21.6427  8.63716e+19
-21.5254  8.79407e+19
-21.4081  9.06206e+19
-21.2908  9.45904e+19
-21.1735  9.99636e+19
-21.0561  1.06873e+20
-20.9388  1.15343e+20
-20.8215  1.25528e+20
-20.7042  1.37393e+20
-20.5869  1.50959e+20
-20.4696  1.66038e+20
-20.3523  1.82407e+20
-20.235  1.9958e+20
-20.1177  2.17151e+20
-20.0004  2.34501e+20
-19.8831  2.51046e+20
-19.7658  2.664e+20
-19.6485  2.8029e+20
-19.5312  2.92587e+20
-19.4139  3.03365e+20
-19.2966  3.12756e+20
-19.1793  3.20962e+20
-19.062  3.28114e+20
-18.9447  3.34303e+20
-18.8274  3.39587e+20
-18.71  3.43737e+20
-18.5927  3.46702e+20
-18.4754  3.48381e+20
-18.3581  3.48624e+20
-18.2408  3.47602e+20
-18.1235  3.4537e+20
-18.0062  3.42274e+20
-17.8889  3.38741e+20
-17.7716  3.35133e+20
-17.6543  3.32279e+20
-17.537  3.30696e+20
-17.4197  3.3127e+20
-17.3024  3.3469e+20
-17.1851  3.41841e+20
-17.0678  3.53467e+20
-16.9505  3.70147e+20
-16.8332  3.92309e+20
-16.7159  4.20159e+20
-16.5986  4.5362e+20
-16.4813  4.92293e+20
-16.364  5.35564e+20
-16.2466  5.82578e+20
-16.1293  6.32062e+20
-16.012  6.83185e+20
-15.8947  7.34573e+20
-15.7774  7.85141e+20
-15.6601  8.3376e+20
-15.5428  8.79464e+20
-15.4255  9.21318e+20
-15.3082  9.58827e+20
-15.1909  9.91176e+20
-15.0736  1.01842e+21
-14.9563  1.04045e+21
-14.839  1.05778e+21
-14.7217  1.07082e+21
-14.6044  1.0808e+21
-14.4871  1.08869e+21
-14.3698  1.09597e+21
-14.2525  1.10391e+21
-14.1352  1.11385e+21
-14.0178  1.12687e+21
-13.9005  1.14396e+21
-13.7832  1.16572e+21
-13.6659  1.19243e+21
-13.5486  1.22436e+21
-13.4313  1.26149e+21
-13.314  1.30359e+21
-13.1967  1.35049e+21
-13.0794  1.40213e+21
-12.9621  1.4584e+21
-12.8448  1.51936e+21
-12.7275  1.58514e+21
-12.6102  1.65596e+21
-12.4929  1.73193e+21
-12.3756  1.81304e+21
-12.2583  1.89914e+21
-12.141  1.98976e+21
-12.0237  2.0842e+21
-11.9064  2.18138e+21
-11.7891  2.28002e+21
-11.6718  2.37881e+21
-11.5544  2.47623e+21
-11.4371  2.57072e+21
-11.3198  2.66142e+21
-11.2025  2.74737e+21
-11.0852  2.82859e+21
-10.9679  2.90538e+21
-10.8506  2.97877e+21
-10.7333  3.05025e+21
-10.616  3.1219e+21
-10.4987  3.19613e+21
-10.3814  3.27509e+21
-10.2641  3.36095e+21
-10.1468  3.45604e+21
-10.0295  3.5612e+21
-9.91217  3.67699e+21
-9.79487  3.80358e+21
-9.67756  3.93974e+21
-9.56026  4.08367e+21
-9.44295  4.23281e+21
-9.32565  4.38481e+21
-9.20834  4.53641e+21
-9.09104  4.68499e+21
-8.97373  4.82811e+21
-8.85643  4.96465e+21
-8.73913  5.09358e+21
-8.62182  5.21523e+21
-8.50452  5.33092e+21
-8.38721  5.4432e+21
-8.26991  5.55449e+21
-8.1526  5.66851e+21
-8.03529  5.78841e+21
-7.91799  5.91774e+21
-7.80069  6.05938e+21
-7.68338  6.21535e+21
-7.56608  6.3874e+21
-7.44877  6.57611e+21
-7.33146  6.78102e+21
-7.21416  7.00084e+21
-7.09685  7.2337e+21
-6.97955  7.47704e+21
-6.86224  7.72783e+21
-6.74494  7.98287e+21
-6.62763  8.23838e+21
-6.51033  8.49137e+21
-6.39302  8.73853e+21
-6.27572  8.97697e+21
-6.15842  9.20434e+21
-6.04111  9.41841e+21
-5.92381  9.61726e+21
-5.8065  9.7997e+21
-5.68919  9.96452e+21
-5.57189  1.01111e+22
-5.45458  1.02392e+22
-5.33728  1.03494e+22
-5.21997  1.0442e+22
-5.10267  1.0519e+22
-4.98536  1.05823e+22
-4.86806  1.06346e+22
-4.75075  1.06796e+22
-4.63345  1.07209e+22
-4.51614  1.07627e+22
-4.39884  1.08092e+22
-4.28154  1.08647e+22
-4.16423  1.09336e+22
-4.04692  1.10185e+22
-3.92962  1.11226e+22
-3.81231  1.1248e+22
-3.69501  1.13952e+22
-3.5777  1.15644e+22
-3.4604  1.17543e+22
-3.34309  1.19625e+22
-3.22579  1.21857e+22
-3.10849  1.24206e+22
-2.99118  1.26622e+22
-2.87387  1.29063e+22
-2.75657  1.31481e+22
-2.63926  1.33832e+22
-2.52196  1.36075e+22
-2.40465  1.38175e+22
-2.28735  1.401e+22
-2.17005  1.41833e+22
-2.05274  1.43361e+22
-1.93544  1.44672e+22
-1.81813  1.4577e+22
-1.70083  1.46665e+22
-1.58352  1.47368e+22
-1.46622  1.47898e+22
-1.34891  1.48274e+22
-1.2316  1.48521e+22
-1.1143  1.48662e+22
-0.996995  1.48721e+22
-0.87969  1.4872e+22
-0.762385  1.48672e+22
-0.64508  1.48601e+22
-0.527775  1.4852e+22
-0.41047  1.48438e+22
-0.293165  1.48365e+22
-0.17586  1.48312e+22
-0.058555  1.48283e+22
0.05875  1.48277e+22
0.176055  1.48297e+22
0.29336  1.48339e+22
0.410665  1.48401e+22
0.52797  1.48471e+22
0.645275  1.48539e+22
0.76258  1.48597e+22
0.879885  1.48632e+22
0.99719  1.48619e+22
1.1145  1.48548e+22
1.2318  1.48392e+22
1.3491  1.48131e+22
1.46641  1.47741e+22
1.58371  1.47197e+22
1.70102  1.46482e+22
1.81832  1.45575e+22
1.93563  1.44466e+22
2.05294  1.43145e+22
2.17024  1.41613e+22
2.28754  1.39876e+22
2.40485  1.37944e+22
2.52216  1.35841e+22
2.63946  1.33597e+22
2.75677  1.31244e+22
2.87407  1.28826e+22
2.99137  1.26385e+22
3.10868  1.23967e+22
3.22599  1.21621e+22
3.34329  1.19388e+22
3.4606  1.17307e+22
3.5779  1.15411e+22
3.69521  1.13721e+22
3.81251  1.12251e+22
3.92982  1.10998e+22
4.04712  1.09957e+22
4.16443  1.09109e+22
4.28173  1.08422e+22
4.39903  1.07863e+22
4.51634  1.07396e+22
4.63364  1.06975e+22
4.75095  1.06557e+22
4.86825  1.06099e+22
4.98556  1.05564e+22
5.10286  1.04922e+22
5.22017  1.04136e+22
5.33748  1.03194e+22
5.45478  1.02078e+22
5.57209  1.0078e+22
5.68939  9.92961e+21
5.8067  9.76296e+21
5.924  9.57881e+21
6.0413  9.37854e+21
6.15861  9.16342e+21
6.27591  8.93494e+21
6.39322  8.69582e+21
6.51052  8.44826e+21
6.62783  8.19521e+21
6.74514  7.93981e+21
6.86244  7.68538e+21
6.97975  7.4353e+21
7.09705  7.19291e+21
7.21436  6.96114e+21
7.33166  6.74227e+21
7.44897  6.53867e+21
7.56627  6.35121e+21
7.68358  6.18019e+21
7.80088  6.0251e+21
7.91819  5.88428e+21
8.03549  5.75572e+21
8.1528  5.63648e+21
8.2701  5.52298e+21
8.38741  5.41207e+21
8.50471  5.30023e+21
8.62202  5.185e+21
8.73932  5.06366e+21
8.85662  4.93536e+21
8.97393  4.79959e+21
9.09123  4.65705e+21
9.20854  4.50928e+21
9.32584  4.35855e+21
9.44315  4.20758e+21
9.56045  4.05914e+21
9.67776  3.91624e+21
9.79506  3.78087e+21
9.91237  3.65509e+21
10.0297  3.53985e+21
10.147  3.43539e+21
10.2643  3.34089e+21
10.3816  3.2553e+21
10.4989  3.1766e+21
10.6162  3.10267e+21
10.7335  3.03113e+21
10.8508  2.95981e+21
10.9681  2.88655e+21
11.0854  2.81008e+21
11.2027  2.72921e+21
11.32  2.64356e+21
11.4373  2.55336e+21
11.5546  2.45925e+21
11.6719  2.36232e+21
11.7893  2.26419e+21
11.9066  2.1661e+21
12.0239  2.06936e+21
12.1412  1.97563e+21
12.2585  1.88551e+21
12.3758  1.80002e+21
12.4931  1.71942e+21
12.6104  1.64396e+21
12.7277  1.57361e+21
12.845  1.50817e+21
12.9623  1.44758e+21
13.0796  1.39178e+21
13.1969  1.34043e+21
13.3142  1.29395e+21
13.4315  1.2522e+21
13.5488  1.21536e+21
13.6661  1.18367e+21
13.7834  1.15713e+21
13.9007  1.13558e+21
14.018  1.11857e+21
14.1354  1.10565e+21
14.2527  1.0958e+21
14.37  1.08788e+21
14.4873  1.08066e+21
14.6046  1.0727e+21
14.7219  1.06277e+21
14.8392  1.0497e+21
14.9565  1.03244e+21
15.0738  1.01056e+21
15.1911  9.83441e+20
15.3084  9.51227e+20
15.4257  9.14019e+20
15.543  8.72444e+20
15.6603  8.27066e+20
15.7776  7.7879e+20
15.8949  7.28592e+20
16.0122  6.77654e+20
16.1295  6.26953e+20
16.2468  5.77759e+20
16.3641  5.31224e+20
16.4815  4.88319e+20
16.5988  4.50001e+20
16.7161  4.16916e+20
16.8334  3.8941e+20
16.9507  3.67567e+20
17.068  3.51234e+20
17.1853  3.39934e+20
17.3026  3.33097e+20
17.4199  3.29902e+20
17.5372  3.29538e+20
17.6545  3.31326e+20
17.7718  3.34369e+20
17.8891  3.37993e+20
18.0064  3.41641e+20
18.1237  3.44778e+20
18.241  3.4695e+20
18.3583  3.47911e+20
18.4756  3.47567e+20
18.5929  3.45797e+20
18.7102  3.42628e+20
18.8275  3.38374e+20
18.9449  3.3301e+20
19.0622  3.26674e+20
19.1795  3.19449e+20
19.2968  3.11172e+20
19.4141  3.0174e+20
19.5314  2.90898e+20
19.6487  2.78525e+20
19.766  2.64657e+20
19.8833  2.49235e+20
20.0006  2.32701e+20
20.1179  2.15426e+20
20.2352  1.97958e+20
20.3525  1.80832e+20
20.4698  1.64559e+20
20.5871  1.49591e+20
20.7044  1.36161e+20
20.8217  1.24426e+20
20.939  1.14406e+20
21.0563  1.06027e+20
21.1736  9.9263e+19
21.291  9.39879e+19
21.4083  9.01513e+19
21.5256  8.75547e+19
21.6429  8.60774e+19
21.7602  8.54309e+19
21.8775  8.53233e+19
21.9948  8.5403e+19
22.1121  8.5395e+19
22.2294  8.49692e+19
22.3467  8.40321e+19
22.464  8.24846e+19
22.5813  8.04592e+19
22.6986  7.8147e+19
22.8159  7.57953e+19
22.9332  7.3645e+19
23.0505  7.1905e+19
23.1678  7.06995e+19
23.2851  7.00621e+19
23.4024  6.99646e+19
23.5198  7.02334e+19
23.6371  7.06834e+19
23.7544  7.10728e+19
23.8717  7.11399e+19
23.989  7.06498e+19
24.1063  6.9348e+19
24.2236  6.7116e+19
24.3409  6.39071e+19
24.4582  5.97879e+19
24.5755  5.49768e+19
24.6928  4.97905e+19
24.8101  4.46407e+19
24.9274  3.9961e+19
25.0447  3.61503e+19
25.162  3.35023e+19
25.2793  3.21875e+19
25.3966  3.21858e+19
25.5139  3.33491e+19
25.6312  3.53882e+19
25.7485  3.79477e+19
25.8658  4.06274e+19
25.9832  4.30442e+19
26.1005  4.4922e+19
26.2178  4.6048e+19
26.3351  4.63229e+19
26.4524  4.57974e+19
26.5697  4.46396e+19
26.687  4.31122e+19
26.8043  4.15498e+19
26.9216  4.03352e+19
27.0389  3.97793e+19
27.1562  4.01703e+19
27.2735  4.16118e+19
27.3908  4.40372e+19
27.5081  4.72144e+19
27.6254  5.07236e+19
27.7427  5.4108e+19
27.86  5.68179e+19
27.9773  5.84464e+19
28.0946  5.86964e+19
28.212  5.7456e+19
28.3293  5.48716e+19
28.4466  5.11888e+19
28.5639  4.68224e+19
28.6812  4.22532e+19
28.7985  3.78853e+19
28.9158  3.40679e+19
29.0331  3.1048e+19
29.1504  2.89093e+19
29.2677  2.76674e+19
29.385  2.71854e+19
29.5023  2.72951e+19
29.6196  2.77465e+19
29.7369  2.83267e+19
29.8542  2.87962e+19
29.9715  2.89292e+19
30.0888  2.85956e+19
30.2061  2.76775e+19
30.3234  2.61744e+19
30.4407  2.41509e+19
30.558  2.17282e+19
30.6754  1.91049e+19
30.7927  1.64438e+19
30.91  1.39579e+19
31.0273  1.17811e+19
31.1446  1.00095e+19
31.2619  8.64953e+18
31.3792  7.69202e+18
31.4965  7.05875e+18
31.6138  6.67221e+18
31.7311  6.45702e+18
31.8484  6.34229e+18
31.9657  6.27123e+18
32.083  6.19492e+18
32.2003  6.08157e+18
32.3176  5.91719e+18
32.4349  5.67021e+18
32.5522  5.36264e+18
32.6695  4.99334e+18
32.7868  4.60055e+18
32.9042  4.22195e+18
33.0215  3.90396e+18
33.1388  3.68926e+18
33.2561  3.58931e+18
33.3734  3.60811e+18
33.4907  3.7215e+18
33.608  3.91911e+18
33.7253  4.18647e+18
33.8426  4.50964e+18
33.9599  4.92265e+18
34.0772  5.43716e+18
34.1945  6.08016e+18
34.3118  6.84677e+18
34.4291  7.69946e+18
34.5464  8.55901e+18
34.6637  9.32406e+18
34.781  9.88826e+18
34.8983  1.01642e+19
35.0156  1.00987e+19
35.1329  9.69156e+18
35.2503  8.9888e+18
35.3676  8.06253e+18
35.4849  6.99692e+18
35.6022  5.85911e+18
35.7195  4.70625e+18
35.8368  3.59631e+18
35.9541  2.5979e+18
36.0714  1.82967e+18
36.1887  1.45423e+18
36.306  1.69533e+18
36.4233  2.77365e+18
36.5406  4.85753e+18
36.6579  7.98042e+18
36.7752  1.19936e+19
36.8925  1.65285e+19
37.0098  2.10575e+19
37.1271  2.49187e+19
37.2444  2.75394e+19
37.3617  2.84804e+19
37.479  2.76176e+19
37.5964  2.5219e+19
37.7137  2.19256e+19
37.831  1.86032e+19
37.9483  1.62286e+19
38.0656  1.56476e+19
38.1829  1.7402e+19
38.3002  2.15574e+19
38.4175  2.76852e+19
38.5348  3.49575e+19
38.6521  4.2216e+19
38.7694  4.82961e+19
38.8867  5.21933e+19
39.004  5.32465e+19
39.1213  5.12979e+19
39.2386  4.66439e+19
39.3559  4.00008e+19
39.4732  3.22981e+19
39.5905  2.45585e+19
39.7078  1.76555e+19
39.8251  1.22368e+19
39.9425  8.62099e+18
40.0598  6.82931e+18
40.1771  6.63083e+18
40.2944  7.61849e+18
40.4117  9.30586e+18
40.529  1.12374e+19
40.6463  1.30254e+19
40.7636  1.43908e+19
40.8809  1.5221e+19
40.9982  1.54838e+19
41.1155  1.52698e+19
41.2328  1.47504e+19
41.3501  1.41267e+19
41.4674  1.3565e+19
41.5847  1.3179e+19
41.702  1.30137e+19
41.8193  1.29695e+19
41.9366  1.29086e+19
42.0539  1.26154e+19
42.1712  1.19062e+19
42.2885  1.06832e+19
42.4059  8.98945e+18
42.5232  7.0152e+18
42.6405  5.0602e+18
42.7578  3.50367e+18
42.8751  2.67568e+18
42.9924  2.77087e+18
43.1097  3.8053e+18
43.227  5.55086e+18
43.3443  7.63663e+18
43.4616  9.58969e+18
43.5789  1.09843e+19
43.6962  1.15154e+19
43.8135  1.11271e+19
43.9308  9.96067e+18
44.0481  8.36536e+18
44.1654  6.76553e+18
44.2827  5.55346e+18
44.4  4.9918e+18
44.5173  5.14527e+18
44.6347  5.88882e+18
44.752  6.96812e+18
44.8693  8.05602e+18
44.9866  8.886e+18
45.1039  9.29521e+18
45.2212  9.26988e+18
45.3385  8.91371e+18
45.4558  8.38784e+18
45.5731  7.86676e+18
45.6904  7.44777e+18
45.8077  7.14527e+18
45.925  6.90215e+18
46.0423  6.61735e+18
46.1596  6.22023e+18
46.2769  5.68851e+18
46.3942  5.11215e+18
46.5115  4.63789e+18
46.6288  4.44921e+18
46.7461  4.69921e+18
46.8634  5.44823e+18
46.9808  6.64324e+18
47.0981  8.10374e+18
47.2154  9.58268e+18
47.3327  1.07886e+19
47.45  1.15193e+19
47.5673  1.16317e+19
47.6846  1.11145e+19
47.8019  1.01182e+19
47.9192  8.85651e+18
48.0365  7.57451e+18
48.1538  6.51335e+18
48.2711  5.8276e+18
48.3884  5.60295e+18
48.5057  5.79938e+18
48.623  6.30777e+18
48.7403  6.94938e+18
48.8576  7.54648e+18
48.9749  7.94333e+18
49.0922  8.03708e+18
49.2095  7.81747e+18
49.3269  7.36434e+18
49.4442  6.82559e+18
49.5615  6.41668e+18
49.6788  6.35246e+18
49.7961  6.81244e+18
49.9134  7.87604e+18
50.0307  9.50285e+18
50.148  1.15153e+19
50.2653  1.36214e+19
50.3826  1.54676e+19
50.4999  1.66834e+19
50.6172  1.70192e+19
50.7345  1.63559e+19
50.8518  1.47528e+19
