#S 1 spectral density
#N 2
#UFWHM 13.9593
#L  abscissas [um]  spectral density
-58.5938  3.0643e+18
-58.4764  4.28876e+18
-58.3591  6.23725e+18
-58.2418  8.75827e+18
-58.1245  1.15347e+19
-58.0072  1.40884e+19
-57.8899  1.5975e+19
-57.7726  1.68166e+19
-57.6553  1.64299e+19
-57.538  1.48908e+19
-57.4207  1.25195e+19
-57.3034  9.77194e+18
-57.1861  7.1816e+18
-57.0688  5.19532e+18
-56.9515  4.10099e+18
-56.8342  3.9635e+18
-56.7169  4.64925e+18
-56.5996  5.87134e+18
-56.4823  7.28223e+18
-56.365  8.57014e+18
-56.2477  9.49359e+18
-56.1303  9.96228e+18
-56.013  9.96321e+18
-55.8957  9.59322e+18
-55.7784  8.95051e+18
-55.6611  8.15901e+18
-55.5438  7.31801e+18
-55.4265  6.4842e+18
-55.3092  5.73009e+18
-55.1919  5.12779e+18
-55.0746  4.76845e+18
-54.9573  4.73503e+18
-54.84  5.10528e+18
-54.7227  5.88656e+18
-54.6054  7.04491e+18
-54.4881  8.44313e+18
-54.3708  9.86667e+18
-54.2535  1.10989e+19
-54.1362  1.19175e+19
-54.0189  1.21393e+19
-53.9016  1.16976e+19
-53.7842  1.06348e+19
-53.6669  9.05419e+18
-53.5496  7.18584e+18
-53.4323  5.29121e+18
-53.315  3.64874e+18
-53.1977  2.51543e+18
-53.0804  2.09509e+18
-52.9631  2.50927e+18
-52.8458  3.78102e+18
-52.7285  5.83162e+18
-52.6112  8.46401e+18
-52.4939  1.13771e+19
-52.3766  1.42163e+19
-52.2593  1.66001e+19
-52.142  1.81928e+19
-52.0247  1.87451e+19
-51.9074  1.8159e+19
-51.7901  1.64967e+19
-51.6728  1.39924e+19
-51.5555  1.09673e+19
-51.4381  7.83577e+18
-51.3208  4.96655e+18
-51.2035  2.67464e+18
-51.0862  1.14894e+18
-50.9689  4.59652e+17
-50.8516  5.64693e+17
-50.7343  1.34298e+18
-50.617  2.64291e+18
-50.4997  4.31475e+18
-50.3824  6.21972e+18
-50.2651  8.26881e+18
-50.1478  1.03536e+19
-50.0305  1.24151e+19
-49.9132  1.43324e+19
-49.7959  1.60134e+19
-49.6786  1.73586e+19
-49.5613  1.82774e+19
-49.444  1.86963e+19
-49.3267  1.86076e+19
-49.2094  1.80413e+19
-49.092  1.70613e+19
-48.9747  1.57611e+19
-48.8574  1.42475e+19
-48.7401  1.26265e+19
-48.6228  1.09867e+19
-48.5055  9.43267e+18
-48.3882  8.02385e+18
-48.2709  6.84018e+18
-48.1536  5.92978e+18
-48.0363  5.33537e+18
-47.919  5.06533e+18
-47.8017  5.11454e+18
-47.6844  5.44011e+18
-47.5671  6.00525e+18
-47.4498  6.76568e+18
-47.3325  7.65715e+18
-47.2152  8.64218e+18
-47.0979  9.65341e+18
-46.9806  1.06261e+19
-46.8633  1.14546e+19
-46.7459  1.19837e+19
-46.6286  1.20888e+19
-46.5113  1.16395e+19
-46.394  1.06003e+19
-46.2767  9.02762e+18
-46.1594  7.11666e+18
-46.0421  5.18424e+18
-45.9248  3.59692e+18
-45.8075  2.70324e+18
-45.6902  2.73698e+18
-45.5729  3.74448e+18
-45.4556  5.54861e+18
-45.3383  7.76936e+18
-45.221  9.92513e+18
-45.1037  1.15181e+19
-44.9864  1.21881e+19
-44.8691  1.18203e+19
-44.7518  1.05326e+19
-44.6345  8.72358e+18
-44.5172  6.93938e+18
-44.3998  5.71783e+18
-44.2825  5.47861e+18
-44.1652  6.39475e+18
-44.0479  8.37035e+18
-43.9306  1.10616e+19
-43.8133  1.39687e+19
-43.696  1.65595e+19
-43.5787  1.84284e+19
-43.4614  1.93718e+19
-43.3441  1.93945e+19
-43.2268  1.87051e+19
-43.1095  1.76416e+19
-42.9922  1.65533e+19
-42.8749  1.56974e+19
-42.7576  1.52126e+19
-42.6403  1.50658e+19
-42.523  1.51201e+19
-42.4057  1.51797e+19
-42.2884  1.50826e+19
-42.171  1.47425e+19
-42.0537  1.41704e+19
-41.9364  1.351e+19
-41.8191  1.29504e+19
-41.7018  1.2742e+19
-41.5845  1.30674e+19
-41.4672  1.40646e+19
-41.3499  1.573e+19
-41.2326  1.79737e+19
-41.1153  2.05665e+19
-40.998  2.3178e+19
-40.8807  2.54365e+19
-40.7634  2.69386e+19
-40.6461  2.73431e+19
-40.5288  2.63936e+19
-40.4115  2.40243e+19
-40.2942  2.04045e+19
-40.1769  1.59253e+19
-40.0596  1.11615e+19
-39.9423  6.85992e+18
-39.825  3.75972e+18
-39.7076  2.45843e+18
-39.5903  3.30552e+18
-39.473  6.29152e+18
-39.3557  1.10404e+19
-39.2384  1.68674e+19
-39.1211  2.287e+19
-39.0038  2.81415e+19
-38.8865  3.19374e+19
-38.7692  3.38234e+19
-38.6519  3.37308e+19
-38.5346  3.19612e+19
-38.4173  2.90826e+19
-38.3  2.58046e+19
-38.1827  2.27828e+19
-38.0654  2.04843e+19
-37.9481  1.91274e+19
-37.8308  1.8629e+19
-37.7135  1.87013e+19
-37.5962  1.89452e+19
-37.4789  1.898e+19
-37.3615  1.85554e+19
-37.2442  1.76218e+19
-37.1269  1.62687e+19
-37.0096  1.47603e+19
-36.8923  1.33752e+19
-36.775  1.23496e+19
-36.6577  1.1807e+19
-36.5404  1.17308e+19
-36.4231  1.19687e+19
-36.3058  1.23041e+19
-36.1885  1.25187e+19
-36.0712  1.24537e+19
-35.9539  1.20438e+19
-35.8366  1.13438e+19
-35.7193  1.04885e+19
-35.602  9.60458e+18
-35.4847  8.87215e+18
-35.3674  8.36409e+18
-35.2501  8.10057e+18
-35.1328  8.03546e+18
-35.0154  8.0927e+18
-34.8981  8.19132e+18
-34.7808  8.27643e+18
-34.6635  8.32694e+18
-34.5462  8.36306e+18
-34.4289  8.43324e+18
-34.3116  8.55822e+18
-34.1943  8.74221e+18
-34.077  8.94827e+18
-33.9597  9.1077e+18
-33.8424  9.13135e+18
-33.7251  8.93782e+18
-33.6078  8.47762e+18
-33.4905  7.7476e+18
-33.3732  6.80332e+18
-33.2559  5.73887e+18
-33.1386  4.68406e+18
-33.0213  3.78686e+18
-32.904  3.18934e+18
-32.7867  3.01313e+18
-32.6693  3.35348e+18
-32.552  4.25802e+18
-32.4347  5.74145e+18
-32.3174  7.75937e+18
-32.2001  1.02091e+19
-32.0828  1.29385e+19
-31.9655  1.57246e+19
-31.8482  1.83717e+19
-31.7309  2.0644e+19
-31.6136  2.23382e+19
-31.4963  2.33455e+19
-31.379  2.36177e+19
-31.2617  2.32327e+19
-31.1444  2.23465e+19
-31.0271  2.11593e+19
-30.9098  1.99393e+19
-30.7925  1.89433e+19
-30.6752  1.84127e+19
-30.5579  1.85116e+19
-30.4406  1.9328e+19
-30.3232  2.08689e+19
-30.2059  2.30145e+19
-30.0886  2.55735e+19
-29.9713  2.82851e+19
-29.854  3.07854e+19
-29.7367  3.27109e+19
-29.6194  3.3732e+19
-29.5021  3.36024e+19
-29.3848  3.21903e+19
-29.2675  2.95436e+19
-29.1502  2.59255e+19
-29.0329  2.17851e+19
-28.9156  1.76839e+19
-28.7983  1.42545e+19
-28.681  1.21072e+19
-28.5637  1.17185e+19
-28.4464  1.33838e+19
-28.3291  1.71615e+19
-28.2118  2.28637e+19
-28.0944  3.01281e+19
-27.9771  3.843e+19
-27.8598  4.71599e+19
-27.7425  5.57564e+19
-27.6252  6.36139e+19
-27.5079  7.03201e+19
-27.3906  7.55282e+19
-27.2733  7.90814e+19
-27.156  8.08915e+19
-27.0387  8.10648e+19
-26.9214  7.97953e+19
-26.8041  7.73743e+19
-26.6868  7.41435e+19
-26.5695  7.04336e+19
-26.4522  6.65381e+19
-26.3349  6.27066e+19
-26.2176  5.90499e+19
-26.1003  5.55549e+19
-25.983  5.21156e+19
-25.8657  4.85702e+19
-25.7483  4.47789e+19
-25.631  4.06412e+19
-25.5137  3.6189e+19
-25.3964  3.15409e+19
-25.2791  2.69469e+19
-25.1618  2.27344e+19
-25.0445  1.92593e+19
-24.9272  1.68445e+19
-24.8099  1.57476e+19
-24.6926  1.61169e+19
-24.5753  1.80042e+19
-24.458  2.12976e+19
-24.3407  2.58346e+19
-24.2234  3.1339e+19
-24.1061  3.74974e+19
-23.9888  4.39665e+19
-23.8715  5.03733e+19
-23.7542  5.64168e+19
-23.6369  6.18181e+19
-23.5196  6.63744e+19
-23.4023  6.9992e+19
-23.2849  7.26539e+19
-23.1676  7.44529e+19
-23.0503  7.55661e+19
-22.933  7.61381e+19
-22.8157  7.64505e+19
-22.6984  7.66603e+19
-22.5811  7.69954e+19
-22.4638  7.77126e+19
-22.3465  7.89762e+19
-22.2292  8.10983e+19
-22.1119  8.43197e+19
-21.9946  8.89083e+19
-21.8773  9.50314e+19
-21.76  1.02808e+20
-21.6427  1.1221e+20
-21.5254  1.23009e+20
-21.4081  1.3488e+20
-21.2908  1.47351e+20
-21.1735  1.59915e+20
-21.0561  1.7211e+20
-20.9388  1.83483e+20
-20.8215  1.93866e+20
-20.7042  2.03023e+20
-20.5869  2.1097e+20
-20.4696  2.17667e+20
-20.3523  2.23173e+20
-20.235  2.27365e+20
-20.1177  2.30308e+20
-20.0004  2.31824e+20
-19.8831  2.31804e+20
-19.7658  2.30302e+20
-19.6485  2.27445e+20
-19.5312  2.23506e+20
-19.4139  2.18899e+20
-19.2966  2.14164e+20
-19.1793  2.09908e+20
-19.062  2.06727e+20
-18.9447  2.05226e+20
-18.8274  2.05957e+20
-18.71  2.09283e+20
-18.5927  2.15602e+20
-18.4754  2.25179e+20
-18.3581  2.38091e+20
-18.2408  2.54427e+20
-18.1235  2.73937e+20
-18.0062  2.96333e+20
-17.8889  3.21082e+20
-17.7716  3.47322e+20
-17.6543  3.74399e+20
-17.537  4.01207e+20
-17.4197  4.26963e+20
-17.3024  4.50749e+20
-17.1851  4.72038e+20
-17.0678  4.90458e+20
-16.9505  5.05836e+20
-16.8332  5.1839e+20
-16.7159  5.28551e+20
-16.5986  5.3708e+20
-16.4813  5.44883e+20
-16.364  5.53128e+20
-16.2466  5.63022e+20
-16.1293  5.75667e+20
-16.012  5.92629e+20
-15.8947  6.14871e+20
-15.7774  6.43327e+20
-15.6601  6.78511e+20
-15.5428  7.20531e+20
-15.4255  7.68902e+20
-15.3082  8.22779e+20
-15.1909  8.80403e+20
-15.0736  9.40176e+20
-14.9563  9.99851e+20
-14.839  1.05737e+21
-14.7217  1.11045e+21
-14.6044  1.15772e+21
-14.4871  1.19768e+21
-14.3698  1.22994e+21
-14.2525  1.25438e+21
-14.1352  1.27173e+21
-14.0178  1.28308e+21
-13.9005  1.29015e+21
-13.7832  1.29489e+21
-13.6659  1.29922e+21
-13.5486  1.30535e+21
-13.4313  1.31518e+21
-13.314  1.33023e+21
-13.1967  1.35173e+21
-13.0794  1.38061e+21
-12.9621  1.41731e+21
-12.8448  1.46198e+21
-12.7275  1.5145e+21
-12.6102  1.5746e+21
-12.4929  1.64182e+21
-12.3756  1.71578e+21
-12.2583  1.79608e+21
-12.141  1.88243e+21
-12.0237  1.97459e+21
-11.9064  2.0723e+21
-11.7891  2.17542e+21
-11.6718  2.28375e+21
-11.5544  2.39682e+21
-11.4371  2.51385e+21
-11.3198  2.63416e+21
-11.2025  2.7563e+21
-11.0852  2.87905e+21
-10.9679  3.00068e+21
-10.8506  3.11939e+21
-10.7333  3.23341e+21
-10.616  3.34125e+21
-10.4987  3.4419e+21
-10.3814  3.5343e+21
-10.2641  3.61832e+21
-10.1468  3.69499e+21
-10.0295  3.76516e+21
-9.91217  3.83081e+21
-9.79487  3.89477e+21
-9.67756  3.95989e+21
-9.56026  4.02925e+21
-9.44295  4.10581e+21
-9.32565  4.19281e+21
-9.20834  4.29234e+21
-9.09104  4.4063e+21
-8.97373  4.53554e+21
-8.85643  4.68077e+21
-8.73913  4.84103e+21
-8.62182  5.01539e+21
-8.50452  5.20201e+21
-8.38721  5.39908e+21
-8.26991  5.60369e+21
-8.1526  5.81369e+21
-8.03529  6.0261e+21
-7.91799  6.23867e+21
-7.80069  6.44916e+21
-7.68338  6.65533e+21
-7.56608  6.85573e+21
-7.44877  7.04919e+21
-7.33146  7.23456e+21
-7.21416  7.41131e+21
-7.09685  7.57918e+21
-6.97955  7.7384e+21
-6.86224  7.88934e+21
-6.74494  8.03298e+21
-6.62763  8.16986e+21
-6.51033  8.30195e+21
-6.39302  8.43099e+21
-6.27572  8.55901e+21
-6.15842  8.68839e+21
-6.04111  8.82153e+21
-5.92381  8.96057e+21
-5.8065  9.10767e+21
-5.68919  9.26412e+21
-5.57189  9.43069e+21
-5.45458  9.60749e+21
-5.33728  9.79378e+21
-5.21997  9.98734e+21
-5.10267  1.01862e+22
-4.98536  1.0387e+22
-4.86806  1.05861e+22
-4.75075  1.07801e+22
-4.63345  1.09652e+22
-4.51614  1.11382e+22
-4.39884  1.12966e+22
-4.28154  1.14386e+22
-4.16423  1.15644e+22
-4.04692  1.16737e+22
-3.92962  1.17687e+22
-3.81231  1.18525e+22
-3.69501  1.19285e+22
-3.5777  1.20013e+22
-3.4604  1.20753e+22
-3.34309  1.21548e+22
-3.22579  1.22436e+22
-3.10849  1.23454e+22
-2.99118  1.24619e+22
-2.87387  1.25944e+22
-2.75657  1.27427e+22
-2.63926  1.29056e+22
-2.52196  1.30805e+22
-2.40465  1.32646e+22
-2.28735  1.34536e+22
-2.17005  1.36435e+22
-2.05274  1.38305e+22
-1.93544  1.40102e+22
-1.81813  1.41796e+22
-1.70083  1.43358e+22
-1.58352  1.44772e+22
-1.46622  1.46028e+22
-1.34891  1.47123e+22
-1.2316  1.48063e+22
-1.1143  1.48856e+22
-0.996995  1.49519e+22
-0.87969  1.50066e+22
-0.762385  1.50504e+22
-0.64508  1.50855e+22
-0.527775  1.51129e+22
-0.41047  1.51334e+22
-0.293165  1.51477e+22
-0.17586  1.51567e+22
-0.058555  1.51608e+22
0.05875  1.51598e+22
0.176055  1.5154e+22
0.29336  1.51432e+22
0.410665  1.51272e+22
0.52797  1.51049e+22
0.645275  1.50758e+22
0.76258  1.50391e+22
0.879885  1.49938e+22
0.99719  1.49379e+22
1.1145  1.48705e+22
1.2318  1.47899e+22
1.3491  1.46949e+22
1.46641  1.45844e+22
1.58371  1.44579e+22
1.70102  1.43157e+22
1.81832  1.41587e+22
1.93563  1.39889e+22
2.05294  1.38086e+22
2.17024  1.36216e+22
2.28754  1.34315e+22
2.40485  1.32423e+22
2.52216  1.30582e+22
2.63946  1.28833e+22
2.75677  1.27204e+22
2.87407  1.25722e+22
2.99137  1.24397e+22
3.10868  1.23232e+22
3.22599  1.22215e+22
3.34329  1.21325e+22
3.4606  1.2053e+22
3.5779  1.19789e+22
3.69521  1.1906e+22
3.81251  1.18297e+22
3.92982  1.17454e+22
4.04712  1.16496e+22
4.16443  1.15398e+22
4.28173  1.14134e+22
4.39903  1.12702e+22
4.51634  1.11109e+22
4.63364  1.0937e+22
4.75095  1.07509e+22
4.86825  1.05559e+22
4.98556  1.03557e+22
5.10286  1.01542e+22
5.22017  9.95429e+21
5.33748  9.75997e+21
5.45478  9.57325e+21
5.57209  9.39608e+21
5.68939  9.22908e+21
5.8067  9.07229e+21
5.924  8.92506e+21
6.0413  8.78603e+21
6.15861  8.65308e+21
6.27591  8.52365e+21
6.39322  8.39576e+21
6.51052  8.26682e+21
6.62783  8.1347e+21
6.74514  7.9976e+21
6.86244  7.85419e+21
6.97975  7.70301e+21
7.09705  7.54372e+21
7.21436  7.37567e+21
7.33166  7.19859e+21
7.44897  7.01325e+21
7.56627  6.81991e+21
7.68358  6.61948e+21
7.80088  6.41345e+21
7.91819  6.20332e+21
8.03549  5.99123e+21
8.1528  5.77954e+21
8.2701  5.57033e+21
8.38741  5.36655e+21
8.50471  5.17047e+21
8.62202  4.98497e+21
8.73932  4.81162e+21
8.85662  4.65246e+21
8.97393  4.50836e+21
9.09123  4.37996e+21
9.20854  4.26684e+21
9.32584  4.16796e+21
9.44315  4.08152e+21
9.56045  4.00511e+21
9.67776  3.93606e+21
9.79506  3.87102e+21
9.91237  3.80713e+21
10.0297  3.7414e+21
10.147  3.67139e+21
10.2643  3.59494e+21
10.3816  3.51095e+21
10.4989  3.41878e+21
10.6162  3.31862e+21
10.7335  3.21114e+21
10.8508  3.09766e+21
10.9681  2.97955e+21
11.0854  2.8588e+21
11.2027  2.73689e+21
11.32  2.61551e+21
11.4373  2.49612e+21
11.5546  2.37986e+21
11.6719  2.26752e+21
11.7893  2.16008e+21
11.9066  2.0577e+21
12.0239  1.96056e+21
12.1412  1.86924e+21
12.2585  1.78351e+21
12.3758  1.70387e+21
12.4931  1.63051e+21
12.6104  1.56386e+21
12.7277  1.50429e+21
12.845  1.45217e+21
12.9623  1.40788e+21
13.0796  1.37163e+21
13.1969  1.34294e+21
13.3142  1.32174e+21
13.4315  1.30688e+21
13.5488  1.29711e+21
13.6661  1.29096e+21
13.7834  1.28654e+21
13.9007  1.28175e+21
14.018  1.27452e+21
14.1354  1.26309e+21
14.2527  1.24574e+21
14.37  1.22124e+21
14.4873  1.18906e+21
14.6046  1.14909e+21
14.7219  1.10201e+21
14.8392  1.04907e+21
14.9565  9.91847e+20
15.0738  9.32557e+20
15.1911  8.73127e+20
15.3084  8.15831e+20
15.4257  7.62403e+20
15.543  7.14442e+20
15.6603  6.72804e+20
15.7776  6.37958e+20
15.8949  6.09802e+20
16.0122  5.87902e+20
16.1295  5.71208e+20
16.2468  5.5868e+20
16.3641  5.49053e+20
16.4815  5.40958e+20
16.5988  5.33284e+20
16.7161  5.24911e+20
16.8334  5.1485e+20
16.9507  5.02419e+20
17.068  4.87178e+20
17.1853  4.68906e+20
17.3026  4.47773e+20
17.4199  4.24067e+20
17.5372  3.98415e+20
17.6545  3.7175e+20
17.7718  3.44844e+20
17.8891  3.18653e+20
18.0064  2.94093e+20
18.1237  2.71891e+20
18.241  2.52512e+20
18.3583  2.36364e+20
18.4756  2.2362e+20
18.5929  2.14246e+20
18.7102  2.08048e+20
18.8275  2.04897e+20
18.9449  2.04331e+20
19.0622  2.05932e+20
19.1795  2.09223e+20
19.2968  2.13542e+20
19.4141  2.18323e+20
19.5314  2.22917e+20
19.6487  2.26805e+20
19.766  2.29657e+20
19.8833  2.31038e+20
20.0006  2.31002e+20
20.1179  2.29469e+20
20.2352  2.2654e+20
20.3525  2.22281e+20
20.4698  2.16767e+20
20.5871  2.1006e+20
20.7044  2.02129e+20
20.8217  1.92988e+20
20.939  1.82672e+20
21.0563  1.71253e+20
21.1736  1.59088e+20
21.291  1.46514e+20
21.4083  1.34084e+20
21.5256  1.2222e+20
21.6429  1.11453e+20
21.7602  1.02094e+20
21.8775  9.43464e+19
21.9948  8.82479e+19
22.1121  8.37253e+19
22.2294  8.05403e+19
22.3467  7.84566e+19
22.464  7.72001e+19
22.5813  7.6527e+19
22.6986  7.6189e+19
22.8159  7.60004e+19
22.9332  7.57163e+19
23.0505  7.51428e+19
23.1678  7.40434e+19
23.2851  7.22309e+19
23.4024  6.95772e+19
23.5198  6.59619e+19
23.6371  6.14062e+19
23.7544  5.60154e+19
23.8717  4.99912e+19
23.989  4.3611e+19
24.1063  3.71807e+19
24.2236  3.10646e+19
24.3409  2.56135e+19
24.4582  2.11388e+19
24.5755  1.79074e+19
24.6928  1.60953e+19
24.8101  1.57892e+19
24.9274  1.69461e+19
25.0447  1.94152e+19
25.162  2.29328e+19
25.2793  2.71717e+19
25.3966  3.17735e+19
25.5139  3.64185e+19
25.6312  4.08593e+19
25.7485  4.49773e+19
25.8658  4.87591e+19
25.9832  5.22789e+19
26.1005  5.57253e+19
26.2178  5.92407e+19
26.3351  6.29008e+19
26.4524  6.67289e+19
26.5697  7.06112e+19
26.687  7.43141e+19
26.8043  7.75302e+19
26.9216  7.99229e+19
27.0389  8.11109e+19
27.1562  8.08589e+19
27.2735  7.89575e+19
27.3908  7.5326e+19
27.5081  7.0036e+19
27.6254  6.32662e+19
27.7427  5.53688e+19
27.86  4.67799e+19
27.9773  3.80584e+19
28.0946  2.98063e+19
28.212  2.26021e+19
28.3293  1.69847e+19
28.4466  1.33035e+19
28.5639  1.17337e+19
28.6812  1.22105e+19
28.7985  1.44332e+19
28.9158  1.79131e+19
29.0331  2.20457e+19
29.1504  2.61953e+19
29.2677  2.97961e+19
29.385  3.24165e+19
29.5023  3.38012e+19
29.6196  3.38866e+19
29.7369  3.28149e+19
29.8542  3.0855e+19
29.9715  2.83283e+19
30.0888  2.56104e+19
30.2061  2.30276e+19
30.3234  2.08789e+19
30.4407  1.9354e+19
30.558  1.85383e+19
30.6754  1.84569e+19
30.7927  1.89752e+19
30.91  1.99527e+19
31.0273  2.11515e+19
31.1446  2.23163e+19
31.2619  2.31733e+19
31.3792  2.35265e+19
31.4965  2.32101e+19
31.6138  2.21715e+19
31.7311  2.04525e+19
31.8484  1.81866e+19
31.9657  1.55585e+19
32.083  1.27786e+19
32.2003  1.00797e+19
32.3176  7.66718e+18
32.4349  5.67588e+18
32.5522  4.22487e+18
32.6695  3.34331e+18
32.7868  3.02504e+18
32.9042  3.21551e+18
33.0215  3.82034e+18
33.1388  4.71878e+18
33.2561  5.76747e+18
33.3734  6.82383e+18
33.4907  7.76005e+18
33.608  8.48032e+18
33.7253  8.93205e+18
33.8426  9.1259e+18
33.9599  9.1057e+18
34.0772  8.956e+18
34.1945  8.76095e+18
34.3118  8.59124e+18
34.4291  8.48008e+18
34.5464  8.4225e+18
34.6637  8.38626e+18
34.781  8.3364e+18
34.8983  8.25147e+18
35.0156  8.15041e+18
35.1329  8.08932e+18
35.2503  8.15162e+18
35.3676  8.4203e+18
35.4849  8.93087e+18
35.6022  9.66934e+18
35.7195  1.05416e+19
35.8368  1.1418e+19
35.9541  1.21082e+19
36.0714  1.25204e+19
36.1887  1.25836e+19
36.306  1.23637e+19
36.4233  1.20204e+19
36.5406  1.17738e+19
36.6579  1.18401e+19
36.7752  1.23617e+19
36.8925  1.33584e+19
37.0098  1.4715e+19
37.1271  1.6196e+19
37.2444  1.75124e+19
37.3617  1.84292e+19
37.479  1.88487e+19
37.5964  1.8835e+19
37.7137  1.86353e+19
37.831  1.86259e+19
37.9483  1.9208e+19
38.0656  2.06486e+19
38.1829  2.30288e+19
38.3002  2.61128e+19
38.4175  2.94157e+19
38.5348  3.22967e+19
38.6521  3.40221e+19
38.7694  3.40555e+19
38.8867  3.20872e+19
39.004  2.81972e+19
39.1213  2.28375e+19
39.2386  1.67777e+19
39.3559  1.09394e+19
39.4732  6.20333e+18
39.5905  3.2598e+18
39.7078  2.47897e+18
39.8251  3.85657e+18
39.9425  7.03324e+18
40.0598  1.1384e+19
40.1771  1.61741e+19
40.2944  2.06765e+19
40.4117  2.42755e+19
40.529  2.66021e+19
40.6463  2.75161e+19
40.7636  2.70613e+19
40.8809  2.55097e+19
40.9982  2.32238e+19
41.1155  2.05825e+19
41.2328  1.79918e+19
41.3501  1.57578e+19
41.4674  1.41115e+19
41.5847  1.31402e+19
41.702  1.28363e+19
41.8193  1.30604e+19
41.9366  1.36161e+19
42.0539  1.427e+19
42.1712  1.48193e+19
42.2885  1.51354e+19
42.4059  1.51963e+19
42.5232  1.51045e+19
42.6405  1.50127e+19
42.7578  1.51531e+19
42.8751  1.5643e+19
42.9924  1.64962e+19
43.1097  1.75993e+19
43.227  1.86785e+19
43.3443  1.93707e+19
43.4616  1.9362e+19
43.5789  1.84157e+19
43.6962  1.65344e+19
43.8135  1.39249e+19
43.9308  1.10207e+19
44.0481  8.33415e+18
44.1654  6.37189e+18
44.2827  5.46576e+18
44.4  5.71928e+18
44.5173  6.94949e+18
44.6347  8.73495e+18
44.752  1.0522e+19
44.8693  1.17808e+19
44.9866  1.21405e+19
45.1039  1.14358e+19
45.2212  9.83601e+18
45.3385  7.68702e+18
45.4558  5.47296e+18
45.5731  3.697e+18
45.6904  2.73121e+18
45.8077  2.73462e+18
45.925  3.66308e+18
46.0423  5.27659e+18
46.1596  7.22063e+18
46.2769  9.12941e+18
46.3942  1.06952e+19
46.5115  1.17258e+19
46.6288  1.2162e+19
46.7461  1.20444e+19
46.8634  1.14972e+19
46.9808  1.06716e+19
47.0981  9.68741e+18
47.2154  8.66089e+18
47.3327  7.65401e+18
47.45  6.75654e+18
47.5673  5.99807e+18
47.6846  5.42492e+18
47.8019  5.09514e+18
47.9192  5.06591e+18
48.0365  5.3572e+18
48.1538  5.97816e+18
48.2711  6.91035e+18
48.3884  8.12087e+18
48.5057  9.54945e+18
48.623  1.11251e+19
48.7403  1.27608e+19
48.8576  1.43938e+19
48.9749  1.59117e+19
49.0922  1.72066e+19
49.2095  1.81756e+19
49.3269  1.8745e+19
49.4442  1.88144e+19
49.5615  1.83771e+19
49.6788  1.74408e+19
49.7961  1.60777e+19
49.9134  1.43628e+19
50.0307  1.24128e+19
50.148  1.03384e+19
50.2653  8.22733e+18
50.3826  6.17485e+18
50.4999  4.26093e+18
50.6172  2.59767e+18
50.7345  1.31284e+18
