#S 1 spectral density
#N 2
#UFWHM 13.7247
#L  abscissas [um]  spectral density
-58.5938  1.74353e+19
-58.4764  1.63201e+19
-58.3591  1.57808e+19
-58.2418  1.59961e+19
-58.1245  1.68524e+19
-58.0072  1.80195e+19
-57.8899  1.90607e+19
-57.7726  1.95374e+19
-57.6553  1.91541e+19
-57.538  1.78484e+19
-57.4207  1.58236e+19
-57.3034  1.34774e+19
-57.1861  1.13329e+19
-57.0688  9.90016e+18
-56.9515  9.57384e+18
-56.8342  1.05153e+19
-56.7169  1.27261e+19
-56.5996  1.59361e+19
-56.4823  1.98001e+19
-56.365  2.38984e+19
-56.2477  2.77668e+19
-56.1303  3.10678e+19
-56.013  3.35091e+19
-55.8957  3.48846e+19
-55.7784  3.50557e+19
-55.6611  3.39835e+19
-55.5438  3.17218e+19
-55.4265  2.84512e+19
-55.3092  2.44318e+19
-55.1919  2.00237e+19
-55.0746  1.56991e+19
-54.9573  1.18779e+19
-54.84  8.98659e+18
-54.7227  7.27979e+18
-54.6054  6.87576e+18
-54.4881  7.67726e+18
-54.3708  9.41634e+18
-54.2535  1.17102e+19
-54.1362  1.41236e+19
-54.0189  1.62454e+19
-53.9016  1.77405e+19
-53.7842  1.84029e+19
-53.6669  1.81506e+19
-53.5496  1.70553e+19
-53.4323  1.52375e+19
-53.315  1.29258e+19
-53.1977  1.03508e+19
-53.0804  7.73532e+18
-52.9631  5.32633e+18
-52.8458  3.30446e+18
-52.7285  1.79815e+18
-52.6112  8.91174e+17
-52.4939  5.75947e+17
-52.3766  7.76288e+17
-52.2593  1.34921e+18
-52.142  2.11695e+18
-52.0247  2.89677e+18
-51.9074  3.53273e+18
-51.7901  3.92307e+18
-51.6728  4.04449e+18
-51.5555  3.92137e+18
-51.4381  3.63573e+18
-51.3208  3.28239e+18
-51.2035  2.94469e+18
-51.0862  2.68295e+18
-50.9689  2.52028e+18
-50.8516  2.45156e+18
-50.7343  2.48072e+18
-50.617  2.60077e+18
-50.4997  2.82217e+18
-50.3824  3.17682e+18
-50.2651  3.68693e+18
-50.1478  4.3783e+18
-50.0305  5.22885e+18
-49.9132  6.21106e+18
-49.7959  7.25471e+18
-49.6786  8.29016e+18
-49.5613  9.24544e+18
-49.444  1.00667e+19
-49.3267  1.07335e+19
-49.2094  1.1263e+19
-49.092  1.16685e+19
-48.9747  1.19827e+19
-48.8574  1.22148e+19
-48.7401  1.23733e+19
-48.6228  1.2449e+19
-48.5055  1.24661e+19
-48.3882  1.24237e+19
-48.2709  1.23826e+19
-48.1536  1.24147e+19
-48.0363  1.25966e+19
-47.919  1.30056e+19
-47.8017  1.37257e+19
-47.6844  1.47596e+19
-47.5671  1.60961e+19
-47.4498  1.76511e+19
-47.3325  1.93327e+19
-47.2152  2.09478e+19
-47.0979  2.23271e+19
-46.9806  2.32504e+19
-46.8633  2.35269e+19
-46.7459  2.29542e+19
-46.6286  2.14705e+19
-46.5113  1.91225e+19
-46.394  1.61455e+19
-46.2767  1.29628e+19
-46.1594  1.01697e+19
-46.0421  8.47702e+18
-45.9248  8.54677e+18
-45.8075  1.08851e+19
-45.6902  1.5677e+19
-45.5729  2.26715e+19
-45.4556  3.12359e+19
-45.3383  4.02617e+19
-45.221  4.85555e+19
-45.1037  5.48238e+19
-44.9864  5.80425e+19
-44.8691  5.76856e+19
-44.7518  5.37496e+19
-44.6345  4.67893e+19
-44.5172  3.78578e+19
-44.3998  2.82416e+19
-44.2825  1.92351e+19
-44.1652  1.19137e+19
-44.0479  6.95483e+18
-43.9306  4.57848e+18
-43.8133  4.55669e+18
-43.696  6.31838e+18
-43.5787  9.11366e+18
-43.4614  1.21858e+19
-43.3441  1.48869e+19
-43.2268  1.67699e+19
-43.1095  1.76351e+19
-42.9922  1.74704e+19
-42.8749  1.64066e+19
-42.7576  1.46599e+19
-42.6403  1.25027e+19
-42.523  1.01535e+19
-42.4057  7.84049e+18
-42.2884  5.73009e+18
-42.171  3.95854e+18
-42.0537  2.60332e+18
-41.9364  1.69893e+18
-41.8191  1.23992e+18
-41.7018  1.16027e+18
-41.5845  1.38268e+18
-41.4672  1.81586e+18
-41.3499  2.38349e+18
-41.2326  3.03713e+18
-41.1153  3.75924e+18
-40.998  4.53431e+18
-40.8807  5.34805e+18
-40.7634  6.1445e+18
-40.6461  6.82848e+18
-40.5288  7.26872e+18
-40.4115  7.32787e+18
-40.2942  6.92988e+18
-40.1769  6.09289e+18
-40.0596  4.94391e+18
-39.9423  3.75242e+18
-39.825  2.86812e+18
-39.7076  2.63951e+18
-39.5903  3.33429e+18
-39.473  5.05136e+18
-39.3557  7.69543e+18
-39.2384  1.09519e+19
-39.1211  1.4347e+19
-39.0038  1.73639e+19
-38.8865  1.95355e+19
-38.7692  2.05332e+19
-38.6519  2.02741e+19
-38.5346  1.8866e+19
-38.4173  1.66103e+19
-38.3  1.38736e+19
-38.1827  1.10577e+19
-38.0654  8.45316e+18
-37.9481  6.25374e+18
-37.8308  4.52503e+18
-37.7135  3.26511e+18
-37.5962  2.4636e+18
-37.4789  2.16115e+18
-37.3615  2.47411e+18
-37.2442  3.58169e+18
-37.1269  5.67746e+18
-37.0096  8.86894e+18
-36.8923  1.31434e+19
-36.775  1.82807e+19
-36.6577  2.38831e+19
-36.5404  2.93781e+19
-36.4231  3.41716e+19
-36.3058  3.77271e+19
-36.1885  3.96796e+19
-36.0712  3.98976e+19
-35.9539  3.85139e+19
-35.8366  3.58981e+19
-35.7193  3.25937e+19
-35.602  2.90901e+19
-35.4847  2.59164e+19
-35.3674  2.34083e+19
-35.2501  2.17314e+19
-35.1328  2.08824e+19
-35.0154  2.07523e+19
-34.8981  2.11644e+19
-34.7808  2.19431e+19
-34.6635  2.29233e+19
-34.5462  2.40292e+19
-34.4289  2.52538e+19
-34.3116  2.65506e+19
-34.1943  2.79203e+19
-34.077  2.9303e+19
-33.9597  3.06254e+19
-33.8424  3.17484e+19
-33.7251  3.25825e+19
-33.6078  3.29826e+19
-33.4905  3.2887e+19
-33.3732  3.22758e+19
-33.2559  3.11791e+19
-33.1386  2.96804e+19
-33.0213  2.79076e+19
-32.904  2.60253e+19
-32.7867  2.42043e+19
-32.6693  2.25804e+19
-32.552  2.1285e+19
-32.4347  2.03818e+19
-32.3174  1.99108e+19
-32.2001  1.98086e+19
-32.0828  1.99579e+19
-31.9655  2.01841e+19
-31.8482  2.03011e+19
-31.7309  2.01009e+19
-31.6136  1.94236e+19
-31.4963  1.8192e+19
-31.379  1.64098e+19
-31.2617  1.41821e+19
-31.1444  1.16956e+19
-31.0271  9.19277e+18
-30.9098  6.91871e+18
-30.7925  5.11847e+18
-30.6752  3.97433e+18
-30.5579  3.60223e+18
-30.4406  4.04188e+18
-30.3232  5.27121e+18
-30.2059  7.18922e+18
-30.0886  9.65839e+18
-29.9713  1.25184e+19
-29.854  1.55573e+19
-29.7367  1.85577e+19
-29.6194  2.13376e+19
-29.5021  2.37384e+19
-29.3848  2.56501e+19
-29.2675  2.70515e+19
-29.1502  2.8009e+19
-29.0329  2.871e+19
-28.9156  2.93591e+19
-28.7983  3.02014e+19
-28.681  3.14796e+19
-28.5637  3.33275e+19
-28.4464  3.58137e+19
-28.3291  3.88566e+19
-28.2118  4.227e+19
-28.0944  4.58171e+19
-27.9771  4.91995e+19
-27.8598  5.21256e+19
-27.7425  5.43914e+19
-27.6252  5.57847e+19
-27.5079  5.62854e+19
-27.3906  5.59232e+19
-27.2733  5.48647e+19
-27.156  5.33099e+19
-27.0387  5.15872e+19
-26.9214  5.00492e+19
-26.8041  4.90681e+19
-26.6868  4.89985e+19
-26.5695  5.00966e+19
-26.4522  5.25025e+19
-26.3349  5.62548e+19
-26.2176  6.11593e+19
-26.1003  6.69179e+19
-25.983  7.30764e+19
-25.8657  7.91486e+19
-25.7483  8.47257e+19
-25.631  8.94599e+19
-25.5137  9.32362e+19
-25.3964  9.60452e+19
-25.2791  9.80737e+19
-25.1618  9.96424e+19
-25.0445  1.01094e+20
-24.9272  1.02704e+20
-24.8099  1.04662e+20
-24.6926  1.07013e+20
-24.5753  1.09686e+20
-24.458  1.1234e+20
-24.3407  1.14679e+20
-24.2234  1.16285e+20
-24.1061  1.16798e+20
-23.9888  1.15927e+20
-23.8715  1.13494e+20
-23.7542  1.09518e+20
-23.6369  1.04191e+20
-23.5196  9.78823e+19
-23.4023  9.10644e+19
-23.2849  8.43016e+19
-23.1676  7.81655e+19
-23.0503  7.31126e+19
-22.933  6.95109e+19
-22.8157  6.74727e+19
-22.6984  6.69374e+19
-22.5811  6.77143e+19
-22.4638  6.94832e+19
-22.3465  7.19798e+19
-22.2292  7.50041e+19
-22.1119  7.85272e+19
-21.9946  8.26682e+19
-21.8773  8.77484e+19
-21.76  9.41545e+19
-21.6427  1.02233e+20
-21.5254  1.12231e+20
-21.4081  1.24257e+20
-21.2908  1.38167e+20
-21.1735  1.53599e+20
-21.0561  1.70037e+20
-20.9388  1.8675e+20
-20.8215  2.03111e+20
-20.7042  2.18338e+20
-20.5869  2.3186e+20
-20.4696  2.43058e+20
-20.3523  2.51551e+20
-20.235  2.56963e+20
-20.1177  2.59249e+20
-20.0004  2.5838e+20
-19.8831  2.5451e+20
-19.7658  2.48094e+20
-19.6485  2.39745e+20
-19.5312  2.30227e+20
-19.4139  2.20421e+20
-19.2966  2.11256e+20
-19.1793  2.03649e+20
-19.062  1.98424e+20
-18.9447  1.96309e+20
-18.8274  1.97955e+20
-18.71  2.03708e+20
-18.5927  2.13937e+20
-18.4754  2.28838e+20
-18.3581  2.48353e+20
-18.2408  2.72426e+20
-18.1235  3.00594e+20
-18.0062  3.32303e+20
-17.8889  3.66751e+20
-17.7716  4.02673e+20
-17.6543  4.39156e+20
-17.537  4.74749e+20
-17.4197  5.08475e+20
-17.3024  5.39248e+20
-17.1851  5.66539e+20
-17.0678  5.90109e+20
-16.9505  6.09997e+20
-16.8332  6.26654e+20
-16.7159  6.40864e+20
-16.5986  6.53584e+20
-16.4813  6.65801e+20
-16.364  6.78594e+20
-16.2466  6.9289e+20
-16.1293  7.09137e+20
-16.012  7.28211e+20
-15.8947  7.50085e+20
-15.7774  7.74769e+20
-15.6601  8.01878e+20
-15.5428  8.30818e+20
-15.4255  8.60633e+20
-15.3082  8.90498e+20
-15.1909  9.19084e+20
-15.0736  9.45563e+20
-14.9563  9.68941e+20
-14.839  9.88723e+20
-14.7217  1.00436e+21
-14.6044  1.01618e+21
-14.4871  1.02449e+21
-14.3698  1.03026e+21
-14.2525  1.03453e+21
-14.1352  1.0387e+21
-14.0178  1.04426e+21
-13.9005  1.05271e+21
-13.7832  1.06548e+21
-13.6659  1.08378e+21
-13.5486  1.10883e+21
-13.4313  1.14147e+21
-13.314  1.18215e+21
-13.1967  1.23119e+21
-13.0794  1.28874e+21
-12.9621  1.35458e+21
-12.8448  1.4283e+21
-12.7275  1.50943e+21
-12.6102  1.59735e+21
-12.4929  1.69132e+21
-12.3756  1.79047e+21
-12.2583  1.89395e+21
-12.141  2.00071e+21
-12.0237  2.10979e+21
-11.9064  2.21984e+21
-11.7891  2.32973e+21
-11.6718  2.43814e+21
-11.5544  2.54369e+21
-11.4371  2.64487e+21
-11.3198  2.74063e+21
-11.2025  2.82976e+21
-11.0852  2.91165e+21
-10.9679  2.98599e+21
-10.8506  3.05303e+21
-10.7333  3.11348e+21
-10.616  3.16893e+21
-10.4987  3.22147e+21
-10.3814  3.27341e+21
-10.2641  3.32762e+21
-10.1468  3.38756e+21
-10.0295  3.45592e+21
-9.91217  3.53537e+21
-9.79487  3.62863e+21
-9.67756  3.73702e+21
-9.56026  3.8614e+21
-9.44295  4.00146e+21
-9.32565  4.1566e+21
-9.20834  4.32475e+21
-9.09104  4.50354e+21
-8.97373  4.69006e+21
-8.85643  4.88163e+21
-8.73913  5.07507e+21
-8.62182  5.26778e+21
-8.50452  5.45774e+21
-8.38721  5.64365e+21
-8.26991  5.82433e+21
-8.1526  5.99975e+21
-8.03529  6.16984e+21
-7.91799  6.3352e+21
-7.80069  6.49675e+21
-7.68338  6.65491e+21
-7.56608  6.81056e+21
-7.44877  6.96421e+21
-7.33146  7.11599e+21
-7.21416  7.26579e+21
-7.09685  7.41323e+21
-6.97955  7.55802e+21
-6.86224  7.69964e+21
-6.74494  7.83788e+21
-6.62763  7.97209e+21
-6.51033  8.10281e+21
-6.39302  8.23059e+21
-6.27572  8.35643e+21
-6.15842  8.48196e+21
-6.04111  8.60879e+21
-5.92381  8.73889e+21
-5.8065  8.87421e+21
-5.68919  9.01604e+21
-5.57189  9.16563e+21
-5.45458  9.32352e+21
-5.33728  9.48991e+21
-5.21997  9.66353e+21
-5.10267  9.84351e+21
-4.98536  1.0028e+22
-4.86806  1.02149e+22
-4.75075  1.04025e+22
-4.63345  1.05891e+22
-4.51614  1.07731e+22
-4.39884  1.09538e+22
-4.28154  1.11316e+22
-4.16423  1.13073e+22
-4.04692  1.14819e+22
-3.92962  1.1658e+22
-3.81231  1.18381e+22
-3.69501  1.20245e+22
-3.5777  1.22196e+22
-3.4604  1.24252e+22
-3.34309  1.26419e+22
-3.22579  1.28691e+22
-3.10849  1.3106e+22
-2.99118  1.33492e+22
-2.87387  1.35951e+22
-2.75657  1.3839e+22
-2.63926  1.40756e+22
-2.52196  1.42991e+22
-2.40465  1.45042e+22
-2.28735  1.46853e+22
-2.17005  1.48386e+22
-2.05274  1.49609e+22
-1.93544  1.505e+22
-1.81813  1.51057e+22
-1.70083  1.51288e+22
-1.58352  1.51216e+22
-1.46622  1.50875e+22
-1.34891  1.50307e+22
-1.2316  1.49562e+22
-1.1143  1.48691e+22
-0.996995  1.47747e+22
-0.87969  1.46781e+22
-0.762385  1.45831e+22
-0.64508  1.44946e+22
-0.527775  1.44158e+22
-0.41047  1.43493e+22
-0.293165  1.42974e+22
-0.17586  1.42619e+22
-0.058555  1.4244e+22
0.05875  1.42439e+22
0.176055  1.42619e+22
0.29336  1.42971e+22
0.410665  1.43487e+22
0.52797  1.44148e+22
0.645275  1.44932e+22
0.76258  1.45811e+22
0.879885  1.46753e+22
0.99719  1.47712e+22
1.1145  1.48647e+22
1.2318  1.49507e+22
1.3491  1.5024e+22
1.46641  1.50795e+22
1.58371  1.51121e+22
1.70102  1.51178e+22
1.81832  1.50932e+22
1.93563  1.50361e+22
2.05294  1.49453e+22
2.17024  1.48217e+22
2.28754  1.46672e+22
2.40485  1.44846e+22
2.52216  1.42784e+22
2.63946  1.40538e+22
2.75677  1.38161e+22
2.87407  1.35713e+22
2.99137  1.33245e+22
3.10868  1.30805e+22
3.22599  1.28431e+22
3.34329  1.26153e+22
3.4606  1.23982e+22
3.5779  1.21924e+22
3.69521  1.19971e+22
3.81251  1.18106e+22
3.92982  1.16303e+22
4.04712  1.1454e+22
4.16443  1.12793e+22
4.28173  1.11035e+22
4.39903  1.09254e+22
4.51634  1.07443e+22
4.63364  1.056e+22
4.75095  1.03731e+22
4.86825  1.01849e+22
4.98556  9.99736e+21
5.10286  9.8124e+21
5.22017  9.63157e+21
5.33748  9.4572e+21
5.45478  9.29024e+21
5.57209  9.13162e+21
5.68939  8.98122e+21
5.8067  8.83859e+21
5.924  8.70271e+21
6.0413  8.57217e+21
6.15861  8.44503e+21
6.27591  8.31911e+21
6.39322  8.19315e+21
6.51052  8.06528e+21
6.62783  7.93457e+21
6.74514  7.80036e+21
6.86244  7.66249e+21
6.97975  7.52102e+21
7.09705  7.37653e+21
7.21436  7.22933e+21
7.33166  7.07965e+21
7.44897  6.92822e+21
7.56627  6.77494e+21
7.68358  6.61947e+21
7.80088  6.46159e+21
7.91819  6.30038e+21
8.03549  6.13539e+21
8.1528  5.96584e+21
8.2701  5.79095e+21
8.38741  5.61095e+21
8.50471  5.42582e+21
8.62202  5.23685e+21
8.73932  5.045e+21
8.85662  4.85274e+21
8.97393  4.66246e+21
9.09123  4.47707e+21
9.20854  4.2995e+21
9.32584  4.13254e+21
9.44315  3.97852e+21
9.56045  3.83918e+21
9.67776  3.71576e+21
9.79506  3.60793e+21
9.91237  3.51522e+21
10.0297  3.43597e+21
10.147  3.36792e+21
10.2643  3.30816e+21
10.3816  3.25382e+21
10.4989  3.20182e+21
10.6162  3.14927e+21
10.7335  3.0937e+21
10.8508  3.03315e+21
10.9681  2.9661e+21
11.0854  2.89193e+21
11.2027  2.81021e+21
11.32  2.72124e+21
11.4373  2.6258e+21
11.5546  2.52486e+21
11.6719  2.41967e+21
11.7893  2.31175e+21
11.9066  2.20236e+21
12.0239  2.09265e+21
12.1412  1.98427e+21
12.2585  1.87804e+21
12.3758  1.77522e+21
12.4931  1.67672e+21
12.6104  1.58346e+21
12.7277  1.49623e+21
12.845  1.41573e+21
12.9623  1.34263e+21
13.0796  1.27756e+21
13.1969  1.22057e+21
13.3142  1.17218e+21
13.4315  1.13206e+21
13.5488  1.09993e+21
13.6661  1.07532e+21
13.7834  1.05735e+21
13.9007  1.04491e+21
14.018  1.03668e+21
14.1354  1.0314e+21
14.2527  1.02747e+21
14.37  1.02337e+21
14.4873  1.01783e+21
14.6046  1.00965e+21
14.7219  9.98045e+20
14.8392  9.82584e+20
14.9565  9.63039e+20
15.0738  9.39939e+20
15.1911  9.13685e+20
15.3084  8.85307e+20
15.4257  8.55717e+20
15.543  8.26105e+20
15.6603  7.97386e+20
15.7776  7.70468e+20
15.8949  7.4594e+20
16.0122  7.24266e+20
16.1295  7.05359e+20
16.2468  6.89087e+20
16.3641  6.74968e+20
16.4815  6.62243e+20
16.5988  6.50074e+20
16.7161  6.37433e+20
16.8334  6.23285e+20
16.9507  6.06666e+20
17.068  5.8691e+20
17.1853  5.63477e+20
17.3026  5.3634e+20
17.4199  5.0566e+20
17.5372  4.72052e+20
17.6545  4.36619e+20
17.7718  4.00381e+20
17.8891  3.64519e+20
18.0064  3.30337e+20
18.1237  2.98832e+20
18.241  2.70798e+20
18.3583  2.46895e+20
18.4756  2.27531e+20
18.5929  2.12793e+20
18.7102  2.02636e+20
18.8275  1.97011e+20
18.9449  1.9548e+20
19.0622  1.97627e+20
19.1795  2.02905e+20
19.2968  2.10511e+20
19.4141  2.19656e+20
19.5314  2.29372e+20
19.6487  2.38748e+20
19.766  2.46991e+20
19.8833  2.53184e+20
20.0006  2.56886e+20
20.1179  2.57634e+20
20.2352  2.55249e+20
20.3525  2.49701e+20
20.4698  2.41132e+20
20.5871  2.29901e+20
20.7044  2.16416e+20
20.8217  2.01257e+20
20.939  1.85051e+20
21.0563  1.6846e+20
21.1736  1.52221e+20
21.291  1.36984e+20
21.4083  1.23312e+20
21.5256  1.11466e+20
21.6429  1.01677e+20
21.7602  9.37814e+19
21.8775  8.75331e+19
21.9948  8.25593e+19
22.1121  7.8504e+19
22.2294  7.50409e+19
22.3467  7.20854e+19
22.464  6.96222e+19
22.5813  6.78831e+19
22.6986  6.71679e+19
22.8159  6.77572e+19
22.9332  6.98671e+19
23.0505  7.3543e+19
23.1678  7.86509e+19
23.2851  8.48364e+19
23.4024  9.16276e+19
23.5198  9.84706e+19
23.6371  1.04772e+20
23.7544  1.10064e+20
23.8717  1.13987e+20
23.989  1.16372e+20
24.1063  1.17191e+20
24.2236  1.16622e+20
24.3409  1.14962e+20
24.4582  1.12605e+20
24.5755  1.09915e+20
24.6928  1.07274e+20
24.8101  1.04925e+20
24.9274  1.0298e+20
25.0447  1.0139e+20
25.162  9.99462e+19
25.2793  9.83745e+19
25.3966  9.62869e+19
25.5139  9.34325e+19
25.6312  8.96009e+19
25.7485  8.47844e+19
25.8658  7.9167e+19
25.9832  7.30081e+19
26.1005  6.68446e+19
26.2178  6.11016e+19
26.3351  5.61951e+19
26.4524  5.24661e+19
26.5697  5.00871e+19
26.687  4.90329e+19
26.8043  4.91492e+19
26.9216  5.01686e+19
27.0389  5.16948e+19
27.1562  5.33974e+19
27.2735  5.49146e+19
27.3908  5.59377e+19
27.5081  5.62406e+19
27.6254  5.56818e+19
27.7427  5.42399e+19
27.86  5.19535e+19
27.9773  4.89934e+19
28.0946  4.56075e+19
28.212  4.20516e+19
28.3293  3.86519e+19
28.4466  3.56363e+19
28.5639  3.31795e+19
28.6812  3.13692e+19
28.7985  3.01239e+19
28.9158  2.92984e+19
29.0331  2.86722e+19
29.1504  2.79801e+19
29.2677  2.70248e+19
29.385  2.56246e+19
29.5023  2.37183e+19
29.6196  2.13071e+19
29.7369  1.85209e+19
29.8542  1.552e+19
29.9715  1.24863e+19
30.0888  9.63964e+18
30.2061  7.16652e+18
30.3234  5.25716e+18
30.4407  4.044e+18
30.558  3.6113e+18
30.6754  3.98851e+18
30.7927  5.13207e+18
30.91  6.92434e+18
31.0273  9.17625e+18
31.1446  1.16607e+19
31.2619  1.41223e+19
31.3792  1.6328e+19
31.4965  1.80813e+19
31.6138  1.92939e+19
31.7311  1.99649e+19
31.8484  2.01727e+19
31.9657  2.0079e+19
32.083  1.98727e+19
32.2003  1.97548e+19
32.3176  1.99051e+19
32.4349  2.04147e+19
32.5522  2.13561e+19
32.6695  2.26858e+19
32.7868  2.43429e+19
32.9042  2.61978e+19
33.0215  2.80818e+19
33.1388  2.98705e+19
33.2561  3.13629e+19
33.3734  3.24733e+19
33.4907  3.30656e+19
33.608  3.31455e+19
33.7253  3.27414e+19
33.8426  3.18907e+19
33.9599  3.07563e+19
34.0772  2.94224e+19
34.1945  2.80297e+19
34.3118  2.66597e+19
34.4291  2.53627e+19
34.5464  2.415e+19
34.6637  2.3024e+19
34.781  2.20444e+19
34.8983  2.12809e+19
35.0156  2.08842e+19
35.1329  2.10238e+19
35.2503  2.18902e+19
35.3676  2.35913e+19
35.4849  2.61183e+19
35.6022  2.93004e+19
35.7195  3.2779e+19
35.8368  3.60889e+19
35.9541  3.86482e+19
36.0714  4.00025e+19
36.1887  3.97177e+19
36.306  3.77168e+19
36.4233  3.41246e+19
36.5406  2.93018e+19
36.6579  2.37799e+19
36.7752  1.81806e+19
36.8925  1.30424e+19
37.0098  8.78137e+18
37.1271  5.60297e+18
37.2444  3.53178e+18
37.3617  2.44357e+18
37.479  2.1479e+18
37.5964  2.47055e+18
37.7137  3.29151e+18
37.831  4.57544e+18
37.9483  6.33145e+18
38.0656  8.55231e+18
38.1829  1.11777e+19
38.3002  1.40126e+19
38.4175  1.67378e+19
38.5348  1.89927e+19
38.6521  2.03742e+19
38.7694  2.06008e+19
38.8867  1.95606e+19
39.004  1.73532e+19
39.1213  1.43053e+19
39.2386  1.08843e+19
39.3559  7.62745e+18
39.4732  4.99111e+18
39.5905  3.28741e+18
39.7078  2.61663e+18
39.8251  2.8713e+18
39.9425  3.7764e+18
40.0598  4.9734e+18
40.1771  6.12016e+18
40.2944  6.95942e+18
40.4117  7.3423e+18
40.529  7.26611e+18
40.6463  6.82019e+18
40.7636  6.12217e+18
40.8809  5.31847e+18
40.9982  4.5031e+18
41.1155  3.72354e+18
41.2328  3.00875e+18
41.3501  2.35739e+18
41.4674  1.79801e+18
41.5847  1.37514e+18
41.702  1.16229e+18
41.8193  1.25189e+18
41.9366  1.72511e+18
42.0539  2.63864e+18
42.1712  3.99974e+18
42.2885  5.76982e+18
42.4059  7.87298e+18
42.5232  1.0173e+19
42.6405  1.25016e+19
42.7578  1.46392e+19
42.8751  1.63491e+19
42.9924  1.73808e+19
43.1097  1.75333e+19
43.227  1.66432e+19
43.3443  1.47449e+19
43.4616  1.20554e+19
43.5789  9.01154e+18
43.6962  6.25559e+18
43.8135  4.55616e+18
43.9308  4.65451e+18
44.0481  7.11308e+18
44.1654  1.21382e+19
44.2827  1.95185e+19
44.4  2.85573e+19
44.5173  3.81679e+19
44.6347  4.70447e+19
44.752  5.39105e+19
44.8693  5.77314e+19
44.9866  5.79856e+19
45.1039  5.46279e+19
45.2212  4.82882e+19
45.3385  3.99701e+19
45.4558  3.09182e+19
45.5731  2.24122e+19
45.6904  1.54802e+19
45.8077  1.07877e+19
45.925  8.54939e+18
46.0423  8.56784e+18
46.1596  1.03285e+19
46.2769  1.31621e+19
46.3942  1.63577e+19
46.5115  1.93351e+19
46.6288  2.16605e+19
46.7461  2.31101e+19
46.8634  2.36394e+19
46.9808  2.33317e+19
47.0981  2.23668e+19
47.2154  2.09632e+19
47.3327  1.93132e+19
47.45  1.76319e+19
47.5673  1.60657e+19
47.6846  1.47235e+19
47.8019  1.36967e+19
47.9192  1.29862e+19
48.0365  1.25808e+19
48.1538  1.24072e+19
48.2711  1.23856e+19
48.3884  1.24237e+19
48.5057  1.24686e+19
48.623  1.24491e+19
48.7403  1.23512e+19
48.8576  1.2198e+19
48.9749  1.19682e+19
49.0922  1.16613e+19
49.2095  1.12658e+19
49.3269  1.07507e+19
49.4442  1.00817e+19
49.5615  9.26116e+18
49.6788  8.30903e+18
49.7961  7.26168e+18
49.9134  6.20763e+18
50.0307  5.20945e+18
50.148  4.33718e+18
50.2653  3.63865e+18
50.3826  3.12371e+18
50.4999  2.77458e+18
50.6172  2.56334e+18
50.7345  2.45724e+18
