#S 1 spectral density
#N 2
#UFWHM 35.3088
#L  abscissas [um]  spectral density
-58.5938  2.52241e+20
-58.4764  2.56214e+20
-58.3591  2.60218e+20
-58.2418  2.64263e+20
-58.1245  2.68321e+20
-58.0072  2.72233e+20
-57.8899  2.75597e+20
-57.7726  2.78178e+20
-57.6553  2.79696e+20
-57.538  2.80014e+20
-57.4207  2.79106e+20
-57.3034  2.77083e+20
-57.1861  2.7405e+20
-57.0688  2.70101e+20
-56.9515  2.65273e+20
-56.8342  2.59585e+20
-56.7169  2.53057e+20
-56.5996  2.4567e+20
-56.4823  2.37594e+20
-56.365  2.29135e+20
-56.2477  2.20641e+20
-56.1303  2.12712e+20
-56.013  2.05911e+20
-55.8957  2.00766e+20
-55.7784  1.97644e+20
-55.6611  1.96823e+20
-55.5438  1.98442e+20
-55.4265  2.02317e+20
-55.3092  2.08313e+20
-55.1919  2.16161e+20
-55.0746  2.25537e+20
-54.9573  2.36151e+20
-54.84  2.47621e+20
-54.7227  2.59505e+20
-54.6054  2.71355e+20
-54.4881  2.82586e+20
-54.3708  2.92752e+20
-54.2535  3.01081e+20
-54.1362  3.07075e+20
-54.0189  3.10325e+20
-53.9016  3.10673e+20
-53.7842  3.07925e+20
-53.6669  3.02435e+20
-53.5496  2.94452e+20
-53.4323  2.84518e+20
-53.315  2.73257e+20
-53.1977  2.61209e+20
-53.0804  2.4915e+20
-52.9631  2.37622e+20
-52.8458  2.27191e+20
-52.7285  2.18334e+20
-52.6112  2.11444e+20
-52.4939  2.06738e+20
-52.3766  2.04354e+20
-52.2593  2.0423e+20
-52.142  2.06245e+20
-52.0247  2.1016e+20
-51.9074  2.15547e+20
-51.7901  2.22034e+20
-51.6728  2.29151e+20
-51.5555  2.36337e+20
-51.4381  2.43164e+20
-51.3208  2.49189e+20
-51.2035  2.53951e+20
-51.0862  2.57052e+20
-50.9689  2.58304e+20
-50.8516  2.57633e+20
-50.7343  2.55012e+20
-50.617  2.50685e+20
-50.4997  2.45035e+20
-50.3824  2.38494e+20
-50.2651  2.31645e+20
-50.1478  2.25014e+20
-50.0305  2.19021e+20
-49.9132  2.14099e+20
-49.7959  2.10417e+20
-49.6786  2.08122e+20
-49.5613  2.07018e+20
-49.444  2.0694e+20
-49.3267  2.0753e+20
-49.2094  2.08488e+20
-49.092  2.09378e+20
-48.9747  2.09916e+20
-48.8574  2.09751e+20
-48.7401  2.08725e+20
-48.6228  2.06759e+20
-48.5055  2.03841e+20
-48.3882  2.00263e+20
-48.2709  1.96216e+20
-48.1536  1.92054e+20
-48.0363  1.88143e+20
-47.919  1.84839e+20
-47.8017  1.82411e+20
-47.6844  1.81092e+20
-47.5671  1.80962e+20
-47.4498  1.82077e+20
-47.3325  1.84417e+20
-47.2152  1.87753e+20
-47.0979  1.91902e+20
-46.9806  1.96485e+20
-46.8633  2.00983e+20
-46.7459  2.04888e+20
-46.6286  2.07622e+20
-46.5113  2.08513e+20
-46.394  2.07062e+20
-46.2767  2.02994e+20
-46.1594  1.9625e+20
-46.0421  1.87051e+20
-45.9248  1.75899e+20
-45.8075  1.63539e+20
-45.6902  1.50737e+20
-45.5729  1.38311e+20
-45.4556  1.26937e+20
-45.3383  1.17064e+20
-45.221  1.0906e+20
-45.1037  1.03006e+20
-44.9864  9.89893e+19
-44.8691  9.7007e+19
-44.7518  9.71289e+19
-44.6345  9.93993e+19
-44.5172  1.03909e+20
-44.3998  1.10644e+20
-44.2825  1.19408e+20
-44.1652  1.29761e+20
-44.0479  1.41086e+20
-43.9306  1.52508e+20
-43.8133  1.6306e+20
-43.696  1.71925e+20
-43.5787  1.78316e+20
-43.4614  1.81809e+20
-43.3441  1.82275e+20
-43.2268  1.79938e+20
-43.1095  1.75251e+20
-42.9922  1.68849e+20
-42.8749  1.61362e+20
-42.7576  1.53439e+20
-42.6403  1.45596e+20
-42.523  1.38179e+20
-42.4057  1.31457e+20
-42.2884  1.25579e+20
-42.171  1.20613e+20
-42.0537  1.16609e+20
-41.9364  1.13607e+20
-41.8191  1.11567e+20
-41.7018  1.10471e+20
-41.5845  1.10232e+20
-41.4672  1.1075e+20
-41.3499  1.11903e+20
-41.2326  1.13528e+20
-41.1153  1.15475e+20
-40.998  1.17592e+20
-40.8807  1.19717e+20
-40.7634  1.21725e+20
-40.6461  1.23458e+20
-40.5288  1.24844e+20
-40.4115  1.25796e+20
-40.2942  1.26318e+20
-40.1769  1.26494e+20
-40.0596  1.26488e+20
-39.9423  1.26513e+20
-39.825  1.26823e+20
-39.7076  1.27636e+20
-39.5903  1.29107e+20
-39.473  1.31202e+20
-39.3557  1.3383e+20
-39.2384  1.36737e+20
-39.1211  1.39635e+20
-39.0038  1.42306e+20
-38.8865  1.44573e+20
-38.7692  1.46446e+20
-38.6519  1.48092e+20
-38.5346  1.49765e+20
-38.4173  1.51766e+20
-38.3  1.54326e+20
-38.1827  1.57516e+20
-38.0654  1.61188e+20
-37.9481  1.65014e+20
-37.8308  1.68488e+20
-37.7135  1.71116e+20
-37.5962  1.72426e+20
-37.4789  1.72213e+20
-37.3615  1.70462e+20
-37.2442  1.67467e+20
-37.1269  1.63783e+20
-37.0096  1.59986e+20
-36.8923  1.56744e+20
-36.775  1.54571e+20
-36.6577  1.53806e+20
-36.5404  1.54612e+20
-36.4231  1.56894e+20
-36.3058  1.6052e+20
-36.1885  1.65239e+20
-36.0712  1.7083e+20
-35.9539  1.7711e+20
-35.8366  1.83952e+20
-35.7193  1.9135e+20
-35.602  1.9925e+20
-35.4847  2.0761e+20
-35.3674  2.16324e+20
-35.2501  2.2529e+20
-35.1328  2.34373e+20
-35.0154  2.43426e+20
-34.8981  2.52534e+20
-34.7808  2.61596e+20
-34.6635  2.70736e+20
-34.5462  2.80151e+20
-34.4289  2.8997e+20
-34.3116  3.00307e+20
-34.1943  3.11217e+20
-34.077  3.22689e+20
-33.9597  3.34645e+20
-33.8424  3.46802e+20
-33.7251  3.58968e+20
-33.6078  3.70907e+20
-33.4905  3.82417e+20
-33.3732  3.93271e+20
-33.2559  4.03439e+20
-33.1386  4.12827e+20
-33.0213  4.215e+20
-32.904  4.29441e+20
-32.7867  4.36825e+20
-32.6693  4.43802e+20
-32.552  4.50493e+20
-32.4347  4.57269e+20
-32.3174  4.64146e+20
-32.2001  4.71456e+20
-32.0828  4.79299e+20
-31.9655  4.87766e+20
-31.8482  4.96943e+20
-31.7309  5.06673e+20
-31.6136  5.17005e+20
-31.4963  5.27759e+20
-31.379  5.38795e+20
-31.2617  5.49974e+20
-31.1444  5.61071e+20
-31.0271  5.72164e+20
-30.9098  5.83102e+20
-30.7925  5.93876e+20
-30.6752  6.04402e+20
-30.5579  6.14662e+20
-30.4406  6.247e+20
-30.3232  6.3449e+20
-30.2059  6.44413e+20
-30.0886  6.54338e+20
-29.9713  6.64535e+20
-29.854  6.75283e+20
-29.7367  6.86735e+20
-29.6194  6.99072e+20
-29.5021  7.12406e+20
-29.3848  7.26863e+20
-29.2675  7.42576e+20
-29.1502  7.59372e+20
-29.0329  7.77248e+20
-28.9156  7.96132e+20
-28.7983  8.15877e+20
-28.681  8.36234e+20
-28.5637  8.57143e+20
-28.4464  8.7835e+20
-28.3291  8.99687e+20
-28.2118  9.2086e+20
-28.0944  9.41764e+20
-27.9771  9.62284e+20
-27.8598  9.82147e+20
-27.7425  1.00151e+21
-27.6252  1.0199e+21
-27.5079  1.03744e+21
-27.3906  1.05389e+21
-27.2733  1.06913e+21
-27.156  1.08313e+21
-27.0387  1.09561e+21
-26.9214  1.10686e+21
-26.8041  1.11693e+21
-26.6868  1.12612e+21
-26.5695  1.13486e+21
-26.4522  1.14355e+21
-26.3349  1.15311e+21
-26.2176  1.16418e+21
-26.1003  1.1775e+21
-25.983  1.19362e+21
-25.8657  1.21313e+21
-25.7483  1.2365e+21
-25.631  1.26398e+21
-25.5137  1.29601e+21
-25.3964  1.3321e+21
-25.2791  1.37213e+21
-25.1618  1.41553e+21
-25.0445  1.46148e+21
-24.9272  1.50898e+21
-24.8099  1.5567e+21
-24.6926  1.60344e+21
-24.5753  1.64809e+21
-24.458  1.68925e+21
-24.3407  1.72599e+21
-24.2234  1.75769e+21
-24.1061  1.78393e+21
-23.9888  1.80462e+21
-23.8715  1.82017e+21
-23.7542  1.8312e+21
-23.6369  1.83856e+21
-23.5196  1.84318e+21
-23.4023  1.84636e+21
-23.2849  1.84935e+21
-23.1676  1.85308e+21
-23.0503  1.8589e+21
-22.933  1.86712e+21
-22.8157  1.87851e+21
-22.6984  1.89312e+21
-22.5811  1.91091e+21
-22.4638  1.9317e+21
-22.3465  1.95479e+21
-22.2292  1.98011e+21
-22.1119  2.00708e+21
-21.9946  2.03547e+21
-21.8773  2.06512e+21
-21.76  2.09577e+21
-21.6427  2.12784e+21
-21.5254  2.16133e+21
-21.4081  2.19641e+21
-21.2908  2.23288e+21
-21.1735  2.27074e+21
-21.0561  2.3098e+21
-20.9388  2.34984e+21
-20.8215  2.39073e+21
-20.7042  2.43159e+21
-20.5869  2.47215e+21
-20.4696  2.51168e+21
-20.3523  2.54937e+21
-20.235  2.58448e+21
-20.1177  2.61597e+21
-20.0004  2.6431e+21
-19.8831  2.66556e+21
-19.7658  2.68263e+21
-19.6485  2.69447e+21
-19.5312  2.70149e+21
-19.4139  2.70459e+21
-19.2966  2.70493e+21
-19.1793  2.70416e+21
-19.062  2.70408e+21
-18.9447  2.70654e+21
-18.8274  2.71313e+21
-18.71  2.72576e+21
-18.5927  2.74574e+21
-18.4754  2.77395e+21
-18.3581  2.81119e+21
-18.2408  2.85705e+21
-18.1235  2.91131e+21
-18.0062  2.97262e+21
-17.8889  3.03945e+21
-17.7716  3.10984e+21
-17.6543  3.18113e+21
-17.537  3.25124e+21
-17.4197  3.31757e+21
-17.3024  3.37805e+21
-17.1851  3.43099e+21
-17.0678  3.47494e+21
-16.9505  3.50977e+21
-16.8332  3.53556e+21
-16.7159  3.55298e+21
-16.5986  3.56309e+21
-16.4813  3.56752e+21
-16.364  3.56812e+21
-16.2466  3.56686e+21
-16.1293  3.56586e+21
-16.012  3.56652e+21
-15.8947  3.57071e+21
-15.7774  3.5795e+21
-15.6601  3.59363e+21
-15.5428  3.6136e+21
-15.4255  3.63918e+21
-15.3082  3.66986e+21
-15.1909  3.70537e+21
-15.0736  3.7443e+21
-14.9563  3.78596e+21
-14.839  3.82927e+21
-14.7217  3.87358e+21
-14.6044  3.91817e+21
-14.4871  3.96276e+21
-14.3698  4.00732e+21
-14.2525  4.05176e+21
-14.1352  4.09593e+21
-14.0178  4.14029e+21
-13.9005  4.18465e+21
-13.7832  4.22886e+21
-13.6659  4.27273e+21
-13.5486  4.31537e+21
-13.4313  4.3564e+21
-13.314  4.39471e+21
-13.1967  4.42953e+21
-13.0794  4.46007e+21
-12.9621  4.48526e+21
-12.8448  4.50494e+21
-12.7275  4.51866e+21
-12.6102  4.5266e+21
-12.4929  4.52921e+21
-12.3756  4.52717e+21
-12.2583  4.52202e+21
-12.141  4.51537e+21
-12.0237  4.50887e+21
-11.9064  4.50433e+21
-11.7891  4.50357e+21
-11.6718  4.50832e+21
-11.5544  4.51994e+21
-11.4371  4.53959e+21
-11.3198  4.56748e+21
-11.2025  4.60394e+21
-11.0852  4.64845e+21
-10.9679  4.69994e+21
-10.8506  4.75721e+21
-10.7333  4.81838e+21
-10.616  4.88146e+21
-10.4987  4.9448e+21
-10.3814  5.00606e+21
-10.2641  5.06372e+21
-10.1468  5.11611e+21
-10.0295  5.16227e+21
-9.91217  5.20139e+21
-9.79487  5.2333e+21
-9.67756  5.25835e+21
-9.56026  5.27693e+21
-9.44295  5.28976e+21
-9.32565  5.29809e+21
-9.20834  5.30283e+21
-9.09104  5.30508e+21
-8.97373  5.30595e+21
-8.85643  5.30605e+21
-8.73913  5.3063e+21
-8.62182  5.30714e+21
-8.50452  5.30906e+21
-8.38721  5.31244e+21
-8.26991  5.31736e+21
-8.1526  5.32413e+21
-8.03529  5.33285e+21
-7.91799  5.34381e+21
-7.80069  5.35714e+21
-7.68338  5.37305e+21
-7.56608  5.39213e+21
-7.44877  5.41486e+21
-7.33146  5.44156e+21
-7.21416  5.47259e+21
-7.09685  5.50818e+21
-6.97955  5.54836e+21
-6.86224  5.5928e+21
-6.74494  5.641e+21
-6.62763  5.69179e+21
-6.51033  5.744e+21
-6.39302  5.79616e+21
-6.27572  5.84638e+21
-6.15842  5.89311e+21
-6.04111  5.93443e+21
-5.92381  5.96884e+21
-5.8065  5.99531e+21
-5.68919  6.01294e+21
-5.57189  6.02154e+21
-5.45458  6.02129e+21
-5.33728  6.01301e+21
-5.21997  5.99781e+21
-5.10267  5.97746e+21
-4.98536  5.95394e+21
-4.86806  5.92928e+21
-4.75075  5.90549e+21
-4.63345  5.88462e+21
-4.51614  5.86822e+21
-4.39884  5.85761e+21
-4.28154  5.85369e+21
-4.16423  5.85669e+21
-4.04692  5.86667e+21
-3.92962  5.88308e+21
-3.81231  5.90527e+21
-3.69501  5.93225e+21
-3.5777  5.96282e+21
-3.4604  5.99577e+21
-3.34309  6.02999e+21
-3.22579  6.06437e+21
-3.10849  6.09793e+21
-2.99118  6.12988e+21
-2.87387  6.15966e+21
-2.75657  6.18696e+21
-2.63926  6.21134e+21
-2.52196  6.23273e+21
-2.40465  6.25094e+21
-2.28735  6.26595e+21
-2.17005  6.2776e+21
-2.05274  6.28591e+21
-1.93544  6.29065e+21
-1.81813  6.29177e+21
-1.70083  6.28938e+21
-1.58352  6.28343e+21
-1.46622  6.27409e+21
-1.34891  6.26154e+21
-1.2316  6.24629e+21
-1.1143  6.2287e+21
-0.996995  6.20944e+21
-0.87969  6.18916e+21
-0.762385  6.16877e+21
-0.64508  6.14894e+21
-0.527775  6.13062e+21
-0.41047  6.11475e+21
-0.293165  6.10203e+21
-0.17586  6.09323e+21
-0.058555  6.08888e+21
0.05875  6.0891e+21
0.176055  6.09404e+21
0.29336  6.10326e+21
0.410665  6.11642e+21
0.52797  6.13269e+21
0.645275  6.15132e+21
0.76258  6.17142e+21
0.879885  6.19208e+21
0.99719  6.21245e+21
1.1145  6.2318e+21
1.2318  6.24936e+21
1.3491  6.26466e+21
1.46641  6.2771e+21
1.58371  6.28641e+21
1.70102  6.29232e+21
1.81832  6.2947e+21
1.93563  6.29354e+21
2.05294  6.2888e+21
2.17024  6.28058e+21
2.28754  6.26901e+21
2.40485  6.25412e+21
2.52216  6.23601e+21
2.63946  6.21482e+21
2.75677  6.19065e+21
2.87407  6.16354e+21
2.99137  6.1339e+21
3.10868  6.10215e+21
3.22599  6.06873e+21
3.34329  6.03449e+21
3.4606  6.00052e+21
3.5779  5.96765e+21
3.69521  5.93726e+21
3.81251  5.91045e+21
3.92982  5.88856e+21
4.04712  5.87225e+21
4.16443  5.86255e+21
4.28173  5.85988e+21
4.39903  5.86411e+21
4.51634  5.87504e+21
4.63364  5.89191e+21
4.75095  5.91312e+21
4.86825  5.9373e+21
4.98556  5.96232e+21
5.10286  5.98621e+21
5.22017  6.00675e+21
5.33748  6.02209e+21
5.45478  6.03062e+21
5.57209  6.03092e+21
5.68939  6.02229e+21
5.8067  6.00458e+21
5.924  5.97794e+21
6.0413  5.94336e+21
6.15861  5.90175e+21
6.27591  5.85489e+21
6.39322  5.80448e+21
6.51052  5.75229e+21
6.62783  5.69993e+21
6.74514  5.64905e+21
6.86244  5.60096e+21
6.97975  5.55666e+21
7.09705  5.51671e+21
7.21436  5.4813e+21
7.33166  5.45065e+21
7.44897  5.4244e+21
7.56627  5.40214e+21
7.68358  5.38337e+21
7.80088  5.36785e+21
7.91819  5.35488e+21
8.03549  5.3443e+21
8.1528  5.33599e+21
8.2701  5.32931e+21
8.38741  5.32455e+21
8.50471  5.32126e+21
8.62202  5.31938e+21
8.73932  5.31839e+21
8.85662  5.31805e+21
8.97393  5.31786e+21
9.09123  5.31685e+21
9.20854  5.31442e+21
9.32584  5.30973e+21
9.44315  5.30125e+21
9.56045  5.28835e+21
9.67776  5.26979e+21
9.79506  5.24485e+21
9.91237  5.21295e+21
10.0297  5.17391e+21
10.147  5.12802e+21
10.2643  5.07583e+21
10.3816  5.01837e+21
10.4989  4.9573e+21
10.6162  4.89423e+21
10.7335  4.83126e+21
10.8508  4.77022e+21
10.9681  4.71321e+21
11.0854  4.66189e+21
11.2027  4.61767e+21
11.32  4.5813e+21
11.4373  4.55347e+21
11.5546  4.53406e+21
11.6719  4.52258e+21
11.7893  4.51804e+21
11.9066  4.51886e+21
12.0239  4.52361e+21
12.1412  4.53041e+21
12.2585  4.53729e+21
12.3758  4.54245e+21
12.4931  4.54458e+21
12.6104  4.54205e+21
12.7277  4.53422e+21
12.845  4.5207e+21
12.9623  4.50093e+21
13.0796  4.47567e+21
13.1969  4.44511e+21
13.3142  4.41015e+21
13.4315  4.37161e+21
13.5488  4.33045e+21
13.6661  4.28759e+21
13.7834  4.24359e+21
13.9007  4.19917e+21
14.018  4.15485e+21
14.1354  4.11032e+21
14.2527  4.06605e+21
14.37  4.02162e+21
14.4873  3.97715e+21
14.6046  3.93261e+21
14.7219  3.88807e+21
14.8392  3.84405e+21
14.9565  3.80098e+21
15.0738  3.75955e+21
15.1911  3.72091e+21
15.3084  3.68579e+21
15.4257  3.65531e+21
15.543  3.62992e+21
15.6603  3.61024e+21
15.7776  3.59632e+21
15.8949  3.58775e+21
16.0122  3.58355e+21
16.1295  3.58277e+21
16.2468  3.5838e+21
16.3641  3.58482e+21
16.4815  3.58402e+21
16.5988  3.57917e+21
16.7161  3.56871e+21
16.8334  3.55108e+21
16.9507  3.52494e+21
17.068  3.48958e+21
17.1853  3.44518e+21
17.3026  3.39191e+21
17.4199  3.33118e+21
17.5372  3.2648e+21
17.6545  3.19453e+21
17.7718  3.12315e+21
17.8891  3.05286e+21
18.0064  2.98606e+21
18.1237  2.92487e+21
18.241  2.87084e+21
18.3583  2.82519e+21
18.4756  2.78822e+21
18.5929  2.7602e+21
18.7102  2.74065e+21
18.8275  2.7281e+21
18.9449  2.72169e+21
19.0622  2.71935e+21
19.1795  2.71955e+21
19.2968  2.72034e+21
19.4141  2.7199e+21
19.5314  2.7168e+21
19.6487  2.70969e+21
19.766  2.69767e+21
19.8833  2.68048e+21
20.0006  2.65796e+21
20.1179  2.63063e+21
20.2352  2.59891e+21
20.3525  2.56372e+21
20.4698  2.52594e+21
20.5871  2.48642e+21
20.7044  2.44569e+21
20.8217  2.40467e+21
20.939  2.36384e+21
21.0563  2.32363e+21
21.1736  2.28454e+21
21.291  2.24648e+21
21.4083  2.20995e+21
21.5256  2.17495e+21
21.6429  2.14139e+21
21.7602  2.10914e+21
21.8775  2.07833e+21
21.9948  2.0486e+21
22.1121  2.0202e+21
22.2294  1.9933e+21
22.3467  1.96797e+21
22.464  1.94486e+21
22.5813  1.92421e+21
22.6986  1.90648e+21
22.8159  1.89202e+21
22.9332  1.8808e+21
23.0505  1.87273e+21
23.1678  1.86714e+21
23.2851  1.86345e+21
23.4024  1.86073e+21
23.5198  1.85746e+21
23.6371  1.85285e+21
23.7544  1.84536e+21
23.8717  1.8342e+21
23.989  1.81835e+21
24.1063  1.79725e+21
24.2236  1.77069e+21
24.3409  1.73861e+21
24.4582  1.70137e+21
24.5755  1.65982e+21
24.6928  1.61486e+21
24.8101  1.56776e+21
24.9274  1.51967e+21
25.0447  1.47199e+21
25.162  1.42589e+21
25.2793  1.38246e+21
25.3966  1.34229e+21
25.5139  1.30619e+21
25.6312  1.27433e+21
25.7485  1.24677e+21
25.8658  1.22351e+21
25.9832  1.20391e+21
26.1005  1.18788e+21
26.2178  1.17465e+21
26.3351  1.16356e+21
26.4524  1.15387e+21
26.5697  1.145e+21
26.687  1.13612e+21
26.8043  1.12679e+21
26.9216  1.1166e+21
27.0389  1.10513e+21
27.1562  1.09242e+21
27.2735  1.07829e+21
27.3908  1.06286e+21
27.5081  1.04629e+21
27.6254  1.02865e+21
27.7427  1.01016e+21
27.86  9.90811e+20
27.9773  9.70867e+20
28.0946  9.50444e+20
28.212  9.29421e+20
28.3293  9.08231e+20
28.4466  8.86829e+20
28.5639  8.65591e+20
28.6812  8.44551e+20
28.7985  8.24019e+20
28.9158  8.04193e+20
29.0331  7.85175e+20
29.1504  7.67115e+20
29.2677  7.50145e+20
29.385  7.34339e+20
29.5023  7.19749e+20
29.6196  7.06249e+20
29.7369  6.93797e+20
29.8542  6.82252e+20
29.9715  6.71478e+20
30.0888  6.61156e+20
30.2061  6.51199e+20
30.3234  6.41345e+20
30.4407  6.3142e+20
30.558  6.2141e+20
30.6754  6.11033e+20
30.7927  6.00521e+20
30.91  5.89733e+20
31.0273  5.78721e+20
31.1446  5.67518e+20
31.2619  5.56273e+20
31.3792  5.44994e+20
31.4965  5.33859e+20
31.6138  5.23026e+20
31.7311  5.12585e+20
31.8484  5.02728e+20
31.9657  4.93489e+20
32.083  4.84935e+20
32.2003  4.77025e+20
32.3176  4.69655e+20
32.4349  4.627e+20
32.5522  4.55899e+20
32.6695  4.49115e+20
32.7868  4.42132e+20
32.9042  4.34616e+20
33.0215  4.26582e+20
33.1388  4.17798e+20
33.2561  4.08294e+20
33.3734  3.9796e+20
33.4907  3.86922e+20
33.608  3.75278e+20
33.7253  3.63189e+20
33.8426  3.50859e+20
33.9599  3.38541e+20
34.0772  3.26482e+20
34.1945  3.14904e+20
34.3118  3.03861e+20
34.4291  2.93415e+20
34.5464  2.83498e+20
34.6637  2.74003e+20
34.781  2.64725e+20
34.8983  2.55562e+20
35.0156  2.46376e+20
35.1329  2.37149e+20
35.2503  2.2797e+20
35.3676  2.18847e+20
35.4849  2.10024e+20
35.6022  2.01557e+20
35.7195  1.93542e+20
35.8368  1.86032e+20
35.9541  1.79079e+20
36.0714  1.7273e+20
36.1887  1.67107e+20
36.306  1.62388e+20
36.4233  1.58782e+20
36.5406  1.56531e+20
36.6579  1.55808e+20
36.7752  1.56637e+20
36.8925  1.58884e+20
37.0098  1.62188e+20
37.1271  1.66007e+20
37.2444  1.69696e+20
37.3617  1.72642e+20
37.479  1.74323e+20
37.5964  1.74419e+20
37.7137  1.72958e+20
37.831  1.70166e+20
37.9483  1.6651e+20
38.0656  1.62496e+20
38.1829  1.58638e+20
38.3002  1.55269e+20
38.4175  1.52545e+20
38.5348  1.50387e+20
38.6521  1.48581e+20
38.7694  1.46827e+20
38.8867  1.44868e+20
39.004  1.4254e+20
39.1213  1.39853e+20
39.2386  1.36954e+20
39.3559  1.34087e+20
39.4732  1.31513e+20
39.5905  1.29466e+20
39.7078  1.28066e+20
39.8251  1.27303e+20
39.9425  1.27029e+20
40.0598  1.27008e+20
40.1771  1.27001e+20
40.2944  1.26785e+20
40.4117  1.26199e+20
40.529  1.25182e+20
40.6463  1.23716e+20
40.7636  1.21889e+20
40.8809  1.19818e+20
40.9982  1.17626e+20
41.1155  1.15467e+20
41.2328  1.13485e+20
41.3501  1.11848e+20
41.4674  1.10705e+20
41.5847  1.10204e+20
41.702  1.10473e+20
41.8193  1.11594e+20
41.9366  1.13652e+20
42.0539  1.16667e+20
42.1712  1.20643e+20
42.2885  1.25595e+20
42.4059  1.31424e+20
42.5232  1.38073e+20
42.6405  1.45381e+20
42.7578  1.53133e+20
42.8751  1.60929e+20
42.9924  1.68277e+20
43.1097  1.74551e+20
43.227  1.79104e+20
43.3443  1.81324e+20
43.4616  1.80736e+20
43.5789  1.77145e+20
43.6962  1.70685e+20
43.8135  1.61814e+20
43.9308  1.51254e+20
44.0481  1.3989e+20
44.1654  1.28667e+20
44.2827  1.18389e+20
44.4  1.09743e+20
44.5173  1.03151e+20
44.6347  9.87485e+19
44.752  9.6572e+19
44.8693  9.65197e+19
44.9866  9.85696e+19
45.1039  1.02617e+20
45.2212  1.08705e+20
45.3385  1.16735e+20
45.4558  1.26568e+20
45.5731  1.37932e+20
45.6904  1.50329e+20
45.8077  1.63051e+20
45.925  1.75337e+20
46.0423  1.86362e+20
46.1596  1.95486e+20
46.2769  2.0212e+20
46.3942  2.06095e+20
46.5115  2.0744e+20
46.6288  2.06478e+20
46.7461  2.03719e+20
46.8634  1.99775e+20
46.9808  1.95292e+20
47.0981  1.90747e+20
47.2154  1.86638e+20
47.3327  1.83339e+20
47.45  1.81083e+20
47.5673  1.80017e+20
47.6846  1.80211e+20
47.8019  1.81592e+20
47.9192  1.8407e+20
48.0365  1.87427e+20
48.1538  1.9134e+20
48.2711  1.95488e+20
48.3884  1.99506e+20
48.5057  2.03071e+20
48.623  2.05902e+20
48.7403  2.07819e+20
48.8576  2.08813e+20
48.9749  2.08889e+20
49.0922  2.08307e+20
49.2095  2.07417e+20
49.3269  2.06478e+20
49.4442  2.05883e+20
49.5615  2.05985e+20
49.6788  2.07176e+20
49.7961  2.09531e+20
49.9134  2.13303e+20
50.0307  2.18304e+20
50.148  2.24317e+20
50.2653  2.31007e+20
50.3826  2.37934e+20
50.4999  2.44458e+20
50.6172  2.50122e+20
50.7345  2.54402e+20
50.8518  2.57024e+20
