#S 1 spectral density
#N 2
#UFWHM 12.1997
#L  abscissas [um]  spectral density
-58.5938  1.72861e+19
-58.4764  2.14648e+19
-58.3591  2.57259e+19
-58.2418  2.9516e+19
-58.1245  3.22863e+19
-58.0072  3.34399e+19
-57.8899  3.26483e+19
-57.7726  2.98367e+19
-57.6553  2.52548e+19
-57.538  1.95201e+19
-57.4207  1.34899e+19
-57.3034  8.05254e+18
-57.1861  4.02782e+18
-57.0688  1.94759e+18
-56.9515  1.96934e+18
-56.8342  3.85144e+18
-56.7169  7.01598e+18
-56.5996  1.07238e+19
-56.4823  1.41765e+19
-56.365  1.67313e+19
-56.2477  1.79937e+19
-56.1303  1.78529e+19
-56.013  1.64451e+19
-55.8957  1.41346e+19
-55.7784  1.13378e+19
-55.6611  8.49208e+18
-55.5438  5.95085e+18
-55.4265  3.91835e+18
-55.3092  2.51919e+18
-55.1919  1.75068e+18
-55.0746  1.5499e+18
-54.9573  1.80672e+18
-54.84  2.40011e+18
-54.7227  3.18881e+18
-54.6054  4.06806e+18
-54.4881  4.93563e+18
-54.3708  5.72168e+18
-54.2535  6.41453e+18
-54.1362  7.05853e+18
-54.0189  7.73962e+18
-53.9016  8.59454e+18
-53.7842  9.74928e+18
-53.6669  1.12922e+19
-53.5496  1.32101e+19
-53.4323  1.54259e+19
-53.315  1.77166e+19
-53.1977  1.98119e+19
-53.0804  2.14452e+19
-52.9631  2.2317e+19
-52.8458  2.22605e+19
-52.7285  2.12424e+19
-52.6112  1.93276e+19
-52.4939  1.67194e+19
-52.3766  1.37207e+19
-52.2593  1.06829e+19
-52.142  7.95549e+18
-52.0247  5.84843e+18
-51.9074  4.60915e+18
-51.7901  4.39669e+18
-51.6728  5.26603e+18
-51.5555  7.16895e+18
-51.4381  9.97529e+18
-51.3208  1.34459e+19
-51.2035  1.73143e+19
-51.0862  2.12751e+19
-50.9689  2.50665e+19
-50.8516  2.84738e+19
-50.7343  3.134e+19
-50.617  3.36305e+19
-50.4997  3.54119e+19
-50.3824  3.67431e+19
-50.2651  3.77737e+19
-50.1478  3.85196e+19
-50.0305  3.90505e+19
-49.9132  3.92006e+19
-49.7959  3.88558e+19
-49.6786  3.78381e+19
-49.5613  3.59756e+19
-49.444  3.31567e+19
-49.3267  2.94092e+19
-49.2094  2.48672e+19
-49.092  1.97987e+19
-48.9747  1.45958e+19
-48.8574  9.7158e+18
-48.7401  5.63006e+18
-48.6228  2.76084e+18
-48.5055  1.45176e+18
-48.3882  1.88438e+18
-48.2709  4.07202e+18
-48.1536  7.82796e+18
-48.0363  1.27953e+19
-47.919  1.84547e+19
-47.8017  2.41939e+19
-47.6844  2.94055e+19
-47.5671  3.35616e+19
-47.4498  3.63104e+19
-47.3325  3.74315e+19
-47.2152  3.70188e+19
-47.0979  3.52605e+19
-46.9806  3.25522e+19
-46.8633  2.92689e+19
-46.7459  2.57411e+19
-46.6286  2.22426e+19
-46.5113  1.88745e+19
-46.394  1.57001e+19
-46.2767  1.2664e+19
-46.1594  9.75896e+18
-46.0421  7.03775e+18
-45.9248  4.58676e+18
-45.8075  2.55728e+18
-45.6902  1.09598e+18
-45.5729  2.82959e+17
-45.4556  1.01426e+17
-45.3383  4.1227e+17
-45.221  9.83212e+17
-45.1037  1.55876e+18
-44.9864  1.93369e+18
-44.8691  2.01284e+18
-44.7518  1.83989e+18
-44.6345  1.60279e+18
-44.5172  1.55097e+18
-44.3998  1.90481e+18
-44.2825  2.7808e+18
-44.1652  4.13035e+18
-44.0479  5.73815e+18
-43.9306  7.27976e+18
-43.8133  8.41853e+18
-43.696  8.911e+18
-43.5787  8.73407e+18
-43.4614  8.10318e+18
-43.3441  7.43101e+18
-43.2268  7.27033e+18
-43.1095  8.16314e+18
-42.9922  1.05027e+19
-42.8749  1.4417e+19
-42.7576  1.97361e+19
-42.6403  2.5948e+19
-42.523  3.24087e+19
-42.4057  3.832e+19
-42.2884  4.30111e+19
-42.171  4.59628e+19
-42.0537  4.69653e+19
-41.9364  4.60683e+19
-41.8191  4.35497e+19
-41.7018  3.99443e+19
-41.5845  3.57592e+19
-41.4672  3.15574e+19
-41.3499  2.77453e+19
-41.2326  2.46016e+19
-41.1153  2.22151e+19
-40.998  2.05178e+19
-40.8807  1.93503e+19
-40.7634  1.84728e+19
-40.6461  1.77261e+19
-40.5288  1.69985e+19
-40.4115  1.63887e+19
-40.2942  1.61905e+19
-40.1769  1.68342e+19
-40.0596  1.88792e+19
-39.9423  2.28872e+19
-39.825  2.92529e+19
-39.7076  3.80656e+19
-39.5903  4.90641e+19
-39.473  6.15073e+19
-39.3557  7.42483e+19
-39.2384  8.59278e+19
-39.1211  9.50842e+19
-39.0038  1.00459e+20
-38.8865  1.01225e+20
-38.7692  9.7174e+19
-38.6519  8.86749e+19
-38.5346  7.67141e+19
-38.4173  6.26765e+19
-38.3  4.81517e+19
-38.1827  3.46261e+19
-38.0654  2.32506e+19
-37.9481  1.47628e+19
-37.8308  9.33371e+18
-37.7135  6.70289e+18
-37.5962  6.26012e+18
-37.4789  7.26033e+18
-37.3615  8.97748e+18
-37.2442  1.08589e+19
-37.1269  1.25329e+19
-37.0096  1.39162e+19
-36.8923  1.50602e+19
-36.775  1.61347e+19
-36.6577  1.73115e+19
-36.5404  1.87548e+19
-36.4231  2.05017e+19
-36.3058  2.25355e+19
-36.1885  2.47664e+19
-36.0712  2.70864e+19
-35.9539  2.93407e+19
-35.8366  3.14183e+19
-35.7193  3.31713e+19
-35.602  3.4446e+19
-35.4847  3.51576e+19
-35.3674  3.51832e+19
-35.2501  3.44683e+19
-35.1328  3.30128e+19
-35.0154  3.09272e+19
-34.8981  2.83999e+19
-34.7808  2.57144e+19
-34.6635  2.31502e+19
-34.5462  2.09915e+19
-34.4289  1.94664e+19
-34.3116  1.8619e+19
-34.1943  1.83777e+19
-34.077  1.85599e+19
-33.9597  1.88715e+19
-33.8424  1.90235e+19
-33.7251  1.87484e+19
-33.6078  1.79292e+19
-33.4905  1.65595e+19
-33.3732  1.47791e+19
-33.2559  1.28395e+19
-33.1386  1.10357e+19
-33.0213  9.67627e+18
-32.904  9.01271e+18
-32.7867  9.20196e+18
-32.6693  1.02974e+19
-32.552  1.22612e+19
-32.4347  1.49583e+19
-32.3174  1.82427e+19
-32.2001  2.19162e+19
-32.0828  2.58157e+19
-31.9655  2.9794e+19
-31.8482  3.37916e+19
-31.7309  3.77786e+19
-31.6136  4.17701e+19
-31.4963  4.58283e+19
-31.379  5.00131e+19
-31.2617  5.43944e+19
-31.1444  5.89592e+19
-31.0271  6.35947e+19
-30.9098  6.82229e+19
-30.7925  7.251e+19
-30.6752  7.62288e+19
-30.5579  7.90598e+19
-30.4406  8.0742e+19
-30.3232  8.11674e+19
-30.2059  8.02234e+19
-30.0886  7.80393e+19
-29.9713  7.48943e+19
-29.854  7.10919e+19
-29.7367  6.70101e+19
-29.6194  6.30959e+19
-29.5021  5.97256e+19
-29.3848  5.71983e+19
-29.2675  5.57543e+19
-29.1502  5.5525e+19
-29.0329  5.65788e+19
-28.9156  5.88631e+19
-28.7983  6.22264e+19
-28.681  6.65151e+19
-28.5637  7.14102e+19
-28.4464  7.66619e+19
-28.3291  8.19216e+19
-28.2118  8.68664e+19
-28.0944  9.1239e+19
-27.9771  9.48374e+19
-27.8598  9.74963e+19
-27.7425  9.92266e+19
-27.6252  9.99259e+19
-27.5079  9.97085e+19
-27.3906  9.85733e+19
-27.2733  9.65944e+19
-27.156  9.38423e+19
-27.0387  9.03313e+19
-26.9214  8.61919e+19
-26.8041  8.15296e+19
-26.6868  7.65059e+19
-26.5695  7.12474e+19
-26.4522  6.59398e+19
-26.3349  6.07898e+19
-26.2176  5.58813e+19
-26.1003  5.13412e+19
-25.983  4.7187e+19
-25.8657  4.34309e+19
-25.7483  4.01282e+19
-25.631  3.73205e+19
-25.5137  3.5155e+19
-25.3964  3.37728e+19
-25.2791  3.33833e+19
-25.1618  3.4201e+19
-25.0445  3.64328e+19
-24.9272  4.01922e+19
-24.8099  4.55763e+19
-24.6926  5.25665e+19
-24.5753  6.10821e+19
-24.458  7.09566e+19
-24.3407  8.19867e+19
-24.2234  9.38876e+19
-24.1061  1.06373e+20
-23.9888  1.19061e+20
-23.8715  1.31557e+20
-23.7542  1.43427e+20
-23.6369  1.54315e+20
-23.5196  1.63899e+20
-23.4023  1.71882e+20
-23.2849  1.78156e+20
-23.1676  1.82772e+20
-23.0503  1.85822e+20
-22.933  1.87643e+20
-22.8157  1.88502e+20
-22.6984  1.88748e+20
-22.5811  1.88729e+20
-22.4638  1.8878e+20
-22.3465  1.89146e+20
-22.2292  1.90115e+20
-22.1119  1.91867e+20
-21.9946  1.94528e+20
-21.8773  1.98193e+20
-21.76  2.02908e+20
-21.6427  2.08578e+20
-21.5254  2.15072e+20
-21.4081  2.22263e+20
-21.2908  2.29999e+20
-21.1735  2.38197e+20
-21.0561  2.46885e+20
-20.9388  2.56111e+20
-20.8215  2.66067e+20
-20.7042  2.7699e+20
-20.5869  2.89035e+20
-20.4696  3.02175e+20
-20.3523  3.16187e+20
-20.235  3.30578e+20
-20.1177  3.44716e+20
-20.0004  3.57757e+20
-19.8831  3.68601e+20
-19.7658  3.76714e+20
-19.6485  3.81419e+20
-19.5312  3.82554e+20
-19.4139  3.80214e+20
-19.2966  3.75003e+20
-19.1793  3.67705e+20
-19.062  3.59351e+20
-18.9447  3.51032e+20
-18.8274  3.43869e+20
-18.71  3.38682e+20
-18.5927  3.36249e+20
-18.4754  3.3701e+20
-18.3581  3.4101e+20
-18.2408  3.48239e+20
-18.1235  3.582e+20
-18.0062  3.70279e+20
-17.8889  3.83694e+20
-17.7716  3.97405e+20
-17.6543  4.10738e+20
-17.537  4.22727e+20
-17.4197  4.32888e+20
-17.3024  4.40808e+20
-17.1851  4.46509e+20
-17.0678  4.50265e+20
-16.9505  4.52579e+20
-16.8332  4.54261e+20
-16.7159  4.56307e+20
-16.5986  4.59842e+20
-16.4813  4.66098e+20
-16.364  4.7634e+20
-16.2466  4.91845e+20
-16.1293  5.13553e+20
-16.012  5.4276e+20
-15.8947  5.80033e+20
-15.7774  6.25888e+20
-15.6601  6.80265e+20
-15.5428  7.42673e+20
-15.4255  8.11868e+20
-15.3082  8.86367e+20
-15.1909  9.6386e+20
-15.0736  1.04195e+21
-14.9563  1.11788e+21
-14.839  1.18923e+21
-14.7217  1.25334e+21
-14.6044  1.30862e+21
-14.4871  1.35364e+21
-14.3698  1.38797e+21
-14.2525  1.4116e+21
-14.1352  1.42535e+21
-14.0178  1.43055e+21
-13.9005  1.42894e+21
-13.7832  1.42242e+21
-13.6659  1.41294e+21
-13.5486  1.40259e+21
-13.4313  1.39313e+21
-13.314  1.38602e+21
-13.1967  1.38244e+21
-13.0794  1.38356e+21
-12.9621  1.38994e+21
-12.8448  1.40217e+21
-12.7275  1.42053e+21
-12.6102  1.44544e+21
-12.4929  1.47703e+21
-12.3756  1.51543e+21
-12.2583  1.56083e+21
-12.141  1.61337e+21
-12.0237  1.67305e+21
-11.9064  1.73969e+21
-11.7891  1.8132e+21
-11.6718  1.8933e+21
-11.5544  1.97947e+21
-11.4371  2.07098e+21
-11.3198  2.16708e+21
-11.2025  2.26675e+21
-11.0852  2.36905e+21
-10.9679  2.47291e+21
-10.8506  2.57722e+21
-10.7333  2.68089e+21
-10.616  2.78312e+21
-10.4987  2.88345e+21
-10.3814  2.98118e+21
-10.2641  3.07624e+21
-10.1468  3.16932e+21
-10.0295  3.26096e+21
-9.91217  3.3522e+21
-9.79487  3.44495e+21
-9.67756  3.5408e+21
-9.56026  3.64171e+21
-9.44295  3.7495e+21
-9.32565  3.8663e+21
-9.20834  3.99318e+21
-9.09104  4.13131e+21
-8.97373  4.28091e+21
-8.85643  4.44216e+21
-8.73913  4.61394e+21
-8.62182  4.79505e+21
-8.50452  4.98367e+21
-8.38721  5.17818e+21
-8.26991  5.37584e+21
-8.1526  5.57502e+21
-8.03529  5.77335e+21
-7.91799  5.96945e+21
-7.80069  6.16203e+21
-7.68338  6.35015e+21
-7.56608  6.53368e+21
-7.44877  6.71294e+21
-7.33146  6.88833e+21
-7.21416  7.06058e+21
-7.09685  7.23084e+21
-6.97955  7.40019e+21
-6.86224  7.56956e+21
-6.74494  7.74026e+21
-6.62763  7.91241e+21
-6.51033  8.08717e+21
-6.39302  8.26513e+21
-6.27572  8.44662e+21
-6.15842  8.63213e+21
-6.04111  8.82195e+21
-5.92381  9.01615e+21
-5.8065  9.21492e+21
-5.68919  9.4177e+21
-5.57189  9.62393e+21
-5.45458  9.83257e+21
-5.33728  1.00424e+22
-5.21997  1.02513e+22
-5.10267  1.04574e+22
-4.98536  1.06582e+22
-4.86806  1.08511e+22
-4.75075  1.10337e+22
-4.63345  1.12038e+22
-4.51614  1.13592e+22
-4.39884  1.14985e+22
-4.28154  1.16212e+22
-4.16423  1.17277e+22
-4.04692  1.18183e+22
-3.92962  1.18957e+22
-3.81231  1.19628e+22
-3.69501  1.20227e+22
-3.5777  1.208e+22
-3.4604  1.2139e+22
-3.34309  1.22039e+22
-3.22579  1.22788e+22
-3.10849  1.23678e+22
-2.99118  1.24736e+22
-2.87387  1.25984e+22
-2.75657  1.27439e+22
-2.63926  1.29099e+22
-2.52196  1.30962e+22
-2.40465  1.33015e+22
-2.28735  1.35233e+22
-2.17005  1.37592e+22
-2.05274  1.40066e+22
-1.93544  1.42617e+22
-1.81813  1.45217e+22
-1.70083  1.47837e+22
-1.58352  1.50446e+22
-1.46622  1.53021e+22
-1.34891  1.55533e+22
-1.2316  1.57961e+22
-1.1143  1.6028e+22
-0.996995  1.62468e+22
-0.87969  1.64502e+22
-0.762385  1.66349e+22
-0.64508  1.67992e+22
-0.527775  1.69405e+22
-0.41047  1.70563e+22
-0.293165  1.71447e+22
-0.17586  1.72041e+22
-0.058555  1.72338e+22
0.05875  1.72327e+22
0.176055  1.72011e+22
0.29336  1.71395e+22
0.410665  1.70493e+22
0.52797  1.69315e+22
0.645275  1.67885e+22
0.76258  1.66225e+22
0.879885  1.64363e+22
0.99719  1.62318e+22
1.1145  1.6012e+22
1.2318  1.5779e+22
1.3491  1.55354e+22
1.46641  1.52834e+22
1.58371  1.50253e+22
1.70102  1.47638e+22
1.81832  1.45013e+22
1.93563  1.42409e+22
2.05294  1.39853e+22
2.17024  1.37379e+22
2.28754  1.35018e+22
2.40485  1.32796e+22
2.52216  1.30743e+22
2.63946  1.28879e+22
2.75677  1.27215e+22
2.87407  1.2576e+22
2.99137  1.24508e+22
3.10868  1.23447e+22
3.22599  1.22554e+22
3.34329  1.21801e+22
3.4606  1.21149e+22
3.5779  1.20556e+22
3.69521  1.19978e+22
3.81251  1.19374e+22
3.92982  1.18697e+22
4.04712  1.17916e+22
4.16443  1.17002e+22
4.28173  1.15931e+22
4.39903  1.14694e+22
4.51634  1.13293e+22
4.63364  1.11731e+22
4.75095  1.10021e+22
4.86825  1.08186e+22
4.98556  1.06247e+22
5.10286  1.04233e+22
5.22017  1.02162e+22
5.33748  1.00068e+22
5.45478  9.79654e+21
5.57209  9.58765e+21
5.68939  9.38122e+21
5.8067  9.17836e+21
5.924  8.97965e+21
6.0413  8.78572e+21
6.15861  8.59621e+21
6.27591  8.41091e+21
6.39322  8.22989e+21
6.51052  8.0523e+21
6.62783  7.8777e+21
6.74514  7.70564e+21
6.86244  7.53546e+21
6.97975  7.36603e+21
7.09705  7.19676e+21
7.21436  7.02649e+21
7.33166  6.85395e+21
7.44897  6.67866e+21
7.56627  6.49951e+21
7.68358  6.31586e+21
7.80088  6.12781e+21
7.91819  5.93537e+21
8.03549  5.73962e+21
8.1528  5.54182e+21
8.2701  5.34328e+21
8.38741  5.14622e+21
8.50471  4.95261e+21
8.62202  4.76497e+21
8.73932  4.58475e+21
8.85662  4.41403e+21
8.97393  4.25385e+21
9.09123  4.10513e+21
9.20854  3.96793e+21
9.32584  3.84185e+21
9.44315  3.72584e+21
9.56045  3.61847e+21
9.67776  3.51821e+21
9.79506  3.42274e+21
9.91237  3.33045e+21
10.0297  3.23953e+21
10.147  3.14841e+21
10.2643  3.05584e+21
10.3816  2.96112e+21
10.4989  2.8639e+21
10.6162  2.76424e+21
10.7335  2.66253e+21
10.8508  2.55947e+21
10.9681  2.45579e+21
11.0854  2.35274e+21
11.2027  2.25115e+21
11.32  2.15209e+21
11.4373  2.05665e+21
11.5546  1.96571e+21
11.6719  1.88005e+21
11.7893  1.80052e+21
11.9066  1.72745e+21
12.0239  1.66105e+21
12.1412  1.60191e+21
12.2585  1.54972e+21
12.3758  1.50465e+21
12.4931  1.46657e+21
12.6104  1.4353e+21
12.7277  1.41069e+21
12.845  1.39254e+21
12.9623  1.38051e+21
13.0796  1.37442e+21
13.1969  1.37342e+21
13.3142  1.37717e+21
13.4315  1.38439e+21
13.5488  1.39391e+21
13.6661  1.40429e+21
13.7834  1.41369e+21
13.9007  1.4202e+21
14.018  1.42176e+21
14.1354  1.41654e+21
14.2527  1.40281e+21
14.37  1.37924e+21
14.4873  1.34506e+21
14.6046  1.30016e+21
14.7219  1.24514e+21
14.8392  1.18132e+21
14.9565  1.1104e+21
15.0738  1.03492e+21
15.1911  9.57335e+20
15.3084  8.80337e+20
15.4257  8.0633e+20
15.543  7.37594e+20
15.6603  6.75689e+20
15.7776  6.2178e+20
15.8949  5.7632e+20
16.0122  5.39434e+20
16.1295  5.10569e+20
16.2468  4.89018e+20
16.3641  4.73798e+20
16.4815  4.63733e+20
16.5988  4.57625e+20
16.7161  4.54186e+20
16.8334  4.52274e+20
16.9507  4.50657e+20
17.068  4.48451e+20
17.1853  4.44805e+20
17.3026  4.39216e+20
17.4199  4.3134e+20
17.5372  4.21244e+20
17.6545  4.09354e+20
17.7718  3.96224e+20
17.8891  3.82555e+20
18.0064  3.69374e+20
18.1237  3.575e+20
18.241  3.47706e+20
18.3583  3.40684e+20
18.4756  3.36882e+20
18.5929  3.3637e+20
18.7102  3.38933e+20
18.8275  3.4429e+20
18.9449  3.51626e+20
19.0622  3.6e+20
19.1795  3.68425e+20
19.2968  3.7567e+20
19.4141  3.80848e+20
19.5314  3.83052e+20
19.6487  3.81735e+20
19.766  3.76909e+20
19.8833  3.68578e+20
20.0006  3.57499e+20
20.1179  3.44354e+20
20.2352  3.30127e+20
20.3525  3.15604e+20
20.4698  3.01482e+20
20.5871  2.88267e+20
20.7044  2.76207e+20
20.8217  2.65277e+20
20.939  2.55308e+20
21.0563  2.46049e+20
21.1736  2.37347e+20
21.291  2.29124e+20
21.4083  2.21389e+20
21.5256  2.14145e+20
21.6429  2.07655e+20
21.7602  2.02003e+20
21.8775  1.97317e+20
21.9948  1.9366e+20
22.1121  1.91046e+20
22.2294  1.89326e+20
22.3467  1.88464e+20
22.464  1.88122e+20
22.5813  1.88145e+20
22.6986  1.88233e+20
22.8159  1.88084e+20
22.9332  1.87323e+20
23.0505  1.85598e+20
23.1678  1.8259e+20
23.2851  1.78053e+20
23.4024  1.71812e+20
23.5198  1.63903e+20
23.6371  1.54359e+20
23.7544  1.43501e+20
23.8717  1.31651e+20
23.989  1.19186e+20
24.1063  1.0653e+20
24.2236  9.40562e+19
24.3409  8.21507e+19
24.4582  7.11602e+19
24.5755  6.12718e+19
24.6928  5.27807e+19
24.8101  4.58067e+19
24.9274  4.04451e+19
25.0447  3.66877e+19
25.162  3.44603e+19
25.2793  3.36385e+19
25.3966  3.4016e+19
25.5139  3.53858e+19
25.6312  3.75331e+19
25.7485  4.03036e+19
25.8658  4.36004e+19
25.9832  4.73101e+19
26.1005  5.14777e+19
26.2178  5.60454e+19
26.3351  6.09478e+19
26.4524  6.61304e+19
26.5697  7.14652e+19
26.687  7.67634e+19
26.8043  8.18659e+19
26.9216  8.65817e+19
27.0389  9.07603e+19
27.1562  9.43034e+19
27.2735  9.70938e+19
27.3908  9.90733e+19
27.5081  1.00214e+20
27.6254  1.00417e+20
27.7427  9.96726e+19
27.86  9.79167e+19
27.9773  9.51837e+19
28.0946  9.15448e+19
28.212  8.7096e+19
28.3293  8.21095e+19
28.4466  7.67942e+19
28.5639  7.15264e+19
28.6812  6.66237e+19
28.7985  6.23618e+19
28.9158  5.90186e+19
29.0331  5.67791e+19
29.1504  5.57817e+19
29.2677  5.60495e+19
29.385  5.75312e+19
29.5023  6.00827e+19
29.6196  6.34448e+19
29.7369  6.73288e+19
29.8542  7.13638e+19
29.9715  7.51177e+19
30.0888  7.82234e+19
30.2061  8.02996e+19
30.3234  8.11742e+19
30.4407  8.07442e+19
30.558  7.9012e+19
30.6754  7.61914e+19
30.7927  7.24519e+19
30.91  6.81489e+19
31.0273  6.35751e+19
31.1446  5.89132e+19
31.2619  5.43542e+19
31.3792  4.99612e+19
31.4965  4.57571e+19
31.6138  4.16835e+19
31.7311  3.76585e+19
31.8484  3.36463e+19
31.9657  2.96423e+19
32.083  2.56478e+19
32.2003  2.17552e+19
32.3176  1.81019e+19
32.4349  1.48442e+19
32.5522  1.2173e+19
32.6695  1.02418e+19
32.7868  9.17998e+18
32.9042  9.01713e+18
33.0215  9.69479e+18
33.1388  1.1056e+19
33.2561  1.28468e+19
33.3734  1.47624e+19
33.4907  1.65126e+19
33.608  1.78533e+19
33.7253  1.86511e+19
33.8426  1.89124e+19
33.9599  1.87731e+19
34.0772  1.84836e+19
34.1945  1.83384e+19
34.3118  1.8625e+19
34.4291  1.95274e+19
34.5464  2.11083e+19
34.6637  2.32903e+19
34.781  2.5882e+19
34.8983  2.85865e+19
35.0156  3.11106e+19
35.1329  3.31879e+19
35.2503  3.4616e+19
35.3676  3.53302e+19
35.4849  3.52794e+19
35.6022  3.45478e+19
35.7195  3.324e+19
35.8368  3.14929e+19
35.9541  2.93984e+19
36.0714  2.71213e+19
36.1887  2.48061e+19
36.306  2.25556e+19
36.4233  2.04999e+19
36.5406  1.8729e+19
36.6579  1.72764e+19
36.7752  1.60596e+19
36.8925  1.49548e+19
37.0098  1.37842e+19
37.1271  1.23793e+19
37.2444  1.06778e+19
37.3617  8.8009e+18
37.479  7.10912e+18
37.5964  6.16775e+18
37.7137  6.69419e+18
37.831  9.42727e+18
37.9483  1.49833e+19
38.0656  2.35748e+19
38.1829  3.50449e+19
38.3002  4.86354e+19
38.4175  6.31775e+19
38.5348  7.7175e+19
38.6521  8.9053e+19
38.7694  9.74477e+19
38.8867  1.01369e+20
39.004  1.00446e+20
39.1213  9.49186e+19
39.2386  8.56491e+19
39.3559  7.39202e+19
39.4732  6.11565e+19
39.5905  4.87539e+19
39.7078  3.78067e+19
39.8251  2.90529e+19
39.9425  2.27743e+19
40.0598  1.88422e+19
40.1771  1.68621e+19
40.2944  1.62676e+19
40.4117  1.65014e+19
40.529  1.71101e+19
40.6463  1.78411e+19
40.7636  1.85885e+19
40.8809  1.94414e+19
40.9982  2.06165e+19
41.1155  2.23054e+19
41.2328  2.46975e+19
41.3501  2.78426e+19
41.4674  3.16609e+19
41.5847  3.58535e+19
41.702  4.0019e+19
41.8193  4.36025e+19
41.9366  4.60565e+19
42.0539  4.68945e+19
42.1712  4.58366e+19
42.2885  4.28367e+19
42.4059  3.80978e+19
42.5232  3.21538e+19
42.6405  2.56792e+19
42.7578  1.94813e+19
42.8751  1.42045e+19
42.9924  1.03338e+19
43.1097  8.04064e+18
43.227  7.197e+18
43.3443  7.39106e+18
43.4616  8.0848e+18
43.5789  8.72004e+18
43.6962  8.88538e+18
43.8135  8.36786e+18
43.9308  7.22155e+18
44.0481  5.67093e+18
44.1654  4.07164e+18
44.2827  2.73189e+18
44.4  1.8708e+18
44.5173  1.53475e+18
44.6347  1.60423e+18
44.752  1.8457e+18
44.8693  2.01551e+18
44.9866  1.93535e+18
45.1039  1.55218e+18
45.2212  9.70065e+17
45.3385  3.97757e+17
45.4558  9.61904e+16
45.5731  2.96017e+17
45.6904  1.13111e+18
45.8077  2.62649e+18
45.925  4.6851e+18
46.0423  7.16809e+18
46.1596  9.91779e+18
46.2769  1.28414e+19
46.3942  1.59108e+19
46.5115  1.91125e+19
46.6288  2.24957e+19
46.7461  2.59983e+19
46.8634  2.95038e+19
46.9808  3.27819e+19
47.0981  3.54412e+19
47.2154  3.71172e+19
47.3327  3.74369e+19
47.45  3.62281e+19
47.5673  3.34218e+19
47.6846  2.91979e+19
47.8019  2.39332e+19
47.9192  1.81989e+19
48.0365  1.25654e+19
48.1538  7.64723e+18
48.2711  3.94917e+18
48.3884  1.83415e+18
48.5057  1.46962e+18
48.623  2.83522e+18
48.7403  5.73327e+18
48.8576  9.84777e+18
48.9749  1.47333e+19
49.0922  1.99268e+19
49.2095  2.4964e+19
49.3269  2.94942e+19
49.4442  3.32112e+19
49.5615  3.60097e+19
49.6788  3.78475e+19
49.7961  3.88664e+19
49.9134  3.91766e+19
50.0307  3.90078e+19
50.148  3.85142e+19
50.2653  3.77528e+19
50.3826  3.67311e+19
50.4999  3.53751e+19
50.6172  3.35815e+19
50.7345  3.12663e+19
50.8518  2.83629e+19
