#S 1 spectral density
#N 2
#UFWHM 13.7247
#L  abscissas [um]  spectral density
-58.5938  1.43976e+19
-58.4764  1.55619e+19
-58.3591  1.64435e+19
-58.2418  1.6842e+19
-58.1245  1.6531e+19
-58.0072  1.53912e+19
-57.8899  1.34103e+19
-57.7726  1.07882e+19
-57.6553  7.95615e+18
-57.538  5.49301e+18
-57.4207  4.0566e+18
-57.3034  4.24851e+18
-57.1861  6.45067e+18
-57.0688  1.0718e+19
-56.9515  1.67579e+19
-56.8342  2.38934e+19
-56.7169  3.12866e+19
-56.5996  3.79434e+19
-56.4823  4.30467e+19
-56.365  4.59831e+19
-56.2477  4.64723e+19
-56.1303  4.46029e+19
-56.013  4.07875e+19
-55.8957  3.55975e+19
-55.7784  2.97087e+19
-55.6611  2.37425e+19
-55.5438  1.82094e+19
-55.4265  1.35075e+19
-55.3092  9.83294e+18
-55.1919  7.26286e+18
-55.0746  5.79927e+18
-54.9573  5.3421e+18
-54.84  5.77196e+18
-54.7227  6.91359e+18
-54.6054  8.56432e+18
-54.4881  1.04966e+19
-54.3708  1.24969e+19
-54.2535  1.43252e+19
-54.1362  1.58105e+19
-54.0189  1.68451e+19
-53.9016  1.73744e+19
-53.7842  1.73879e+19
-53.6669  1.69724e+19
-53.5496  1.61996e+19
-53.4323  1.5147e+19
-53.315  1.39058e+19
-53.1977  1.25349e+19
-53.0804  1.10937e+19
-52.9631  9.67153e+18
-52.8458  8.33858e+18
-52.7285  7.16462e+18
-52.6112  6.23169e+18
-52.4939  5.58568e+18
-52.3766  5.22823e+18
-52.2593  5.11766e+18
-52.142  5.17143e+18
-52.0247  5.29608e+18
-51.9074  5.39708e+18
-51.7901  5.41011e+18
-51.6728  5.29938e+18
-51.5555  5.08367e+18
-51.4381  4.79146e+18
-51.3208  4.46946e+18
-51.2035  4.14676e+18
-51.0862  3.83013e+18
-50.9689  3.50461e+18
-50.8516  3.1473e+18
-50.7343  2.73954e+18
-50.617  2.29185e+18
-50.4997  1.83047e+18
-50.3824  1.41398e+18
-50.2651  1.10006e+18
-50.1478  9.33641e+17
-50.0305  9.16005e+17
-49.9132  1.02168e+18
-49.7959  1.17838e+18
-49.6786  1.29555e+18
-49.5613  1.30156e+18
-49.444  1.15679e+18
-49.3267  8.80889e+17
-49.2094  5.55628e+17
-49.092  3.21367e+17
-48.9747  3.49817e+17
-48.8574  8.2614e+17
-48.7401  1.91039e+18
-48.6228  3.71007e+18
-48.5055  6.2741e+18
-48.3882  9.52469e+18
-48.2709  1.3313e+19
-48.1536  1.73873e+19
-48.0363  2.13942e+19
-47.919  2.4932e+19
-47.8017  2.76283e+19
-47.6844  2.91289e+19
-47.5671  2.92089e+19
-47.4498  2.77961e+19
-47.3325  2.50565e+19
-47.2152  2.12723e+19
-47.0979  1.69364e+19
-46.9806  1.25532e+19
-46.8633  8.64988e+18
-46.7459  5.64374e+18
-46.6286  3.80048e+18
-46.5113  3.22992e+18
-46.394  3.89165e+18
-46.2767  5.63736e+18
-46.1594  8.28035e+18
-46.0421  1.16399e+19
-45.9248  1.5544e+19
-45.8075  1.98293e+19
-45.6902  2.43285e+19
-45.5729  2.87944e+19
-45.4556  3.29948e+19
-45.3383  3.65414e+19
-45.221  3.9166e+19
-45.1037  4.05944e+19
-44.9864  4.07278e+19
-44.8691  3.9701e+19
-44.7518  3.78633e+19
-44.6345  3.5668e+19
-44.5172  3.36365e+19
-44.3998  3.22268e+19
-44.2825  3.1676e+19
-44.1652  3.198e+19
-44.0479  3.28355e+19
-43.9306  3.37637e+19
-43.8133  3.41969e+19
-43.696  3.36882e+19
-43.5787  3.19693e+19
-43.4614  2.90491e+19
-43.3441  2.52629e+19
-43.2268  2.11716e+19
-43.1095  1.73924e+19
-42.9922  1.44963e+19
-42.8749  1.28745e+19
-42.7576  1.26193e+19
-42.6403  1.35706e+19
-42.523  1.53004e+19
-42.4057  1.72843e+19
-42.2884  1.89431e+19
-42.171  1.98373e+19
-42.0537  1.97215e+19
-41.9364  1.85162e+19
-41.8191  1.64125e+19
-41.7018  1.3684e+19
-41.5845  1.07542e+19
-41.4672  8.00312e+18
-41.3499  5.77137e+18
-41.2326  4.27338e+18
-41.1153  3.59121e+18
-40.998  3.66634e+18
-40.8807  4.2995e+18
-40.7634  5.21167e+18
-40.6461  6.10307e+18
-40.5288  6.70898e+18
-40.4115  6.87752e+18
-40.2942  6.60303e+18
-40.1769  6.05127e+18
-40.0596  5.54708e+18
-39.9423  5.4826e+18
-39.825  6.24401e+18
-39.7076  8.07572e+18
-39.5903  1.1006e+19
-39.473  1.47644e+19
-39.3557  1.88561e+19
-39.2384  2.25564e+19
-39.1211  2.51389e+19
-39.0038  2.60088e+19
-38.8865  2.48597e+19
-38.7692  2.17431e+19
-38.6519  1.71808e+19
-38.5346  1.19958e+19
-38.4173  7.21391e+18
-38.3  3.80512e+18
-38.1827  2.53524e+18
-38.0654  3.76164e+18
-37.9481  7.38755e+18
-37.8308  1.28649e+19
-37.7135  1.93485e+19
-37.5962  2.58237e+19
-37.4789  3.13435e+19
-37.3615  3.52058e+19
-37.2442  3.69972e+19
-37.1269  3.6751e+19
-37.0096  3.47094e+19
-36.8923  3.1414e+19
-36.775  2.74564e+19
-36.6577  2.33918e+19
-36.5404  1.96139e+19
-36.4231  1.63908e+19
-36.3058  1.38189e+19
-36.1885  1.18625e+19
-36.0712  1.04228e+19
-35.9539  9.38755e+18
-35.8366  8.66149e+18
-35.7193  8.19831e+18
-35.602  7.95894e+18
-35.4847  7.95648e+18
-35.3674  8.21265e+18
-35.2501  8.76501e+18
-35.1328  9.67824e+18
-35.0154  1.10358e+19
-34.8981  1.29578e+19
-34.7808  1.55507e+19
-34.6635  1.88934e+19
-34.5462  2.30132e+19
-34.4289  2.78715e+19
-34.3116  3.32507e+19
-34.1943  3.88554e+19
-34.077  4.42939e+19
-33.9597  4.91234e+19
-33.8424  5.29255e+19
-33.7251  5.53812e+19
-33.6078  5.62858e+19
-33.4905  5.56071e+19
-33.3732  5.34673e+19
-33.2559  5.00952e+19
-33.1386  4.58167e+19
-33.0213  4.09738e+19
-32.904  3.5935e+19
-32.7867  3.09845e+19
-32.6693  2.6345e+19
-32.552  2.21829e+19
-32.4347  1.85994e+19
-32.3174  1.5664e+19
-32.2001  1.33784e+19
-32.0828  1.17221e+19
-31.9655  1.06495e+19
-31.8482  1.0089e+19
-31.7309  9.95425e+18
-31.6136  1.01465e+19
-31.4963  1.05587e+19
-31.379  1.10765e+19
-31.2617  1.15867e+19
-31.1444  1.19751e+19
-31.0271  1.21416e+19
-30.9098  1.19899e+19
-30.7925  1.14399e+19
-30.6752  1.04722e+19
-30.5579  9.10486e+18
-30.4406  7.45333e+18
-30.3232  5.70742e+18
-30.2059  4.126e+18
-30.0886  3.01618e+18
-29.9713  2.68576e+18
-29.854  3.39747e+18
-29.7367  5.31258e+18
-29.6194  8.48926e+18
-29.5021  1.28322e+19
-29.3848  1.8121e+19
-29.2675  2.40391e+19
-29.1502  3.01944e+19
-29.0329  3.6214e+19
-28.9156  4.1693e+19
-28.7983  4.63099e+19
-28.681  4.98022e+19
-28.5637  5.19765e+19
-28.4464  5.2749e+19
-28.3291  5.20961e+19
-28.2118  5.01055e+19
-28.0944  4.69989e+19
-27.9771  4.30475e+19
-27.8598  3.86159e+19
-27.7425  3.41188e+19
-27.6252  2.98947e+19
-27.5079  2.63283e+19
-27.3906  2.36572e+19
-27.2733  2.20306e+19
-27.156  2.14421e+19
-27.0387  2.18151e+19
-26.9214  2.30108e+19
-26.8041  2.48482e+19
-26.6868  2.71804e+19
-26.5695  2.98636e+19
-26.4522  3.28445e+19
-26.3349  3.61431e+19
-26.2176  3.9777e+19
-26.1003  4.38535e+19
-25.983  4.8422e+19
-25.8657  5.3551e+19
-25.7483  5.92947e+19
-25.631  6.56558e+19
-25.5137  7.26107e+19
-25.3964  7.9997e+19
-25.2791  8.76142e+19
-25.1618  9.51385e+19
-25.0445  1.02169e+20
-24.9272  1.08244e+20
-24.8099  1.12855e+20
-24.6926  1.15622e+20
-24.5753  1.16318e+20
-24.458  1.14781e+20
-24.3407  1.11237e+20
-24.2234  1.06086e+20
-24.1061  9.99348e+19
-23.9888  9.35632e+19
-23.8715  8.77746e+19
-23.7542  8.33778e+19
-23.6369  8.10494e+19
-23.5196  8.12873e+19
-23.4023  8.43526e+19
-23.2849  9.0241e+19
-23.1676  9.87208e+19
-23.0503  1.09264e+20
-22.933  1.21265e+20
-22.8157  1.33862e+20
-22.6984  1.46191e+20
-22.5811  1.57459e+20
-22.4638  1.66935e+20
-22.3465  1.74147e+20
-22.2292  1.78845e+20
-22.1119  1.81062e+20
-21.9946  1.81022e+20
-21.8773  1.79192e+20
-21.76  1.76116e+20
-21.6427  1.72279e+20
-21.5254  1.681e+20
-21.4081  1.63937e+20
-21.2908  1.60008e+20
-21.1735  1.56399e+20
-21.0561  1.53226e+20
-20.9388  1.50499e+20
-20.8215  1.48379e+20
-20.7042  1.47008e+20
-20.5869  1.46606e+20
-20.4696  1.473e+20
-20.3523  1.49271e+20
-20.235  1.52519e+20
-20.1177  1.57083e+20
-20.0004  1.62812e+20
-19.8831  1.69548e+20
-19.7658  1.77204e+20
-19.6485  1.85743e+20
-19.5312  1.95154e+20
-19.4139  2.0553e+20
-19.2966  2.16934e+20
-19.1793  2.29426e+20
-19.062  2.42942e+20
-18.9447  2.57336e+20
-18.8274  2.72382e+20
-18.71  2.87612e+20
-18.5927  3.02674e+20
-18.4754  3.17261e+20
-18.3581  3.31016e+20
-18.2408  3.43995e+20
-18.1235  3.56221e+20
-18.0062  3.68124e+20
-17.8889  3.80265e+20
-17.7716  3.93195e+20
-17.6543  4.08016e+20
-17.537  4.25409e+20
-17.4197  4.46396e+20
-17.3024  4.71607e+20
-17.1851  5.01615e+20
-17.0678  5.36614e+20
-16.9505  5.76348e+20
-16.8332  6.20092e+20
-16.7159  6.66753e+20
-16.5986  7.14767e+20
-16.4813  7.62302e+20
-16.364  8.07368e+20
-16.2466  8.48058e+20
-16.1293  8.82371e+20
-16.012  9.09365e+20
-15.8947  9.28018e+20
-15.7774  9.38186e+20
-15.6601  9.40276e+20
-15.5428  9.35263e+20
-15.4255  9.24498e+20
-15.3082  9.09965e+20
-15.1909  8.9335e+20
-15.0736  8.7701e+20
-14.9563  8.62868e+20
-14.839  8.52935e+20
-14.7217  8.48715e+20
-14.6044  8.51796e+20
-14.4871  8.63088e+20
-14.3698  8.83327e+20
-14.2525  9.12609e+20
-14.1352  9.50662e+20
-14.0178  9.96813e+20
-13.9005  1.05003e+21
-13.7832  1.10898e+21
-13.6659  1.17202e+21
-13.5486  1.23773e+21
-13.4313  1.30463e+21
-13.314  1.37134e+21
-13.1967  1.43683e+21
-13.0794  1.50056e+21
-12.9621  1.5621e+21
-12.8448  1.62146e+21
-12.7275  1.67891e+21
-12.6102  1.73488e+21
-12.4929  1.78986e+21
-12.3756  1.8442e+21
-12.2583  1.89828e+21
-12.141  1.95216e+21
-12.0237  2.00588e+21
-11.9064  2.05919e+21
-11.7891  2.11188e+21
-11.6718  2.16389e+21
-11.5544  2.21528e+21
-11.4371  2.26622e+21
-11.3198  2.31768e+21
-11.2025  2.37074e+21
-11.0852  2.4271e+21
-10.9679  2.48881e+21
-10.8506  2.55812e+21
-10.7333  2.63726e+21
-10.616  2.72848e+21
-10.4987  2.83367e+21
-10.3814  2.95387e+21
-10.2641  3.08961e+21
-10.1468  3.24099e+21
-10.0295  3.40666e+21
-9.91217  3.58465e+21
-9.79487  3.77283e+21
-9.67756  3.96808e+21
-9.56026  4.16711e+21
-9.44295  4.36642e+21
-9.32565  4.56324e+21
-9.20834  4.75441e+21
-9.09104  4.93782e+21
-8.97373  5.11177e+21
-8.85643  5.27569e+21
-8.73913  5.42919e+21
-8.62182  5.57291e+21
-8.50452  5.708e+21
-8.38721  5.83636e+21
-8.26991  5.95944e+21
-8.1526  6.07959e+21
-8.03529  6.19833e+21
-7.91799  6.31765e+21
-7.80069  6.43883e+21
-7.68338  6.5627e+21
-7.56608  6.69036e+21
-7.44877  6.82208e+21
-7.33146  6.9579e+21
-7.21416  7.09757e+21
-7.09685  7.24081e+21
-6.97955  7.387e+21
-6.86224  7.53567e+21
-6.74494  7.68624e+21
-6.62763  7.83759e+21
-6.51033  7.98925e+21
-6.39302  8.14038e+21
-6.27572  8.29033e+21
-6.15842  8.43867e+21
-6.04111  8.58475e+21
-5.92381  8.72807e+21
-5.8065  8.86871e+21
-5.68919  9.00633e+21
-5.57189  9.14141e+21
-5.45458  9.27453e+21
-5.33728  9.4072e+21
-5.21997  9.54045e+21
-5.10267  9.67691e+21
-4.98536  9.81885e+21
-4.86806  9.96901e+21
-4.75075  1.01303e+22
-4.63345  1.03058e+22
-4.51614  1.04973e+22
-4.39884  1.07068e+22
-4.28154  1.0935e+22
-4.16423  1.1182e+22
-4.04692  1.14459e+22
-3.92962  1.17244e+22
-3.81231  1.20143e+22
-3.69501  1.23109e+22
-3.5777  1.26093e+22
-3.4604  1.29041e+22
-3.34309  1.31897e+22
-3.22579  1.34608e+22
-3.10849  1.37133e+22
-2.99118  1.3943e+22
-2.87387  1.41474e+22
-2.75657  1.43248e+22
-2.63926  1.44748e+22
-2.52196  1.45978e+22
-2.40465  1.46953e+22
-2.28735  1.47686e+22
-2.17005  1.48209e+22
-2.05274  1.48546e+22
-1.93544  1.48719e+22
-1.81813  1.48761e+22
-1.70083  1.48692e+22
-1.58352  1.48537e+22
-1.46622  1.48315e+22
-1.34891  1.48042e+22
-1.2316  1.47736e+22
-1.1143  1.47409e+22
-0.996995  1.47073e+22
-0.87969  1.46744e+22
-0.762385  1.46422e+22
-0.64508  1.46126e+22
-0.527775  1.45861e+22
-0.41047  1.45637e+22
-0.293165  1.45458e+22
-0.17586  1.45336e+22
-0.058555  1.45273e+22
0.05875  1.45272e+22
0.176055  1.45332e+22
0.29336  1.45451e+22
0.410665  1.45626e+22
0.52797  1.45846e+22
0.645275  1.46105e+22
0.76258  1.46396e+22
0.879885  1.46711e+22
0.99719  1.47034e+22
1.1145  1.4736e+22
1.2318  1.47677e+22
1.3491  1.47974e+22
1.46641  1.48234e+22
1.58371  1.48443e+22
1.70102  1.48586e+22
1.81832  1.48641e+22
1.93563  1.48585e+22
2.05294  1.48396e+22
2.17024  1.48048e+22
2.28754  1.47513e+22
2.40485  1.46763e+22
2.52216  1.45776e+22
2.63946  1.44534e+22
2.75677  1.4302e+22
2.87407  1.41233e+22
2.99137  1.39177e+22
3.10868  1.36868e+22
3.22599  1.34334e+22
3.34329  1.31611e+22
3.4606  1.28747e+22
3.5779  1.25792e+22
3.69521  1.22802e+22
3.81251  1.19832e+22
3.92982  1.16928e+22
4.04712  1.14139e+22
4.16443  1.11499e+22
4.28173  1.0903e+22
4.39903  1.06747e+22
4.51634  1.04653e+22
4.63364  1.0274e+22
4.75095  1.00988e+22
4.86825  9.93751e+21
4.98556  9.78734e+21
5.10286  9.64563e+21
5.22017  9.50895e+21
5.33748  9.3755e+21
5.45478  9.24278e+21
5.57209  9.10929e+21
5.68939  8.97375e+21
5.8067  8.83552e+21
5.924  8.69429e+21
6.0413  8.55041e+21
6.15861  8.40381e+21
6.27591  8.25481e+21
6.39322  8.10443e+21
6.51052  7.95284e+21
6.62783  7.8009e+21
6.74514  7.64934e+21
6.86244  7.49893e+21
6.97975  7.35033e+21
7.09705  7.20446e+21
7.21436  7.06173e+21
7.33166  6.92244e+21
7.44897  6.78735e+21
7.56627  6.65636e+21
7.68358  6.52936e+21
7.80088  6.40597e+21
7.91819  6.2853e+21
8.03549  6.16656e+21
8.1528  6.04824e+21
8.2701  5.92833e+21
8.38741  5.80542e+21
8.50471  5.67724e+21
8.62202  5.54237e+21
8.73932  5.39863e+21
8.85662  5.24533e+21
8.97393  5.08185e+21
9.09123  4.90817e+21
9.20854  4.72532e+21
9.32584  4.53483e+21
9.44315  4.33886e+21
9.56045  4.14021e+21
9.67776  3.94231e+21
9.79506  3.74806e+21
9.91237  3.56094e+21
10.0297  3.38392e+21
10.147  3.21939e+21
10.2643  3.06903e+21
10.3816  2.93404e+21
10.4989  2.81461e+21
10.6162  2.71008e+21
10.7335  2.61928e+21
10.8508  2.54054e+21
10.9681  2.47151e+21
11.0854  2.41012e+21
11.2027  2.35395e+21
11.32  2.30103e+21
11.4373  2.2498e+21
11.5546  2.19891e+21
11.6719  2.14772e+21
11.7893  2.096e+21
11.9066  2.04355e+21
12.0239  1.99041e+21
12.1412  1.93712e+21
12.2585  1.88351e+21
12.3758  1.82984e+21
12.4931  1.77585e+21
12.6104  1.72133e+21
12.7277  1.66574e+21
12.845  1.60867e+21
12.9623  1.54968e+21
13.0796  1.48868e+21
13.1969  1.42537e+21
13.3142  1.36042e+21
13.4315  1.29427e+21
13.5488  1.22793e+21
13.6661  1.16281e+21
13.7834  1.1003e+21
13.9007  1.04198e+21
14.018  9.89298e+20
14.1354  9.43674e+20
14.2527  9.06127e+20
14.37  8.77315e+20
14.4873  8.57496e+20
14.6046  8.46452e+20
14.7219  8.43624e+20
14.8392  8.48008e+20
14.9565  8.58087e+20
15.0738  8.72366e+20
15.1911  8.88756e+20
15.3084  9.05325e+20
15.4257  9.19903e+20
15.543  9.30618e+20
15.6603  9.35645e+20
15.7776  9.33552e+20
15.8949  9.23381e+20
16.0122  9.04823e+20
16.1295  8.77928e+20
16.2468  8.43568e+20
16.3641  8.0309e+20
16.4815  7.5818e+20
16.5988  7.10831e+20
16.7161  6.6303e+20
16.8334  6.16613e+20
16.9507  5.7307e+20
17.068  5.33635e+20
17.1853  4.98918e+20
17.3026  4.69204e+20
17.4199  4.44185e+20
17.5372  4.23371e+20
17.6545  4.0615e+20
17.7718  3.91523e+20
17.8891  3.78584e+20
18.0064  3.66583e+20
18.1237  3.54752e+20
18.241  3.42473e+20
18.3583  3.29475e+20
18.4756  3.1567e+20
18.5929  3.01052e+20
18.7102  2.85847e+20
18.8275  2.70595e+20
18.9449  2.55528e+20
19.0622  2.4108e+20
19.1795  2.27565e+20
19.2968  2.15076e+20
19.4141  2.03705e+20
19.5314  1.93362e+20
19.6487  1.83979e+20
19.766  1.75539e+20
19.8833  1.67928e+20
20.0006  1.61296e+20
20.1179  1.55715e+20
20.2352  1.51321e+20
20.3525  1.48185e+20
20.4698  1.46346e+20
20.5871  1.45768e+20
20.7044  1.46321e+20
20.8217  1.47821e+20
20.939  1.5006e+20
21.0563  1.52877e+20
21.1736  1.56154e+20
21.291  1.59851e+20
21.4083  1.63905e+20
21.5256  1.68133e+20
21.6429  1.72409e+20
21.7602  1.76352e+20
21.8775  1.79522e+20
21.9948  1.81391e+20
22.1121  1.81447e+20
22.2294  1.79209e+20
22.3467  1.7453e+20
22.464  1.67252e+20
22.5813  1.57704e+20
22.6986  1.46404e+20
22.8159  1.34022e+20
22.9332  1.21404e+20
23.0505  1.09418e+20
23.1678  9.88682e+19
23.2851  9.04278e+19
23.4024  8.45828e+19
23.5198  8.15998e+19
23.6371  8.14183e+19
23.7544  8.38002e+19
23.8717  8.82283e+19
23.989  9.40304e+19
24.1063  1.00377e+20
24.2236  1.06465e+20
24.3409  1.11531e+20
24.4582  1.14963e+20
24.5755  1.16372e+20
24.6928  1.15584e+20
24.8101  1.12699e+20
24.9274  1.0799e+20
25.0447  1.01871e+20
25.162  9.48179e+19
25.2793  8.73077e+19
25.3966  7.96955e+19
25.5139  7.2342e+19
25.6312  6.54409e+19
25.7485  5.91165e+19
25.8658  5.34234e+19
25.9832  4.82975e+19
26.1005  4.37779e+19
26.2178  3.97343e+19
26.3351  3.60902e+19
26.4524  3.27848e+19
26.5697  2.97927e+19
26.687  2.70983e+19
26.8043  2.47846e+19
26.9216  2.29576e+19
27.0389  2.17691e+19
27.1562  2.14167e+19
27.2735  2.20362e+19
27.3908  2.37099e+19
27.5081  2.64215e+19
27.6254  3.00156e+19
27.7427  3.42603e+19
27.86  3.87785e+19
27.9773  4.31871e+19
28.0946  4.71019e+19
28.212  5.0143e+19
28.3293  5.20558e+19
28.4466  5.26337e+19
28.5639  5.17811e+19
28.6812  4.95433e+19
28.7985  4.59998e+19
28.9158  4.13429e+19
29.0331  3.58539e+19
29.1504  2.98408e+19
29.2677  2.37192e+19
29.385  1.7851e+19
29.5023  1.26272e+19
29.6196  8.34566e+18
29.7369  5.23414e+18
29.8542  3.37574e+18
29.9715  2.71554e+18
30.0888  3.08196e+18
30.2061  4.21571e+18
30.3234  5.81043e+18
30.4407  7.56177e+18
30.558  9.21276e+18
30.6754  1.05666e+19
30.7927  1.15351e+19
30.91  1.20752e+19
31.0273  1.22222e+19
31.1446  1.20353e+19
31.2619  1.16409e+19
31.3792  1.11247e+19
31.4965  1.0604e+19
31.6138  1.02003e+19
31.7311  1.00184e+19
31.8484  1.0162e+19
31.9657  1.07381e+19
32.083  1.18271e+19
32.2003  1.35012e+19
32.3176  1.58077e+19
32.4349  1.87596e+19
32.5522  2.2353e+19
32.6695  2.65173e+19
32.7868  3.11616e+19
32.9042  3.61096e+19
33.0215  4.1123e+19
33.1388  4.59352e+19
33.2561  5.01752e+19
33.3734  5.35195e+19
33.4907  5.56064e+19
33.608  5.62451e+19
33.7253  5.53266e+19
33.8426  5.28278e+19
33.9599  4.90255e+19
34.0772  4.41865e+19
34.1945  3.87638e+19
34.3118  3.31809e+19
34.4291  2.7834e+19
34.5464  2.30109e+19
34.6637  1.88947e+19
34.781  1.55666e+19
34.8983  1.29889e+19
35.0156  1.10723e+19
35.1329  9.70233e+18
35.2503  8.78017e+18
35.3676  8.21422e+18
35.4849  7.94912e+18
35.6022  7.93829e+18
35.7195  8.16232e+18
35.8368  8.62355e+18
35.9541  9.34483e+18
36.0714  1.03922e+19
36.1887  1.18346e+19
36.306  1.38091e+19
36.4233  1.64085e+19
36.5406  1.96513e+19
36.6579  2.34286e+19
36.7752  2.75075e+19
36.8925  3.14422e+19
37.0098  3.47007e+19
37.1271  3.66784e+19
37.2444  3.68919e+19
37.3617  3.50512e+19
37.479  3.11556e+19
37.5964  2.56016e+19
37.7137  1.91395e+19
37.831  1.26792e+19
37.9483  7.25438e+18
38.0656  3.68773e+18
38.1829  2.52795e+18
38.3002  3.8574e+18
38.4175  7.298e+18
38.5348  1.20971e+19
38.6521  1.72629e+19
38.7694  2.17723e+19
38.8867  2.48182e+19
39.004  2.59055e+19
39.1213  2.49833e+19
39.2386  2.23537e+19
39.3559  1.86312e+19
39.4732  1.45487e+19
39.5905  1.08151e+19
39.7078  7.93903e+18
39.8251  6.17019e+18
39.9425  5.46606e+18
40.0598  5.57306e+18
40.1771  6.10849e+18
40.2944  6.6704e+18
40.4117  6.94599e+18
40.529  6.76835e+18
40.6463  6.14556e+18
40.7636  5.24961e+18
40.8809  4.33298e+18
40.9982  3.7097e+18
41.1155  3.65778e+18
41.2328  4.36184e+18
41.3501  5.88121e+18
41.4674  8.13355e+18
41.5847  1.09006e+19
41.702  1.38233e+19
41.8193  1.65269e+19
41.9366  1.86091e+19
42.0539  1.97765e+19
42.1712  1.98632e+19
42.2885  1.89195e+19
42.4059  1.72422e+19
42.5232  1.5261e+19
42.6405  1.35708e+19
42.7578  1.26594e+19
42.8751  1.29666e+19
42.9924  1.46715e+19
43.1097  1.76425e+19
43.227  2.14813e+19
43.3443  2.56145e+19
43.4616  2.93947e+19
43.5789  3.22901e+19
43.6962  3.39771e+19
43.8135  3.44363e+19
43.9308  3.39328e+19
44.0481  3.29588e+19
44.1654  3.20509e+19
44.2827  3.17284e+19
44.4  3.22745e+19
44.5173  3.36891e+19
44.6347  3.57186e+19
44.752  3.7933e+19
44.8693  3.97767e+19
44.9866  4.07799e+19
45.1039  4.06217e+19
45.2212  3.91679e+19
45.3385  3.65263e+19
45.4558  3.29414e+19
45.5731  2.8738e+19
45.6904  2.42216e+19
45.8077  1.9717e+19
45.925  1.54174e+19
46.0423  1.15128e+19
46.1596  8.16244e+18
46.2769  5.53403e+18
46.3942  3.82501e+18
46.5115  3.20787e+18
46.6288  3.82765e+18
46.7461  5.71988e+18
46.8634  8.76836e+18
46.9808  1.26869e+19
47.0981  1.70638e+19
47.2154  2.13787e+19
47.3327  2.51113e+19
47.45  2.77904e+19
47.5673  2.91147e+19
47.6846  2.89694e+19
47.8019  2.74264e+19
47.9192  2.46892e+19
48.0365  2.11279e+19
48.1538  1.71356e+19
48.2711  1.30988e+19
48.3884  9.3439e+18
48.5057  6.13918e+18
48.623  3.62182e+18
48.7403  1.85142e+18
48.8576  7.9836e+17
48.9749  3.44626e+17
49.0922  3.28475e+17
49.2095  5.69094e+17
49.3269  8.9481e+17
49.4442  1.16995e+18
49.5615  1.30955e+18
49.6788  1.29956e+18
49.7961  1.17553e+18
49.9134  1.02022e+18
50.0307  9.16284e+17
50.148  9.31819e+17
50.2653  1.10331e+18
50.3826  1.42156e+18
50.4999  1.83957e+18
50.6172  2.29927e+18
50.7345  2.74649e+18
50.8518  3.15094e+18
