#S 1 spectral density
#N 2
#UFWHM 6.68639
#L  abscissas [um]  spectral density
-58.5938  2.0344e+19
-58.4764  2.05259e+19
-58.3591  2.18885e+19
-58.2418  2.44144e+19
-58.1245  2.81075e+19
-58.0072  3.3017e+19
-57.8899  3.90855e+19
-57.7726  4.61974e+19
-57.6553  5.40285e+19
-57.538  6.20386e+19
-57.4207  6.95426e+19
-57.3034  7.57358e+19
-57.1861  7.98487e+19
-57.0688  8.13276e+19
-56.9515  7.99646e+19
-56.8342  7.59698e+19
-56.7169  7.00855e+19
-56.5996  6.33425e+19
-56.4823  5.70603e+19
-56.365  5.25184e+19
-56.2477  5.06995e+19
-56.1303  5.21144e+19
-56.013  5.66824e+19
-55.8957  6.36647e+19
-55.7784  7.18387e+19
-55.6611  7.97338e+19
-55.5438  8.57757e+19
-55.4265  8.88006e+19
-55.3092  8.80852e+19
-55.1919  8.35279e+19
-55.0746  7.56896e+19
-54.9573  6.55808e+19
-54.84  5.46334e+19
-54.7227  4.4281e+19
-54.6054  3.58735e+19
-54.4881  3.03519e+19
-54.3708  2.82611e+19
-54.2535  2.96473e+19
-54.1362  3.41211e+19
-54.0189  4.09336e+19
-53.9016  4.91204e+19
-53.7842  5.76045e+19
-53.6669  6.54598e+19
-53.5496  7.18045e+19
-53.4323  7.60936e+19
-53.315  7.80825e+19
-53.1977  7.78043e+19
-53.0804  7.55949e+19
-52.9631  7.19783e+19
-52.8458  6.75686e+19
-52.7285  6.29651e+19
-52.6112  5.86581e+19
-52.4939  5.4937e+19
-52.3766  5.18877e+19
-52.2593  4.94087e+19
-52.142  4.73008e+19
-52.0247  4.53462e+19
-51.9074  4.33684e+19
-51.7901  4.13153e+19
-51.6728  3.92394e+19
-51.5555  3.72261e+19
-51.4381  3.54228e+19
-51.3208  3.38443e+19
-51.2035  3.24516e+19
-51.0862  3.10739e+19
-50.9689  2.96008e+19
-50.8516  2.8026e+19
-50.7343  2.65781e+19
-50.617  2.58321e+19
-50.4997  2.66625e+19
-50.3824  3.0134e+19
-50.2651  3.72851e+19
-50.1478  4.88594e+19
-50.0305  6.50434e+19
-49.9132  8.52139e+19
-49.7959  1.07987e+20
-49.6786  1.31263e+20
-49.5613  1.52521e+20
-49.444  1.69236e+20
-49.3267  1.79297e+20
-49.2094  1.8135e+20
-49.092  1.75078e+20
-48.9747  1.61204e+20
-48.8574  1.41504e+20
-48.7401  1.18253e+20
-48.6228  9.4144e+19
-48.5055  7.15719e+19
-48.3882  5.24563e+19
-48.2709  3.80079e+19
-48.1536  2.86093e+19
-48.0363  2.39446e+19
-47.919  2.31262e+19
-47.8017  2.49595e+19
-47.6844  2.82107e+19
-47.5671  3.17371e+19
-47.4498  3.46995e+19
-47.3325  3.65623e+19
-47.2152  3.7155e+19
-47.0979  3.65072e+19
-46.9806  3.49065e+19
-46.8633  3.27261e+19
-46.7459  3.04306e+19
-46.6286  2.83977e+19
-46.5113  2.70335e+19
-46.394  2.662e+19
-46.2767  2.74107e+19
-46.1594  2.94661e+19
-46.0421  3.27843e+19
-45.9248  3.72335e+19
-45.8075  4.25292e+19
-45.6902  4.82606e+19
-45.5729  5.3925e+19
-45.4556  5.89479e+19
-45.3383  6.27017e+19
-45.221  6.46968e+19
-45.1037  6.45536e+19
-44.9864  6.21383e+19
-44.8691  5.78244e+19
-44.7518  5.227e+19
-44.6345  4.65824e+19
-44.5172  4.22127e+19
-44.3998  4.06847e+19
-44.2825  4.33606e+19
-44.1652  5.11808e+19
-44.0479  6.43172e+19
-43.9306  8.21432e+19
-43.8133  1.03024e+20
-43.696  1.24596e+20
-43.5787  1.44032e+20
-43.4614  1.58464e+20
-43.3441  1.65523e+20
-43.2268  1.63797e+20
-43.1095  1.53072e+20
-42.9922  1.34637e+20
-42.8749  1.10907e+20
-42.7576  8.51329e+19
-42.6403  6.09156e+19
-42.523  4.15243e+19
-42.4057  2.9296e+19
-42.2884  2.52842e+19
-42.171  2.90807e+19
-42.0537  3.89767e+19
-41.9364  5.2351e+19
-41.8191  6.6271e+19
-41.7018  7.80693e+19
-41.5845  8.59329e+19
-41.4672  8.91781e+19
-41.3499  8.83567e+19
-41.2326  8.49831e+19
-41.1153  8.11245e+19
-40.998  7.87975e+19
-40.8807  7.94635e+19
-40.7634  8.36062e+19
-40.6461  9.07122e+19
-40.5288  9.93641e+19
-40.4115  1.07686e+20
-40.2942  1.13848e+20
-40.1769  1.16566e+20
-40.0596  1.15598e+20
-39.9423  1.11643e+20
-39.825  1.06271e+20
-39.7076  1.01452e+20
-39.5903  9.89748e+19
-39.473  9.98346e+19
-39.3557  1.03924e+20
-39.2384  1.09938e+20
-39.1211  1.15588e+20
-39.0038  1.18283e+20
-38.8865  1.1565e+20
-38.7692  1.06406e+20
-38.6519  9.08917e+19
-38.5346  7.10865e+19
-38.4173  5.05418e+19
-38.3  3.364e+19
-38.1827  2.48932e+19
-38.0654  2.78809e+19
-37.9481  4.45368e+19
-37.8308  7.45901e+19
-37.7135  1.15525e+20
-37.5962  1.62819e+20
-37.4789  2.10831e+20
-37.3615  2.53543e+20
-37.2442  2.85569e+20
-37.1269  3.03195e+20
-37.0096  3.04595e+20
-36.8923  2.90422e+20
-36.775  2.63162e+20
-36.6577  2.27096e+20
-36.5404  1.87299e+20
-36.4231  1.48748e+20
-36.3058  1.15846e+20
-36.1885  9.15344e+19
-36.0712  7.71832e+19
-35.9539  7.24231e+19
-35.8366  7.54234e+19
-35.7193  8.33259e+19
-35.602  9.2895e+19
-35.4847  1.0101e+20
-35.3674  1.05259e+20
-35.2501  1.04271e+20
-35.1328  9.78251e+19
-35.0154  8.67401e+19
-34.8981  7.25485e+19
-34.7808  5.72116e+19
-34.6635  4.2597e+19
-34.5462  3.0071e+19
-34.4289  2.04186e+19
-34.3116  1.37401e+19
-34.1943  9.62552e+18
-34.077  7.37306e+18
-33.9597  6.32879e+18
-33.8424  6.11008e+18
-33.7251  6.77866e+18
-33.6078  8.77272e+18
-33.4905  1.27582e+19
-33.3732  1.93705e+19
-33.2559  2.88875e+19
-33.1386  4.10105e+19
-33.0213  5.4807e+19
-32.904  6.8664e+19
-32.7867  8.07048e+19
-32.6693  8.89867e+19
-32.552  9.21045e+19
-32.4347  8.92477e+19
-32.3174  8.07693e+19
-32.2001  6.78881e+19
-32.0828  5.27272e+19
-31.9655  3.78101e+19
-31.8482  2.57062e+19
-31.7309  1.84833e+19
-31.6136  1.73733e+19
-31.4963  2.25631e+19
-31.379  3.31361e+19
-31.2617  4.73249e+19
-31.1444  6.27706e+19
-31.0271  7.70213e+19
-30.9098  8.78845e+19
-30.7925  9.39498e+19
-30.6752  9.4592e+19
-30.5579  9.01593e+19
-30.4406  8.18412e+19
-30.3232  7.13336e+19
-30.2059  6.06707e+19
-30.0886  5.17136e+19
-29.9713  4.59928e+19
-29.854  4.44582e+19
-29.7367  4.73901e+19
-29.6194  5.44992e+19
-29.5021  6.50003e+19
-29.3848  7.78196e+19
-29.2675  9.17711e+19
-29.1502  1.05773e+20
-29.0329  1.18932e+20
-28.9156  1.30628e+20
-28.7983  1.40447e+20
-28.681  1.48236e+20
-28.5637  1.53952e+20
-28.4464  1.57613e+20
-28.3291  1.59263e+20
-28.2118  1.58855e+20
-28.0944  1.56407e+20
-27.9771  1.51846e+20
-27.8598  1.45267e+20
-27.7425  1.36702e+20
-27.6252  1.26342e+20
-27.5079  1.1449e+20
-27.3906  1.01557e+20
-27.2733  8.80473e+19
-27.156  7.45503e+19
-27.0387  6.16826e+19
-26.9214  5.01181e+19
-26.8041  4.05257e+19
-26.6868  3.36212e+19
-26.5695  3.00986e+19
-26.4522  3.06187e+19
-26.3349  3.57693e+19
-26.2176  4.59592e+19
-26.1003  6.13628e+19
-25.983  8.18321e+19
-25.8657  1.06794e+20
-25.7483  1.35259e+20
-25.631  1.65769e+20
-25.5137  1.96635e+20
-25.3964  2.25948e+20
-25.2791  2.51776e+20
-25.1618  2.72488e+20
-25.0445  2.86863e+20
-24.9272  2.94217e+20
-24.8099  2.94656e+20
-24.6926  2.88789e+20
-24.5753  2.77788e+20
-24.458  2.6323e+20
-24.3407  2.46797e+20
-24.2234  2.30004e+20
-24.1061  2.14094e+20
-23.9888  1.99834e+20
-23.8715  1.87551e+20
-23.7542  1.76906e+20
-23.6369  1.67502e+20
-23.5196  1.58556e+20
-23.4023  1.49243e+20
-23.2849  1.39072e+20
-23.1676  1.27652e+20
-23.0503  1.14994e+20
-22.933  1.0145e+20
-22.8157  8.7521e+19
-22.6984  7.39904e+19
-22.5811  6.16517e+19
-22.4638  5.12504e+19
-22.3465  4.35217e+19
-22.2292  3.9018e+19
-22.1119  3.82165e+19
-21.9946  4.14417e+19
-21.8773  4.89385e+19
-21.76  6.07151e+19
-21.6427  7.6559e+19
-21.5254  9.60471e+19
-21.4081  1.1832e+20
-21.2908  1.42298e+20
-21.1735  1.66484e+20
-21.0561  1.89164e+20
-20.9388  2.08694e+20
-20.8215  2.23376e+20
-20.7042  2.32032e+20
-20.5869  2.33799e+20
-20.4696  2.2861e+20
-20.3523  2.16899e+20
-20.235  1.99903e+20
-20.1177  1.79101e+20
-20.0004  1.5653e+20
-19.8831  1.34164e+20
-19.7658  1.13852e+20
-19.6485  9.71244e+19
-19.5312  8.49979e+19
-19.4139  7.79556e+19
-19.2966  7.59403e+19
-19.1793  7.83019e+19
-19.062  8.40504e+19
-18.9447  9.19803e+19
-18.8274  1.00723e+20
-18.71  1.09214e+20
-18.5927  1.16534e+20
-18.4754  1.22243e+20
-18.3581  1.26456e+20
-18.2408  1.2943e+20
-18.1235  1.32003e+20
-18.0062  1.34885e+20
-17.8889  1.38841e+20
-17.7716  1.44275e+20
-17.6543  1.51064e+20
-17.537  1.58695e+20
-17.4197  1.66148e+20
-17.3024  1.72068e+20
-17.1851  1.75131e+20
-17.0678  1.74218e+20
-16.9505  1.68731e+20
-16.8332  1.58756e+20
-16.7159  1.45076e+20
-16.5986  1.29194e+20
-16.4813  1.13064e+20
-16.364  9.88011e+19
-16.2466  8.84079e+19
-16.1293  8.34589e+19
-16.012  8.46094e+19
-15.8947  9.17935e+19
-15.7774  1.04096e+20
-15.6601  1.1986e+20
-15.5428  1.37126e+20
-15.4255  1.53879e+20
-15.3082  1.68342e+20
-15.1909  1.79535e+20
-15.0736  1.87089e+20
-14.9563  1.91638e+20
-14.839  1.94555e+20
-14.7217  1.97897e+20
-14.6044  2.03888e+20
-14.4871  2.14795e+20
-14.3698  2.32688e+20
-14.2525  2.5911e+20
-14.1352  2.95112e+20
-14.0178  3.41099e+20
-13.9005  3.97029e+20
-13.7832  4.62584e+20
-13.6659  5.37064e+20
-13.5486  6.19496e+20
-13.4313  7.08829e+20
-13.314  8.0345e+20
-13.1967  9.01489e+20
-13.0794  1.00011e+21
-12.9621  1.09617e+21
-12.8448  1.18568e+21
-12.7275  1.26446e+21
-12.6102  1.32792e+21
-12.4929  1.37233e+21
-12.3756  1.39471e+21
-12.2583  1.39325e+21
-12.141  1.3683e+21
-12.0237  1.32207e+21
-11.9064  1.25887e+21
-11.7891  1.18428e+21
-11.6718  1.10527e+21
-11.5544  1.02919e+21
-11.4371  9.62934e+20
-11.3198  9.12529e+20
-11.2025  8.81936e+20
-11.0852  8.73283e+20
-10.9679  8.86493e+20
-10.8506  9.19243e+20
-10.7333  9.67813e+20
-10.616  1.02739e+21
-10.4987  1.09268e+21
-10.3814  1.15879e+21
-10.2641  1.22192e+21
-10.1468  1.27941e+21
-10.0295  1.33008e+21
-9.91217  1.37479e+21
-9.79487  1.41525e+21
-9.67756  1.45464e+21
-9.56026  1.49714e+21
-9.44295  1.54673e+21
-9.32565  1.60814e+21
-9.20834  1.68531e+21
-9.09104  1.78204e+21
-8.97373  1.90089e+21
-8.85643  2.04334e+21
-8.73913  2.20951e+21
-8.62182  2.3978e+21
-8.50452  2.60422e+21
-8.38721  2.82347e+21
-8.26991  3.04781e+21
-8.1526  3.26869e+21
-8.03529  3.47644e+21
-7.91799  3.66173e+21
-7.80069  3.81571e+21
-7.68338  3.93184e+21
-7.56608  4.00619e+21
-7.44877  4.03785e+21
-7.33146  4.0291e+21
-7.21416  3.98556e+21
-7.09685  3.91546e+21
-6.97955  3.82885e+21
-6.86224  3.73641e+21
-6.74494  3.6486e+21
-6.62763  3.57524e+21
-6.51033  3.52416e+21
-6.39302  3.50116e+21
-6.27572  3.50974e+21
-6.15842  3.55157e+21
-6.04111  3.62622e+21
-5.92381  3.732e+21
-5.8065  3.86618e+21
-5.68919  4.02532e+21
-5.57189  4.20577e+21
-5.45458  4.40388e+21
-5.33728  4.61565e+21
-5.21997  4.83724e+21
-5.10267  5.06528e+21
-4.98536  5.29698e+21
-4.86806  5.52932e+21
-4.75075  5.7612e+21
-4.63345  5.99176e+21
-4.51614  6.22148e+21
-4.39884  6.45166e+21
-4.28154  6.68455e+21
-4.16423  6.92284e+21
-4.04692  7.16843e+21
-3.92962  7.42329e+21
-3.81231  7.68858e+21
-3.69501  7.96334e+21
-3.5777  8.24579e+21
-3.4604  8.53251e+21
-3.34309  8.81863e+21
-3.22579  9.09969e+21
-3.10849  9.37091e+21
-2.99118  9.62797e+21
-2.87387  9.86832e+21
-2.75657  1.0091e+22
-2.63926  1.02971e+22
-2.52196  1.04891e+22
-2.40465  1.06719e+22
-2.28735  1.08514e+22
-2.17005  1.10341e+22
-2.05274  1.12278e+22
-1.93544  1.14391e+22
-1.81813  1.16752e+22
-1.70083  1.19418e+22
-1.58352  1.2244e+22
-1.46622  1.25842e+22
-1.34891  1.2963e+22
-1.2316  1.3379e+22
-1.1143  1.38268e+22
-0.996995  1.42984e+22
-0.87969  1.47826e+22
-0.762385  1.52641e+22
-0.64508  1.57264e+22
-0.527775  1.61509e+22
-0.41047  1.65187e+22
-0.293165  1.68121e+22
-0.17586  1.70171e+22
-0.058555  1.7122e+22
0.05875  1.71221e+22
0.176055  1.70167e+22
0.29336  1.68126e+22
0.410665  1.65193e+22
0.52797  1.61525e+22
0.645275  1.57291e+22
0.76258  1.52685e+22
0.879885  1.47886e+22
0.99719  1.43069e+22
1.1145  1.38375e+22
1.2318  1.33921e+22
1.3491  1.29783e+22
1.46641  1.26016e+22
1.58371  1.22633e+22
1.70102  1.19629e+22
1.81832  1.16975e+22
1.93563  1.14625e+22
2.05294  1.12519e+22
2.17024  1.10589e+22
2.28754  1.08763e+22
2.40485  1.06966e+22
2.52216  1.05131e+22
2.63946  1.03201e+22
2.75677  1.01132e+22
2.87407  9.88913e+21
2.99137  9.64746e+21
3.10868  9.38889e+21
3.22599  9.11635e+21
3.34329  8.83398e+21
3.4606  8.54643e+21
3.5779  8.25878e+21
3.69521  7.97529e+21
3.81251  7.69962e+21
3.92982  7.43328e+21
4.04712  7.17744e+21
4.16443  6.93108e+21
4.28173  6.69213e+21
4.39903  6.45821e+21
4.51634  6.22728e+21
4.63364  5.99679e+21
4.75095  5.76571e+21
4.86825  5.53349e+21
4.98556  5.30073e+21
5.10286  5.06924e+21
5.22017  4.84104e+21
5.33748  4.61989e+21
5.45478  4.40861e+21
5.57209  4.21108e+21
5.68939  4.03128e+21
5.8067  3.87295e+21
5.924  3.73969e+21
6.0413  3.6351e+21
6.15861  3.5616e+21
6.27591  3.52101e+21
6.39322  3.5136e+21
6.51052  3.53776e+21
6.62783  3.58976e+21
6.74514  3.66374e+21
6.86244  3.75197e+21
6.97975  3.84448e+21
7.09705  3.93084e+21
7.21436  4.00026e+21
7.33166  4.04252e+21
7.44897  4.05011e+21
7.56627  4.01696e+21
7.68358  3.94086e+21
7.80088  3.82315e+21
7.91819  3.66755e+21
8.03549  3.48104e+21
8.1528  3.2723e+21
8.2701  3.05065e+21
8.38741  2.82586e+21
8.50471  2.60654e+21
8.62202  2.40044e+21
8.73932  2.21264e+21
8.85662  2.04703e+21
8.97393  1.90527e+21
9.09123  1.78731e+21
9.20854  1.69146e+21
9.32584  1.61503e+21
9.44315  1.55437e+21
9.56045  1.50539e+21
9.67776  1.46343e+21
9.79506  1.42415e+21
9.91237  1.38383e+21
10.0297  1.33905e+21
10.147  1.28793e+21
10.2643  1.22996e+21
10.3816  1.16635e+21
10.4989  1.09957e+21
10.6162  1.03375e+21
10.7335  9.73656e+20
10.8508  9.24698e+20
10.9681  8.91641e+20
11.0854  8.78449e+20
11.2027  8.87098e+20
11.32  9.17856e+20
11.4373  9.68466e+20
11.5546  1.03474e+21
11.6719  1.11084e+21
11.7893  1.1896e+21
11.9066  1.26365e+21
12.0239  1.32643e+21
12.1412  1.37184e+21
12.2585  1.39583e+21
12.3758  1.39623e+21
12.4931  1.37306e+21
12.6104  1.32783e+21
12.7277  1.26357e+21
12.845  1.18425e+21
12.9623  1.09443e+21
13.0796  9.98123e+20
13.1969  8.99461e+20
13.3142  8.01533e+20
13.4315  7.07073e+20
13.5488  6.17961e+20
13.6661  5.35748e+20
13.7834  4.61622e+20
13.9007  3.96402e+20
14.018  3.40806e+20
14.1354  2.95244e+20
14.2527  2.59684e+20
14.37  2.33627e+20
14.4873  2.16112e+20
14.6046  2.0549e+20
14.7219  1.99733e+20
14.8392  1.96464e+20
14.9565  1.93476e+20
15.0738  1.88721e+20
15.1911  1.8089e+20
15.3084  1.6938e+20
15.4257  1.54566e+20
15.543  1.37499e+20
15.6603  1.19952e+20
15.7776  1.03972e+20
15.8949  9.1576e+19
16.0122  8.43044e+19
16.1295  8.31587e+19
16.2468  8.81442e+19
16.3641  9.8494e+19
16.4815  1.12691e+20
16.5988  1.28753e+20
16.7161  1.445e+20
16.8334  1.58018e+20
16.9507  1.67848e+20
17.068  1.73223e+20
17.1853  1.74043e+20
17.3026  1.70976e+20
17.4199  1.65164e+20
17.5372  1.57959e+20
17.6545  1.50532e+20
17.7718  1.43983e+20
17.8891  1.38853e+20
18.0064  1.35112e+20
18.1237  1.32335e+20
18.241  1.29885e+20
18.3583  1.26929e+20
18.4756  1.22728e+20
18.5929  1.16917e+20
18.7102  1.09568e+20
18.8275  1.01031e+20
18.9449  9.23107e+19
19.0622  8.44781e+19
19.1795  7.88563e+19
19.2968  7.67159e+19
19.4141  7.8966e+19
19.5314  8.6237e+19
19.6487  9.86198e+19
19.766  1.15545e+20
19.8833  1.36015e+20
20.0006  1.58413e+20
20.1179  1.80919e+20
20.2352  2.01518e+20
20.3525  2.18314e+20
20.4698  2.29749e+20
20.5871  2.34663e+20
20.7044  2.32562e+20
20.8217  2.23656e+20
20.939  2.08706e+20
21.0563  1.89086e+20
21.1736  1.66313e+20
21.291  1.42139e+20
21.4083  1.18207e+20
21.5256  9.60016e+19
21.6429  7.66407e+19
21.7602  6.08886e+19
21.8775  4.9239e+19
21.9948  4.18826e+19
22.1121  3.87593e+19
22.2294  3.96965e+19
22.3467  4.4332e+19
22.464  5.21986e+19
22.5813  6.27134e+19
22.6986  7.51676e+19
22.8159  8.87439e+19
22.9332  1.02698e+20
23.0505  1.16259e+20
23.1678  1.28873e+20
23.2851  1.40277e+20
23.4024  1.50382e+20
23.5198  1.59623e+20
23.6371  1.68565e+20
23.7544  1.77962e+20
23.8717  1.88566e+20
23.989  2.00897e+20
24.1063  2.15223e+20
24.2236  2.31146e+20
24.3409  2.47912e+20
24.4582  2.6437e+20
24.5755  2.78784e+20
24.6928  2.89628e+20
24.8101  2.95314e+20
24.9274  2.94697e+20
25.0447  2.8705e+20
25.162  2.72406e+20
25.2793  2.51464e+20
25.3966  2.25415e+20
25.5139  1.95992e+20
25.6312  1.65069e+20
25.7485  1.34506e+20
25.8658  1.06098e+20
25.9832  8.1242e+19
26.1005  6.08848e+19
26.2178  4.5599e+19
26.3351  3.55475e+19
26.4524  3.05286e+19
26.5697  3.01175e+19
26.687  3.37244e+19
26.8043  4.0686e+19
26.9216  5.03142e+19
27.0389  6.18751e+19
27.1562  7.47091e+19
27.2735  8.81584e+19
27.3908  1.01567e+20
27.5081  1.14415e+20
27.6254  1.26158e+20
27.7427  1.36436e+20
27.86  1.44883e+20
27.9773  1.5143e+20
28.0946  1.55928e+20
28.212  1.58341e+20
28.3293  1.58713e+20
28.4466  1.57088e+20
28.5639  1.53407e+20
28.6812  1.47687e+20
28.7985  1.39862e+20
28.9158  1.30006e+20
29.0331  1.18243e+20
29.1504  1.05033e+20
29.2677  9.10072e+19
29.385  7.70852e+19
29.5023  6.43341e+19
29.6196  5.39414e+19
29.7369  4.69871e+19
29.8542  4.42192e+19
29.9715  4.59434e+19
30.0888  5.176e+19
30.2061  6.08026e+19
30.3234  7.1468e+19
30.4407  8.18746e+19
30.558  9.00575e+19
30.6754  9.42615e+19
30.7927  9.34205e+19
30.91  8.71646e+19
31.0273  7.61252e+19
31.1446  6.18554e+19
31.2619  4.64472e+19
31.3792  3.24176e+19
31.4965  2.20454e+19
31.6138  1.71002e+19
31.7311  1.84378e+19
31.8484  2.58472e+19
31.9657  3.80517e+19
32.083  5.2979e+19
32.2003  6.80435e+19
32.3176  8.07656e+19
32.4349  8.9067e+19
32.5522  9.16917e+19
32.6695  8.84253e+19
32.7868  8.00223e+19
32.9042  6.79536e+19
33.0215  5.41335e+19
33.1388  4.04614e+19
33.2561  2.84481e+19
33.3734  1.90762e+19
33.4907  1.25794e+19
33.608  8.68098e+18
33.7253  6.76322e+18
33.8426  6.14472e+18
33.9599  6.41873e+18
34.0772  7.54507e+18
34.1945  9.91047e+18
34.3118  1.41743e+19
34.4291  2.10177e+19
34.5464  3.08527e+19
34.6637  4.35286e+19
34.781  5.82792e+19
34.8983  7.36267e+19
35.0156  8.77521e+19
35.1329  9.87366e+19
35.2503  1.05014e+20
35.3676  1.05812e+20
35.4849  1.01376e+20
35.6022  9.31676e+19
35.7195  8.35978e+19
35.8368  7.58146e+19
35.9541  7.30562e+19
36.0714  7.81448e+19
36.1887  9.28925e+19
36.306  1.17564e+20
36.4233  1.50757e+20
36.5406  1.89437e+20
36.6579  2.29217e+20
36.7752  2.65044e+20
36.8925  2.91809e+20
37.0098  3.05445e+20
37.1271  3.03396e+20
37.2444  2.85159e+20
37.3617  2.52623e+20
37.479  2.09582e+20
37.5964  1.61403e+20
37.7137  1.14211e+20
37.831  7.35796e+19
37.9483  4.39406e+19
38.0656  2.77385e+19
38.1829  2.51503e+19
38.3002  3.42048e+19
38.4175  5.12225e+19
38.5348  7.17633e+19
38.6521  9.14009e+19
38.7694  1.0665e+20
38.8867  1.15598e+20
39.004  1.18027e+20
39.1213  1.15254e+20
39.2386  1.09595e+20
39.3559  1.03702e+20
39.4732  9.97969e+19
39.5905  9.91595e+19
39.7078  1.01826e+20
39.8251  1.06749e+20
39.9425  1.12103e+20
40.0598  1.15962e+20
40.1771  1.16779e+20
40.2944  1.13859e+20
40.4117  1.07534e+20
40.529  9.91277e+19
40.6463  9.04484e+19
40.7636  8.34062e+19
40.8809  7.93559e+19
40.9982  7.88303e+19
41.1155  8.1277e+19
41.2328  8.51921e+19
41.3501  8.85348e+19
41.4674  8.9251e+19
41.5847  8.58476e+19
41.702  7.77971e+19
41.8193  6.58554e+19
41.9366  5.18422e+19
42.0539  3.84757e+19
42.1712  2.86991e+19
42.2885  2.51076e+19
42.4059  2.93802e+19
42.5232  4.18726e+19
42.6405  6.1471e+19
42.7578  8.57806e+19
42.8751  1.11537e+20
42.9924  1.35134e+20
43.1097  1.5328e+20
43.227  1.63662e+20
43.3443  1.65012e+20
43.4616  1.57613e+20
43.5789  1.42906e+20
43.6962  1.23331e+20
43.8135  1.01718e+20
43.9308  8.09655e+19
44.0481  6.33537e+19
44.1654  5.04445e+19
44.2827  4.29189e+19
44.4  4.04874e+19
44.5173  4.2202e+19
44.6347  4.6679e+19
44.752  5.2375e+19
44.8693  5.7895e+19
44.9866  6.21387e+19
45.1039  6.4389e+19
45.2212  6.44335e+19
45.3385  6.23234e+19
45.4558  5.8457e+19
45.5731  5.33814e+19
45.6904  4.77156e+19
45.8077  4.19888e+19
45.925  3.67642e+19
46.0423  3.2401e+19
46.1596  2.91899e+19
46.2769  2.72261e+19
46.3942  2.65469e+19
46.5115  2.70357e+19
46.6288  2.84845e+19
46.7461  3.0578e+19
46.8634  3.29294e+19
46.9808  3.51072e+19
47.0981  3.67092e+19
47.2154  3.73135e+19
47.3327  3.67045e+19
47.45  3.47829e+19
47.5673  3.17721e+19
47.6846  2.82168e+19
47.8019  2.49894e+19
47.9192  2.31998e+19
48.0365  2.41188e+19
48.1538  2.89258e+19
48.2711  3.84774e+19
48.3884  5.31036e+19
48.5057  7.23564e+19
48.623  9.50449e+19
48.7403  1.19187e+20
48.8576  1.42351e+20
48.9749  1.61953e+20
49.0922  1.75641e+20
49.2095  1.81652e+20
49.3269  1.79384e+20
49.4442  1.69117e+20
49.5615  1.52262e+20
49.6788  1.30901e+20
49.7961  1.07594e+20
49.9134  8.48461e+19
50.0307  6.47602e+19
50.148  4.87185e+19
50.2653  3.72523e+19
50.3826  3.02015e+19
50.4999  2.68098e+19
50.6172  2.60266e+19
50.7345  2.68057e+19
