#S 1 spectral density
#N 2
#UFWHM 11.4959
#L  abscissas [um]  spectral density
-58.5938  2.11157e+18
-58.4764  2.82094e+18
-58.3591  4.06335e+18
-58.2418  5.77835e+18
-58.1245  7.75544e+18
-58.0072  9.68458e+18
-57.8899  1.12076e+19
-57.7726  1.2028e+19
-57.6553  1.20103e+19
-57.538  1.11742e+19
-57.4207  9.7152e+18
-57.3034  7.95154e+18
-57.1861  6.21843e+18
-57.0688  4.7886e+18
-56.9515  3.80226e+18
-56.8342  3.26369e+18
-56.7169  3.05428e+18
-56.5996  2.99541e+18
-56.4823  2.92591e+18
-56.365  2.75266e+18
-56.2477  2.46843e+18
-56.1303  2.16991e+18
-56.013  1.98738e+18
-55.8957  2.04039e+18
-55.7784  2.393e+18
-55.6611  3.02836e+18
-55.5438  3.85492e+18
-55.4265  4.74029e+18
-55.3092  5.57438e+18
-55.1919  6.30122e+18
-55.0746  6.93266e+18
-54.9573  7.57952e+18
-54.84  8.3465e+18
-54.7227  9.36929e+18
-54.6054  1.0668e+19
-54.4881  1.22059e+19
-54.3708  1.38574e+19
-54.2535  1.5377e+19
-54.1362  1.65273e+19
-54.0189  1.71207e+19
-53.9016  1.70332e+19
-53.7842  1.62377e+19
-53.6669  1.48789e+19
-53.5496  1.31161e+19
-53.4323  1.12106e+19
-53.315  9.40157e+18
-53.1977  7.92065e+18
-53.0804  6.93259e+18
-52.9631  6.5134e+18
-52.8458  6.67509e+18
-52.7285  7.35294e+18
-52.6112  8.41004e+18
-52.4939  9.66629e+18
-52.3766  1.09126e+19
-52.2593  1.19609e+19
-52.142  1.26192e+19
-52.0247  1.27607e+19
-51.9074  1.23381e+19
-51.7901  1.13692e+19
-51.6728  9.97817e+18
-51.5555  8.3435e+18
-51.4381  6.65039e+18
-51.3208  5.11595e+18
-51.2035  3.89703e+18
-51.0862  3.12432e+18
-50.9689  2.83807e+18
-50.8516  3.03647e+18
-50.7343  3.69089e+18
-50.617  4.73348e+18
-50.4997  6.09145e+18
-50.3824  7.69241e+18
-50.2651  9.43654e+18
-50.1478  1.12359e+19
-50.0305  1.29615e+19
-49.9132  1.44858e+19
-49.7959  1.56706e+19
-49.6786  1.63643e+19
-49.5613  1.65127e+19
-49.444  1.60994e+19
-49.3267  1.51375e+19
-49.2094  1.37298e+19
-49.092  1.20531e+19
-48.9747  1.02545e+19
-48.8574  8.56107e+18
-48.7401  7.12345e+18
-48.6228  6.1105e+18
-48.5055  5.61688e+18
-48.3882  5.6921e+18
-48.2709  6.32658e+18
-48.1536  7.45303e+18
-48.0363  8.92795e+18
-47.919  1.0578e+19
-47.8017  1.22028e+19
-47.6844  1.3626e+19
-47.5671  1.46959e+19
-47.4498  1.53599e+19
-47.3325  1.56648e+19
-47.2152  1.57257e+19
-47.0979  1.5729e+19
-46.9806  1.584e+19
-46.8633  1.61576e+19
-46.7459  1.6719e+19
-46.6286  1.73987e+19
-46.5113  1.80085e+19
-46.394  1.82548e+19
-46.2767  1.79463e+19
-46.1594  1.69497e+19
-46.0421  1.52493e+19
-45.9248  1.3007e+19
-45.8075  1.05004e+19
-45.6902  8.01474e+18
-45.5729  5.84637e+18
-45.4556  4.1414e+18
-45.3383  2.97064e+18
-45.221  2.27011e+18
-45.1037  1.95836e+18
-44.9864  1.98813e+18
-44.8691  2.39998e+18
-44.7518  3.38618e+18
-44.6345  5.24984e+18
-44.5172  8.32643e+18
-44.3998  1.28685e+19
-44.2825  1.89473e+19
-44.1652  2.63168e+19
-44.0479  3.451e+19
-43.9306  4.27023e+19
-43.8133  5.00088e+19
-43.696  5.55977e+19
-43.5787  5.87651e+19
-43.4614  5.91269e+19
-43.3441  5.67296e+19
-43.2268  5.19478e+19
-43.1095  4.54588e+19
-42.9922  3.80676e+19
-42.8749  3.06493e+19
-42.7576  2.39376e+19
-42.6403  1.84875e+19
-42.523  1.46402e+19
-42.4057  1.24878e+19
-42.2884  1.19709e+19
-42.171  1.28929e+19
-42.0537  1.49639e+19
-41.9364  1.78945e+19
-41.8191  2.1333e+19
-41.7018  2.50507e+19
-41.5845  2.87391e+19
-41.4672  3.22094e+19
-41.3499  3.5329e+19
-41.2326  3.80219e+19
-41.1153  4.02484e+19
-40.998  4.2031e+19
-40.8807  4.3358e+19
-40.7634  4.42857e+19
-40.6461  4.4754e+19
-40.5288  4.47305e+19
-40.4115  4.41117e+19
-40.2942  4.28154e+19
-40.1769  4.08576e+19
-40.0596  3.83067e+19
-39.9423  3.53116e+19
-39.825  3.20715e+19
-39.7076  2.88438e+19
-39.5903  2.58709e+19
-39.473  2.3337e+19
-39.3557  2.13253e+19
-39.2384  1.99079e+19
-39.1211  1.91149e+19
-39.0038  1.89698e+19
-38.8865  1.96221e+19
-38.7692  2.12868e+19
-38.6519  2.4256e+19
-38.5346  2.8812e+19
-38.4173  3.51383e+19
-38.3  4.32479e+19
-38.1827  5.28252e+19
-38.0654  6.32608e+19
-37.9481  7.37018e+19
-37.8308  8.3102e+19
-37.7135  9.04849e+19
-37.5962  9.50236e+19
-37.4789  9.62582e+19
-37.3615  9.41024e+19
-37.2442  8.89306e+19
-37.1269  8.15769e+19
-37.0096  7.29427e+19
-36.8923  6.41604e+19
-36.775  5.6167e+19
-36.6577  4.96697e+19
-36.5404  4.51662e+19
-36.4231  4.27753e+19
-36.3058  4.24416e+19
-36.1885  4.3897e+19
-36.0712  4.67927e+19
-35.9539  5.07482e+19
-35.8366  5.53873e+19
-35.7193  6.04269e+19
-35.602  6.55478e+19
-35.4847  7.04779e+19
-35.3674  7.49309e+19
-35.2501  7.86731e+19
-35.1328  8.15695e+19
-35.0154  8.35375e+19
-34.8981  8.46785e+19
-34.7808  8.51521e+19
-34.6635  8.52416e+19
-34.5462  8.53325e+19
-34.4289  8.57169e+19
-34.3116  8.67367e+19
-34.1943  8.84964e+19
-34.077  9.1062e+19
-33.9597  9.43624e+19
-33.8424  9.819e+19
-33.7251  1.02319e+20
-33.6078  1.06518e+20
-33.4905  1.10606e+20
-33.3732  1.14495e+20
-33.2559  1.18135e+20
-33.1386  1.21611e+20
-33.0213  1.25012e+20
-32.904  1.28426e+20
-32.7867  1.32006e+20
-32.6693  1.35856e+20
-32.552  1.40058e+20
-32.4347  1.44575e+20
-32.3174  1.49311e+20
-32.2001  1.54118e+20
-32.0828  1.5877e+20
-31.9655  1.62991e+20
-31.8482  1.6642e+20
-31.7309  1.688e+20
-31.6136  1.69875e+20
-31.4963  1.69505e+20
-31.379  1.67716e+20
-31.2617  1.64634e+20
-31.1444  1.60568e+20
-31.0271  1.55893e+20
-30.9098  1.51153e+20
-30.7925  1.46751e+20
-30.6752  1.43177e+20
-30.5579  1.40838e+20
-30.4406  1.39991e+20
-30.3232  1.40901e+20
-30.2059  1.43467e+20
-30.0886  1.47753e+20
-29.9713  1.53597e+20
-29.854  1.60699e+20
-29.7367  1.68736e+20
-29.6194  1.77329e+20
-29.5021  1.86093e+20
-29.3848  1.94604e+20
-29.2675  2.02441e+20
-29.1502  2.09396e+20
-29.0329  2.1527e+20
-28.9156  2.19948e+20
-28.7983  2.23443e+20
-28.681  2.25956e+20
-28.5637  2.27658e+20
-28.4464  2.28862e+20
-28.3291  2.29931e+20
-28.2118  2.31298e+20
-28.0944  2.33335e+20
-27.9771  2.36479e+20
-27.8598  2.41101e+20
-27.7425  2.47416e+20
-27.6252  2.557e+20
-27.5079  2.65878e+20
-27.3906  2.77858e+20
-27.2733  2.91328e+20
-27.156  3.05761e+20
-27.0387  3.20775e+20
-26.9214  3.3562e+20
-26.8041  3.498e+20
-26.6868  3.62721e+20
-26.5695  3.74079e+20
-26.4522  3.83525e+20
-26.3349  3.9083e+20
-26.2176  3.9592e+20
-26.1003  3.9879e+20
-25.983  3.99627e+20
-25.8657  3.98702e+20
-25.7483  3.96293e+20
-25.631  3.9277e+20
-25.5137  3.88627e+20
-25.3964  3.84408e+20
-25.2791  3.80544e+20
-25.1618  3.77394e+20
-25.0445  3.75351e+20
-24.9272  3.74458e+20
-24.8099  3.74867e+20
-24.6926  3.76499e+20
-24.5753  3.79128e+20
-24.458  3.82749e+20
-24.3407  3.87204e+20
-24.2234  3.92415e+20
-24.1061  3.98522e+20
-23.9888  4.05565e+20
-23.8715  4.1383e+20
-23.7542  4.23432e+20
-23.6369  4.34697e+20
-23.5196  4.47868e+20
-23.4023  4.62895e+20
-23.2849  4.79875e+20
-23.1676  4.98556e+20
-23.0503  5.18577e+20
-22.933  5.39416e+20
-22.8157  5.60168e+20
-22.6984  5.79945e+20
-22.5811  5.97807e+20
-22.4638  6.12702e+20
-22.3465  6.23966e+20
-22.2292  6.31058e+20
-22.1119  6.33962e+20
-21.9946  6.32906e+20
-21.8773  6.2871e+20
-21.76  6.2251e+20
-21.6427  6.15661e+20
-21.5254  6.09552e+20
-21.4081  6.0582e+20
-21.2908  6.05753e+20
-21.1735  6.10488e+20
-21.0561  6.20922e+20
-20.9388  6.37422e+20
-20.8215  6.60359e+20
-20.7042  6.892e+20
-20.5869  7.23433e+20
-20.4696  7.61877e+20
-20.3523  8.03211e+20
-20.235  8.45668e+20
-20.1177  8.87518e+20
-20.0004  9.26898e+20
-19.8831  9.62211e+20
-19.7658  9.92005e+20
-19.6485  1.01564e+21
-19.5312  1.03267e+21
-19.4139  1.04361e+21
-19.2966  1.04925e+21
-19.1793  1.05092e+21
-19.062  1.0503e+21
-18.9447  1.04925e+21
-18.8274  1.04961e+21
-18.71  1.05311e+21
-18.5927  1.06117e+21
-18.4754  1.07483e+21
-18.3581  1.09484e+21
-18.2408  1.12122e+21
-18.1235  1.15348e+21
-18.0062  1.19067e+21
-17.8889  1.23146e+21
-17.7716  1.27409e+21
-17.6543  1.31649e+21
-17.537  1.357e+21
-17.4197  1.39368e+21
-17.3024  1.42517e+21
-17.1851  1.45046e+21
-17.0678  1.46903e+21
-16.9505  1.48116e+21
-16.8332  1.48744e+21
-16.7159  1.48893e+21
-16.5986  1.48688e+21
-16.4813  1.48278e+21
-16.364  1.47801e+21
-16.2466  1.47397e+21
-16.1293  1.4721e+21
-16.012  1.47287e+21
-15.8947  1.47717e+21
-15.7774  1.48526e+21
-15.6601  1.49712e+21
-15.5428  1.51252e+21
-15.4255  1.53102e+21
-15.3082  1.55178e+21
-15.1909  1.57457e+21
-15.0736  1.5983e+21
-14.9563  1.62276e+21
-14.839  1.64754e+21
-14.7217  1.67276e+21
-14.6044  1.6984e+21
-14.4871  1.72492e+21
-14.3698  1.75291e+21
-14.2525  1.78269e+21
-14.1352  1.81468e+21
-14.0178  1.84947e+21
-13.9005  1.88672e+21
-13.7832  1.92631e+21
-13.6659  1.9678e+21
-13.5486  2.01025e+21
-13.4313  2.05271e+21
-13.314  2.09415e+21
-13.1967  2.13353e+21
-13.0794  2.17011e+21
-12.9621  2.20276e+21
-12.8448  2.23152e+21
-12.7275  2.25591e+21
-12.6102  2.27634e+21
-12.4929  2.29331e+21
-12.3756  2.30756e+21
-12.2583  2.32035e+21
-12.141  2.33307e+21
-12.0237  2.34685e+21
-11.9064  2.36309e+21
-11.7891  2.38306e+21
-11.6718  2.40768e+21
-11.5544  2.43792e+21
-11.4371  2.47453e+21
-11.3198  2.51741e+21
-11.2025  2.56688e+21
-11.0852  2.6227e+21
-10.9679  2.68439e+21
-10.8506  2.75147e+21
-10.7333  2.82312e+21
-10.616  2.89842e+21
-10.4987  2.97695e+21
-10.3814  3.05743e+21
-10.2641  3.13927e+21
-10.1468  3.22188e+21
-10.0295  3.30462e+21
-9.91217  3.38693e+21
-9.79487  3.46873e+21
-9.67756  3.54972e+21
-9.56026  3.62972e+21
-9.44295  3.70863e+21
-9.32565  3.78682e+21
-9.20834  3.86401e+21
-9.09104  3.94037e+21
-8.97373  4.01614e+21
-8.85643  4.09165e+21
-8.73913  4.16709e+21
-8.62182  4.24307e+21
-8.50452  4.32029e+21
-8.38721  4.39979e+21
-8.26991  4.48223e+21
-8.1526  4.56914e+21
-8.03529  4.66128e+21
-7.91799  4.76026e+21
-7.80069  4.86723e+21
-7.68338  4.98325e+21
-7.56608  5.10982e+21
-7.44877  5.24792e+21
-7.33146  5.39827e+21
-7.21416  5.56125e+21
-7.09685  5.73715e+21
-6.97955  5.92539e+21
-6.86224  6.12544e+21
-6.74494  6.33602e+21
-6.62763  6.55504e+21
-6.51033  6.78061e+21
-6.39302  7.01014e+21
-6.27572  7.24116e+21
-6.15842  7.47104e+21
-6.04111  7.69703e+21
-5.92381  7.91712e+21
-5.8065  8.12964e+21
-5.68919  8.33296e+21
-5.57189  8.52668e+21
-5.45458  8.71068e+21
-5.33728  8.88561e+21
-5.21997  9.05267e+21
-5.10267  9.21387e+21
-4.98536  9.37134e+21
-4.86806  9.52758e+21
-4.75075  9.68504e+21
-4.63345  9.84672e+21
-4.51614  1.00148e+22
-4.39884  1.01913e+22
-4.28154  1.0378e+22
-4.16423  1.05762e+22
-4.04692  1.07867e+22
-3.92962  1.10095e+22
-3.81231  1.12445e+22
-3.69501  1.14913e+22
-3.5777  1.17485e+22
-3.4604  1.2015e+22
-3.34309  1.22888e+22
-3.22579  1.25682e+22
-3.10849  1.2851e+22
-2.99118  1.31348e+22
-2.87387  1.34175e+22
-2.75657  1.36968e+22
-2.63926  1.39701e+22
-2.52196  1.42351e+22
-2.40465  1.44897e+22
-2.28735  1.47314e+22
-2.17005  1.49587e+22
-2.05274  1.51694e+22
-1.93544  1.53622e+22
-1.81813  1.55357e+22
-1.70083  1.56896e+22
-1.58352  1.58234e+22
-1.46622  1.59375e+22
-1.34891  1.60321e+22
-1.2316  1.61087e+22
-1.1143  1.61687e+22
-0.996995  1.62139e+22
-0.87969  1.62461e+22
-0.762385  1.62678e+22
-0.64508  1.6281e+22
-0.527775  1.6288e+22
-0.41047  1.62909e+22
-0.293165  1.62916e+22
-0.17586  1.62916e+22
-0.058555  1.6292e+22
0.05875  1.62932e+22
0.176055  1.62954e+22
0.29336  1.62977e+22
0.410665  1.62994e+22
0.52797  1.62985e+22
0.645275  1.62935e+22
0.76258  1.6282e+22
0.879885  1.6262e+22
0.99719  1.62311e+22
1.1145  1.61873e+22
1.2318  1.61283e+22
1.3491  1.60526e+22
1.46641  1.59586e+22
1.58371  1.58453e+22
1.70102  1.57124e+22
1.81832  1.55592e+22
1.93563  1.53863e+22
2.05294  1.51943e+22
2.17024  1.49843e+22
2.28754  1.47578e+22
2.40485  1.45167e+22
2.52216  1.42631e+22
2.63946  1.39986e+22
2.75677  1.37261e+22
2.87407  1.34476e+22
2.99137  1.31656e+22
3.10868  1.28822e+22
3.22599  1.26e+22
3.34329  1.23212e+22
3.4606  1.20479e+22
3.5779  1.17817e+22
3.69521  1.1525e+22
3.81251  1.12787e+22
3.92982  1.10442e+22
4.04712  1.08217e+22
4.16443  1.06118e+22
4.28173  1.04142e+22
4.39903  1.02279e+22
4.51634  1.00519e+22
4.63364  9.88441e+21
4.75095  9.72316e+21
4.86825  9.5659e+21
4.98556  9.41007e+21
5.10286  9.25273e+21
5.22017  9.09149e+21
5.33748  8.92413e+21
5.45478  8.74886e+21
5.57209  8.56444e+21
5.68939  8.37e+21
5.8067  8.16591e+21
5.924  7.95251e+21
6.0413  7.73144e+21
6.15861  7.50438e+21
6.27591  7.27349e+21
6.39322  7.04169e+21
6.51052  6.81128e+21
6.62783  6.58494e+21
6.74514  6.36513e+21
6.86244  6.1541e+21
6.97975  5.95351e+21
7.09705  5.76482e+21
7.21436  5.58873e+21
7.33166  5.42528e+21
7.44897  5.27474e+21
7.56627  5.13646e+21
7.68358  5.00956e+21
7.80088  4.89296e+21
7.91819  4.78544e+21
8.03549  4.68603e+21
8.1528  4.59326e+21
8.2701  4.50555e+21
8.38741  4.42218e+21
8.50471  4.34185e+21
8.62202  4.26361e+21
8.73932  4.18652e+21
8.85662  4.1101e+21
8.97393  4.03379e+21
9.09123  3.957e+21
9.20854  3.87979e+21
9.32584  3.80201e+21
9.44315  3.72315e+21
9.56045  3.64348e+21
9.67776  3.563e+21
9.79506  3.4815e+21
9.91237  3.39925e+21
10.0297  3.3165e+21
10.147  3.2334e+21
10.2643  3.15053e+21
10.3816  3.06816e+21
10.4989  2.98731e+21
10.6162  2.90841e+21
10.7335  2.83262e+21
10.8508  2.7605e+21
10.9681  2.69298e+21
11.0854  2.63098e+21
11.2027  2.5748e+21
11.32  2.52488e+21
11.4373  2.48157e+21
11.5546  2.44478e+21
11.6719  2.41417e+21
11.7893  2.38933e+21
11.9066  2.36923e+21
12.0239  2.35266e+21
12.1412  2.33872e+21
12.2585  2.32593e+21
12.3758  2.31282e+21
12.4931  2.29828e+21
12.6104  2.28102e+21
12.7277  2.26038e+21
12.845  2.23584e+21
12.9623  2.20678e+21
13.0796  2.1737e+21
13.1969  2.13703e+21
13.3142  2.09732e+21
13.4315  2.05558e+21
13.5488  2.013e+21
13.6661  1.97041e+21
13.7834  1.92885e+21
13.9007  1.88911e+21
14.018  1.85195e+21
14.1354  1.81721e+21
14.2527  1.78512e+21
14.37  1.75537e+21
14.4873  1.72745e+21
14.6046  1.70098e+21
14.7219  1.67542e+21
14.8392  1.65036e+21
14.9565  1.6257e+21
15.0738  1.60125e+21
15.1911  1.57759e+21
15.3084  1.55495e+21
15.4257  1.53424e+21
15.543  1.51584e+21
15.6603  1.5005e+21
15.7776  1.48878e+21
15.8949  1.48081e+21
16.0122  1.47646e+21
16.1295  1.47564e+21
16.2468  1.47768e+21
16.3641  1.48161e+21
16.4815  1.48636e+21
16.5988  1.49037e+21
16.7161  1.49234e+21
16.8334  1.49074e+21
16.9507  1.48437e+21
17.068  1.47202e+21
17.1853  1.45325e+21
17.3026  1.4278e+21
17.4199  1.39629e+21
17.5372  1.3596e+21
17.6545  1.3191e+21
17.7718  1.27659e+21
17.8891  1.23407e+21
18.0064  1.19332e+21
18.1237  1.15625e+21
18.241  1.12417e+21
18.3583  1.09801e+21
18.4756  1.07817e+21
18.5929  1.06462e+21
18.7102  1.05677e+21
18.8275  1.05343e+21
18.9449  1.05315e+21
19.0622  1.05418e+21
19.1795  1.05484e+21
19.2968  1.05312e+21
19.4141  1.0474e+21
19.5314  1.03628e+21
19.6487  1.01899e+21
19.766  9.95187e+20
19.8833  9.65046e+20
20.0006  9.29573e+20
20.1179  8.90049e+20
20.2352  8.48099e+20
20.3525  8.05484e+20
20.4698  7.64088e+20
20.5871  7.25644e+20
20.7044  6.9145e+20
20.8217  6.62686e+20
20.939  6.40002e+20
21.0563  6.23588e+20
21.1736  6.13357e+20
21.291  6.08717e+20
21.4083  6.09041e+20
21.5256  6.12865e+20
21.6429  6.19022e+20
21.7602  6.25949e+20
21.8775  6.32144e+20
21.9948  6.36234e+20
22.1121  6.37152e+20
22.2294  6.34049e+20
22.3467  6.26831e+20
22.464  6.15301e+20
22.5813  6.00179e+20
22.6986  5.82113e+20
22.8159  5.62137e+20
22.9332  5.41223e+20
23.0505  5.20289e+20
23.1678  5.0015e+20
23.2851  4.8141e+20
23.4024  4.64355e+20
23.5198  4.49311e+20
23.6371  4.36173e+20
23.7544  4.24883e+20
23.8717  4.15311e+20
23.989  4.07052e+20
24.1063  4.00036e+20
24.2236  3.93948e+20
24.3409  3.8872e+20
24.4582  3.84351e+20
24.5755  3.80736e+20
24.6928  3.78111e+20
24.8101  3.76562e+20
24.9274  3.76234e+20
25.0447  3.77134e+20
25.162  3.79216e+20
25.2793  3.82313e+20
25.3966  3.86226e+20
25.5139  3.90469e+20
25.6312  3.94568e+20
25.7485  3.98019e+20
25.8658  4.00341e+20
25.9832  4.01241e+20
26.1005  4.00297e+20
26.2178  3.97257e+20
26.3351  3.92082e+20
26.4524  3.84712e+20
26.5697  3.7517e+20
26.687  3.63768e+20
26.8043  3.50729e+20
26.9216  3.36465e+20
27.0389  3.21579e+20
27.1562  3.0657e+20
27.2735  2.9209e+20
27.3908  2.78644e+20
27.5081  2.66675e+20
27.6254  2.56513e+20
27.7427  2.48261e+20
27.86  2.41951e+20
27.9773  2.37343e+20
28.0946  2.34153e+20
28.212  2.32072e+20
28.3293  2.30652e+20
28.4466  2.29513e+20
28.5639  2.28206e+20
28.6812  2.2642e+20
28.7985  2.23821e+20
28.9158  2.2021e+20
29.0331  2.15463e+20
29.1504  2.09536e+20
29.2677  2.02546e+20
29.385  1.9465e+20
29.5023  1.8614e+20
29.6196  1.77392e+20
29.7369  1.68807e+20
29.8542  1.60804e+20
29.9715  1.53728e+20
30.0888  1.47968e+20
30.2061  1.43697e+20
30.3234  1.4112e+20
30.4407  1.40309e+20
30.558  1.41146e+20
30.6754  1.43515e+20
30.7927  1.47043e+20
30.91  1.51424e+20
31.0273  1.56154e+20
31.1446  1.60741e+20
31.2619  1.64769e+20
31.3792  1.67785e+20
31.4965  1.69527e+20
31.6138  1.69869e+20
31.7311  1.68765e+20
31.8484  1.66401e+20
31.9657  1.62966e+20
32.083  1.58797e+20
32.2003  1.54196e+20
32.3176  1.49411e+20
32.4349  1.44738e+20
32.5522  1.40263e+20
32.6695  1.3611e+20
32.7868  1.32283e+20
32.9042  1.2872e+20
33.0215  1.25322e+20
33.1388  1.21924e+20
33.2561  1.18439e+20
33.3734  1.14774e+20
33.4907  1.10859e+20
33.608  1.06754e+20
33.7253  1.02518e+20
33.8426  9.8378e+19
33.9599  9.45485e+19
34.0772  9.12537e+19
34.1945  8.86712e+19
34.3118  8.68878e+19
34.4291  8.58806e+19
34.5464  8.54528e+19
34.6637  8.53612e+19
34.781  8.51955e+19
34.8983  8.46813e+19
35.0156  8.34866e+19
35.1329  8.14514e+19
35.2503  7.85104e+19
35.3676  7.46883e+19
35.4849  7.02192e+19
35.6022  6.53011e+19
35.7195  6.01608e+19
35.8368  5.51267e+19
35.9541  5.04945e+19
36.0714  4.65764e+19
36.1887  4.3719e+19
36.306  4.23305e+19
36.4233  4.27207e+19
36.5406  4.51728e+19
36.6579  4.97389e+19
36.7752  5.62681e+19
36.8925  6.43003e+19
37.0098  7.30872e+19
37.1271  8.16722e+19
37.2444  8.89985e+19
37.3617  9.40945e+19
37.479  9.61907e+19
37.5964  9.48755e+19
37.7137  9.02649e+19
37.831  8.28421e+19
37.9483  7.3396e+19
38.0656  6.29731e+19
38.1829  5.25557e+19
38.3002  4.30188e+19
38.4175  3.49745e+19
38.5348  2.86951e+19
38.6521  2.41893e+19
38.7694  2.12695e+19
38.8867  1.96353e+19
39.004  1.90167e+19
39.1213  1.91762e+19
39.2386  2.00034e+19
39.3559  2.14367e+19
39.4732  2.3463e+19
39.5905  2.60388e+19
39.7078  2.90396e+19
39.8251  3.22723e+19
39.9425  3.55272e+19
40.0598  3.85546e+19
40.1771  4.11107e+19
40.2944  4.30385e+19
40.4117  4.43092e+19
40.529  4.49073e+19
40.6463  4.48983e+19
40.7636  4.43891e+19
40.8809  4.34396e+19
40.9982  4.20424e+19
41.1155  4.02205e+19
41.2328  3.79445e+19
41.3501  3.52231e+19
41.4674  3.20638e+19
41.5847  2.8561e+19
41.702  2.48684e+19
41.8193  2.11667e+19
41.9366  1.77325e+19
42.0539  1.48315e+19
42.1712  1.27883e+19
42.2885  1.19242e+19
42.4059  1.24864e+19
42.5232  1.46891e+19
42.6405  1.85903e+19
42.7578  2.40787e+19
42.8751  3.08207e+19
42.9924  3.82672e+19
43.1097  4.56418e+19
43.227  5.2111e+19
43.3443  5.68451e+19
43.4616  5.9179e+19
43.5789  5.87494e+19
43.6962  5.55203e+19
43.8135  4.99041e+19
43.9308  4.25355e+19
44.0481  3.43191e+19
44.1654  2.61532e+19
44.2827  1.87839e+19
44.4  1.27434e+19
44.5173  8.24684e+18
44.6347  5.203e+18
44.752  3.35898e+18
44.8693  2.38856e+18
44.9866  1.98698e+18
45.1039  1.96921e+18
45.2212  2.28584e+18
45.3385  2.99911e+18
45.4558  4.19008e+18
45.5731  5.91053e+18
45.6904  8.11172e+18
45.8077  1.06045e+19
45.925  1.31187e+19
46.0423  1.53538e+19
46.1596  1.70455e+19
46.2769  1.80346e+19
46.3942  1.83139e+19
46.5115  1.80464e+19
46.6288  1.74282e+19
46.7461  1.6741e+19
46.8634  1.61834e+19
46.9808  1.584e+19
47.0981  1.57295e+19
47.2154  1.57101e+19
47.3327  1.564e+19
47.45  1.53042e+19
47.5673  1.4613e+19
47.6846  1.35302e+19
47.8019  1.2101e+19
47.9192  1.0471e+19
48.0365  8.82776e+18
48.1538  7.36803e+18
48.2711  6.26658e+18
48.3884  5.65676e+18
48.5057  5.598e+18
48.623  6.1216e+18
48.7403  7.16312e+18
48.8576  8.6102e+18
48.9749  1.03277e+19
49.0922  1.21339e+19
49.2095  1.38215e+19
49.3269  1.52205e+19
49.4442  1.61895e+19
49.5615  1.66019e+19
49.6788  1.64275e+19
49.7961  1.57064e+19
49.9134  1.45e+19
50.0307  1.29493e+19
50.148  1.12132e+19
50.2653  9.39873e+18
50.3826  7.63664e+18
50.4999  6.04441e+18
50.6172  4.69527e+18
50.7345  3.66328e+18
50.8518  3.01927e+18
50.9691  2.8337e+18
51.0864  3.13789e+18
