#S 1 spectral density
#N 2
#UFWHM 15.6016
#L  abscissas [um]  spectral density
-58.5938  1.0626e+19
-58.4764  7.56741e+18
-58.3591  5.07447e+18
-58.2418  3.39047e+18
-58.1245  2.57271e+18
-58.0072  2.49775e+18
-57.8899  2.92371e+18
-57.7726  3.58211e+18
-57.6553  4.26461e+18
-57.538  4.88316e+18
-57.4207  5.48812e+18
-57.3034  6.21616e+18
-57.1861  7.2397e+18
-57.0688  8.69774e+18
-56.9515  1.06487e+19
-56.8342  1.30354e+19
-56.7169  1.57327e+19
-56.5996  1.85727e+19
-56.4823  2.14217e+19
-56.365  2.42192e+19
-56.2477  2.69595e+19
-56.1303  2.96939e+19
-56.013  3.25042e+19
-55.8957  3.53695e+19
-55.7784  3.8231e+19
-55.6611  4.0881e+19
-55.5438  4.30184e+19
-55.4265  4.44242e+19
-55.3092  4.4807e+19
-55.1919  4.40744e+19
-55.0746  4.22626e+19
-54.9573  3.95548e+19
-54.84  3.62474e+19
-54.7227  3.27315e+19
-54.6054  2.93135e+19
-54.4881  2.62677e+19
-54.3708  2.37398e+19
-54.2535  2.17763e+19
-54.1362  2.03304e+19
-54.0189  1.93096e+19
-53.9016  1.85763e+19
-53.7842  1.8001e+19
-53.6669  1.74821e+19
-53.5496  1.6965e+19
-53.4323  1.63853e+19
-53.315  1.5713e+19
-53.1977  1.49004e+19
-53.0804  1.39308e+19
-52.9631  1.28368e+19
-52.8458  1.16604e+19
-52.7285  1.04998e+19
-52.6112  9.49047e+18
-52.4939  8.79993e+18
-52.3766  8.59182e+18
-52.2593  9.01113e+18
-52.142  1.01736e+19
-52.0247  1.2149e+19
-51.9074  1.4937e+19
-51.7901  1.84825e+19
-51.6728  2.26488e+19
-51.5555  2.72213e+19
-51.4381  3.19562e+19
-51.3208  3.65233e+19
-51.2035  4.05925e+19
-51.0862  4.37968e+19
-50.9689  4.58988e+19
-50.8516  4.67554e+19
-50.7343  4.62895e+19
-50.617  4.46764e+19
-50.4997  4.2218e+19
-50.3824  3.93188e+19
-50.2651  3.6505e+19
-50.1478  3.42261e+19
-50.0305  3.29261e+19
-49.9132  3.28602e+19
-49.7959  3.41642e+19
-49.6786  3.6817e+19
-49.5613  4.0549e+19
-49.444  4.50081e+19
-49.3267  4.97411e+19
-49.2094  5.43005e+19
-49.092  5.82062e+19
-48.9747  6.10987e+19
-48.8574  6.26391e+19
-48.7401  6.27371e+19
-48.6228  6.13431e+19
-48.5055  5.86443e+19
-48.3882  5.49514e+19
-48.2709  5.06116e+19
-48.1536  4.60131e+19
-48.0363  4.15699e+19
-47.919  3.75782e+19
-47.8017  3.4249e+19
-47.6844  3.16742e+19
-47.5671  2.988e+19
-47.4498  2.87918e+19
-47.3325  2.83264e+19
-47.2152  2.83864e+19
-47.0979  2.88813e+19
-46.9806  2.97745e+19
-46.8633  3.10145e+19
-46.7459  3.25653e+19
-46.6286  3.44406e+19
-46.5113  3.66265e+19
-46.394  3.92811e+19
-46.2767  4.25154e+19
-46.1594  4.65981e+19
-46.0421  5.18601e+19
-45.9248  5.86264e+19
-45.8075  6.70715e+19
-45.6902  7.72074e+19
-45.5729  8.86898e+19
-45.4556  1.00969e+20
-45.3383  1.13032e+20
-45.221  1.23834e+20
-45.1037  1.32187e+20
-44.9864  1.37032e+20
-44.8691  1.37829e+20
-44.7518  1.34418e+20
-44.6345  1.27103e+20
-44.5172  1.16682e+20
-44.3998  1.04311e+20
-44.2825  9.12141e+19
-44.1652  7.8672e+19
-44.0479  6.76358e+19
-43.9306  5.89264e+19
-43.8133  5.29439e+19
-43.696  4.97963e+19
-43.5787  4.94252e+19
-43.4614  5.16105e+19
-43.3441  5.59944e+19
-43.2268  6.21891e+19
-43.1095  6.97071e+19
-42.9922  7.80564e+19
-42.8749  8.65846e+19
-42.7576  9.46488e+19
-42.6403  1.01615e+20
-42.523  1.06883e+20
-42.4057  1.10071e+20
-42.2884  1.10942e+20
-42.171  1.09601e+20
-42.0537  1.06313e+20
-41.9364  1.01577e+20
-41.8191  9.61212e+19
-41.7018  9.05318e+19
-41.5845  8.55289e+19
-41.4672  8.1601e+19
-41.3499  7.90944e+19
-41.2326  7.81946e+19
-41.1153  7.88996e+19
-40.998  8.10678e+19
-40.8807  8.44497e+19
-40.7634  8.86921e+19
-40.6461  9.34829e+19
-40.5288  9.84762e+19
-40.4115  1.03544e+20
-40.2942  1.08616e+20
-40.1769  1.13775e+20
-40.0596  1.19227e+20
-39.9423  1.25303e+20
-39.825  1.32279e+20
-39.7076  1.4029e+20
-39.5903  1.49388e+20
-39.473  1.59201e+20
-39.3557  1.69196e+20
-39.2384  1.78546e+20
-39.1211  1.86302e+20
-39.0038  1.91623e+20
-38.8865  1.93755e+20
-38.7692  1.92348e+20
-38.6519  1.87415e+20
-38.5346  1.79348e+20
-38.4173  1.68848e+20
-38.3  1.56819e+20
-38.1827  1.44247e+20
-38.0654  1.32059e+20
-37.9481  1.21047e+20
-37.8308  1.11812e+20
-37.7135  1.04803e+20
-37.5962  1.00299e+20
-37.4789  9.85026e+19
-37.3615  9.96359e+19
-37.2442  1.03725e+20
-37.1269  1.10729e+20
-37.0096  1.20391e+20
-36.8923  1.32264e+20
-36.775  1.45622e+20
-36.6577  1.59575e+20
-36.5404  1.72983e+20
-36.4231  1.84809e+20
-36.3058  1.94077e+20
-36.1885  2.00121e+20
-36.0712  2.02632e+20
-35.9539  2.01688e+20
-35.8366  1.97755e+20
-35.7193  1.91546e+20
-35.602  1.84018e+20
-35.4847  1.76026e+20
-35.3674  1.68404e+20
-35.2501  1.61806e+20
-35.1328  1.56738e+20
-35.0154  1.53486e+20
-34.8981  1.5203e+20
-34.7808  1.52359e+20
-34.6635  1.54336e+20
-34.5462  1.57666e+20
-34.4289  1.62007e+20
-34.3116  1.67051e+20
-34.1943  1.72407e+20
-34.077  1.77627e+20
-33.9597  1.82357e+20
-33.8424  1.86325e+20
-33.7251  1.89361e+20
-33.6078  1.91321e+20
-33.4905  1.92274e+20
-33.3732  1.92414e+20
-33.2559  1.91878e+20
-33.1386  1.90976e+20
-33.0213  1.89905e+20
-32.904  1.88961e+20
-32.7867  1.88281e+20
-32.6693  1.87961e+20
-32.552  1.88173e+20
-32.4347  1.88829e+20
-32.3174  1.90087e+20
-32.2001  1.91869e+20
-32.0828  1.94201e+20
-31.9655  1.97151e+20
-31.8482  2.0067e+20
-31.7309  2.04934e+20
-31.6136  2.09922e+20
-31.4963  2.15811e+20
-31.379  2.2273e+20
-31.2617  2.30866e+20
-31.1444  2.4038e+20
-31.0271  2.51238e+20
-30.9098  2.63494e+20
-30.7925  2.7688e+20
-30.6752  2.91172e+20
-30.5579  3.05943e+20
-30.4406  3.20575e+20
-30.3232  3.34505e+20
-30.2059  3.47003e+20
-30.0886  3.57564e+20
-29.9713  3.65673e+20
-29.854  3.70886e+20
-29.7367  3.7306e+20
-29.6194  3.7205e+20
-29.5021  3.68115e+20
-29.3848  3.61589e+20
-29.2675  3.52873e+20
-29.1502  3.42775e+20
-29.0329  3.32105e+20
-28.9156  3.21712e+20
-28.7983  3.12534e+20
-28.681  3.05439e+20
-28.5637  3.01159e+20
-28.4464  3.00259e+20
-28.3291  3.03142e+20
-28.2118  3.10043e+20
-28.0944  3.2078e+20
-27.9771  3.351e+20
-27.8598  3.52433e+20
-27.7425  3.7204e+20
-27.6252  3.93144e+20
-27.5079  4.14615e+20
-27.3906  4.35504e+20
-27.2733  4.54727e+20
-27.156  4.71335e+20
-27.0387  4.84717e+20
-26.9214  4.94266e+20
-26.8041  4.99939e+20
-26.6868  5.01844e+20
-26.5695  5.00603e+20
-26.4522  4.97003e+20
-26.3349  4.92044e+20
-26.2176  4.86792e+20
-26.1003  4.82478e+20
-25.983  4.80199e+20
-25.8657  4.80921e+20
-25.7483  4.8537e+20
-25.631  4.93975e+20
-25.5137  5.07176e+20
-25.3964  5.2482e+20
-25.2791  5.46601e+20
-25.1618  5.71918e+20
-25.0445  6.00045e+20
-24.9272  6.29848e+20
-24.8099  6.60321e+20
-24.6926  6.90353e+20
-24.5753  7.18821e+20
-24.458  7.44964e+20
-24.3407  7.68119e+20
-24.2234  7.87942e+20
-24.1061  8.04536e+20
-23.9888  8.17951e+20
-23.8715  8.28823e+20
-23.7542  8.37542e+20
-23.6369  8.44916e+20
-23.5196  8.51638e+20
-23.4023  8.58198e+20
-23.2849  8.65122e+20
-23.1676  8.72655e+20
-23.0503  8.80998e+20
-22.933  8.90046e+20
-22.8157  8.99346e+20
-22.6984  9.08561e+20
-22.5811  9.17165e+20
-22.4638  9.24631e+20
-22.3465  9.30598e+20
-22.2292  9.3503e+20
-22.1119  9.38003e+20
-21.9946  9.39936e+20
-21.8773  9.41487e+20
-21.76  9.43396e+20
-21.6427  9.46578e+20
-21.5254  9.51591e+20
-21.4081  9.5911e+20
-21.2908  9.69238e+20
-21.1735  9.81877e+20
-21.0561  9.96692e+20
-20.9388  1.01292e+21
-20.8215  1.03e+21
-20.7042  1.04658e+21
-20.5869  1.06188e+21
-20.4696  1.07477e+21
-20.3523  1.08427e+21
-20.235  1.08957e+21
-20.1177  1.09004e+21
-20.0004  1.08518e+21
-19.8831  1.07519e+21
-19.7658  1.06008e+21
-19.6485  1.04072e+21
-19.5312  1.01816e+21
-19.4139  9.93838e+20
-19.2966  9.69165e+20
-19.1793  9.4585e+20
-19.062  9.25414e+20
-18.9447  9.09181e+20
-18.8274  8.98139e+20
-18.71  8.93241e+20
-18.5927  8.94692e+20
-18.4754  9.02604e+20
-18.3581  9.16809e+20
-18.2408  9.36661e+20
-18.1235  9.6137e+20
-18.0062  9.89857e+20
-17.8889  1.021e+21
-17.7716  1.05367e+21
-17.6543  1.08628e+21
-17.537  1.11794e+21
-17.4197  1.14739e+21
-17.3024  1.17388e+21
-17.1851  1.19672e+21
-17.0678  1.21551e+21
-16.9505  1.23035e+21
-16.8332  1.24135e+21
-16.7159  1.24882e+21
-16.5986  1.25312e+21
-16.4813  1.25469e+21
-16.364  1.25397e+21
-16.2466  1.25145e+21
-16.1293  1.24787e+21
-16.012  1.2433e+21
-15.8947  1.23853e+21
-15.7774  1.23405e+21
-15.6601  1.23037e+21
-15.5428  1.2281e+21
-15.4255  1.22779e+21
-15.3082  1.22983e+21
-15.1909  1.23502e+21
-15.0736  1.2435e+21
-14.9563  1.25593e+21
-14.839  1.27261e+21
-14.7217  1.29408e+21
-14.6044  1.32053e+21
-14.4871  1.35234e+21
-14.3698  1.38963e+21
-14.2525  1.43234e+21
-14.1352  1.48017e+21
-14.0178  1.53289e+21
-13.9005  1.58961e+21
-13.7832  1.6495e+21
-13.6659  1.71163e+21
-13.5486  1.77474e+21
-13.4313  1.83767e+21
-13.314  1.89936e+21
-13.1967  1.95898e+21
-13.0794  2.01588e+21
-12.9621  2.06946e+21
-12.8448  2.11996e+21
-12.7275  2.16738e+21
-12.6102  2.21243e+21
-12.4929  2.2559e+21
-12.3756  2.29865e+21
-12.2583  2.34216e+21
-12.141  2.3877e+21
-12.0237  2.43645e+21
-11.9064  2.48961e+21
-11.7891  2.5482e+21
-11.6718  2.61292e+21
-11.5544  2.68441e+21
-11.4371  2.76325e+21
-11.3198  2.84902e+21
-11.2025  2.94188e+21
-11.0852  3.04144e+21
-10.9679  3.1472e+21
-10.8506  3.25862e+21
-10.7333  3.37498e+21
-10.616  3.49552e+21
-10.4987  3.62002e+21
-10.3814  3.74734e+21
-10.2641  3.87726e+21
-10.1468  4.00897e+21
-10.0295  4.14229e+21
-9.91217  4.27652e+21
-9.79487  4.41134e+21
-9.67756  4.54623e+21
-9.56026  4.68062e+21
-9.44295  4.81382e+21
-9.32565  4.94548e+21
-9.20834  5.07455e+21
-9.09104  5.20053e+21
-8.97373  5.32287e+21
-8.85643  5.44104e+21
-8.73913  5.55496e+21
-8.62182  5.66464e+21
-8.50452  5.77067e+21
-8.38721  5.87419e+21
-8.26991  5.97608e+21
-8.1526  6.07824e+21
-8.03529  6.18224e+21
-7.91799  6.29024e+21
-7.80069  6.40429e+21
-7.68338  6.52615e+21
-7.56608  6.65794e+21
-7.44877  6.80125e+21
-7.33146  6.95709e+21
-7.21416  7.12606e+21
-7.09685  7.30819e+21
-6.97955  7.50261e+21
-6.86224  7.70831e+21
-6.74494  7.92325e+21
-6.62763  8.14464e+21
-6.51033  8.36957e+21
-6.39302  8.59462e+21
-6.27572  8.81624e+21
-6.15842  9.03106e+21
-6.04111  9.23528e+21
-5.92381  9.42613e+21
-5.8065  9.60143e+21
-5.68919  9.7588e+21
-5.57189  9.89737e+21
-5.45458  1.00165e+22
-5.33728  1.01167e+22
-5.21997  1.01988e+22
-5.10267  1.02648e+22
-4.98536  1.03171e+22
-4.86806  1.03583e+22
-4.75075  1.03915e+22
-4.63345  1.04206e+22
-4.51614  1.04482e+22
-4.39884  1.04779e+22
-4.28154  1.05126e+22
-4.16423  1.05551e+22
-4.04692  1.06077e+22
-3.92962  1.06717e+22
-3.81231  1.07486e+22
-3.69501  1.08391e+22
-3.5777  1.09428e+22
-3.4604  1.10593e+22
-3.34309  1.11869e+22
-3.22579  1.13239e+22
-3.10849  1.14679e+22
-2.99118  1.16158e+22
-2.87387  1.17647e+22
-2.75657  1.19112e+22
-2.63926  1.20521e+22
-2.52196  1.21839e+22
-2.40465  1.23037e+22
-2.28735  1.24089e+22
-2.17005  1.24975e+22
-2.05274  1.25675e+22
-1.93544  1.26183e+22
-1.81813  1.26495e+22
-1.70083  1.26616e+22
-1.58352  1.26558e+22
-1.46622  1.2634e+22
-1.34891  1.2598e+22
-1.2316  1.25507e+22
-1.1143  1.24949e+22
-0.996995  1.24337e+22
-0.87969  1.237e+22
-0.762385  1.23068e+22
-0.64508  1.22469e+22
-0.527775  1.21928e+22
-0.41047  1.21467e+22
-0.293165  1.21108e+22
-0.17586  1.20862e+22
-0.058555  1.2074e+22
0.05875  1.20748e+22
0.176055  1.20887e+22
0.29336  1.2115e+22
0.410665  1.21526e+22
0.52797  1.22e+22
0.645275  1.22553e+22
0.76258  1.23165e+22
0.879885  1.23806e+22
0.99719  1.2445e+22
1.1145  1.2507e+22
1.2318  1.25631e+22
1.3491  1.26107e+22
1.46641  1.2647e+22
1.58371  1.26693e+22
1.70102  1.26753e+22
1.81832  1.26634e+22
1.93563  1.26325e+22
2.05294  1.25819e+22
2.17024  1.2512e+22
2.28754  1.24239e+22
2.40485  1.23191e+22
2.52216  1.21997e+22
2.63946  1.20681e+22
2.75677  1.19279e+22
2.87407  1.17818e+22
2.99137  1.16335e+22
3.10868  1.1486e+22
3.22599  1.13427e+22
3.34329  1.12064e+22
3.4606  1.10794e+22
3.5779  1.09636e+22
3.69521  1.08608e+22
3.81251  1.07712e+22
3.92982  1.06952e+22
4.04712  1.06321e+22
4.16443  1.05807e+22
4.28173  1.05393e+22
4.39903  1.05055e+22
4.51634  1.04768e+22
4.63364  1.04502e+22
4.75095  1.04222e+22
4.86825  1.03894e+22
4.98556  1.03489e+22
5.10286  1.0297e+22
5.22017  1.02311e+22
5.33748  1.01488e+22
5.45478  1.00486e+22
5.57209  9.92925e+21
5.68939  9.79015e+21
5.8067  9.63238e+21
5.924  9.4566e+21
6.0413  9.26507e+21
6.15861  9.06026e+21
6.27591  8.84505e+21
6.39322  8.6233e+21
6.51052  8.39809e+21
6.62783  8.17315e+21
6.74514  7.95174e+21
6.86244  7.73702e+21
6.97975  7.53165e+21
7.09705  7.3376e+21
7.21436  7.15601e+21
7.33166  6.98738e+21
7.44897  6.83206e+21
7.56627  6.68922e+21
7.68358  6.55772e+21
7.80088  6.43596e+21
7.91819  6.322e+21
8.03549  6.21409e+21
8.1528  6.11004e+21
8.2701  6.00756e+21
8.38741  5.9053e+21
8.50471  5.80161e+21
8.62202  5.69493e+21
8.73932  5.58463e+21
8.85662  5.47035e+21
8.97393  5.35168e+21
9.09123  5.2288e+21
9.20854  5.10231e+21
9.32584  4.97297e+21
9.44315  4.84094e+21
9.56045  4.70728e+21
9.67776  4.57268e+21
9.79506  4.43745e+21
9.91237  4.30235e+21
10.0297  4.16779e+21
10.147  4.03427e+21
10.2643  3.90221e+21
10.3816  3.77192e+21
10.4989  3.64422e+21
10.6162  3.51935e+21
10.7335  3.3982e+21
10.8508  3.2813e+21
10.9681  3.16935e+21
11.0854  3.06314e+21
11.2027  2.96312e+21
11.32  2.86961e+21
11.4373  2.78327e+21
11.5546  2.7041e+21
11.6719  2.63208e+21
11.7893  2.56697e+21
11.9066  2.50804e+21
12.0239  2.45445e+21
12.1412  2.40535e+21
12.2585  2.35946e+21
12.3758  2.31545e+21
12.4931  2.27211e+21
12.6104  2.22811e+21
12.7277  2.18257e+21
12.845  2.13464e+21
12.9623  2.08347e+21
13.0796  2.02912e+21
13.1969  1.9716e+21
13.3142  1.91124e+21
13.4315  1.8488e+21
13.5488  1.78526e+21
13.6661  1.72159e+21
13.7834  1.65893e+21
13.9007  1.59849e+21
14.018  1.54142e+21
14.1354  1.48833e+21
14.2527  1.44008e+21
14.37  1.39709e+21
14.4873  1.35952e+21
14.6046  1.32749e+21
14.7219  1.30074e+21
14.8392  1.27907e+21
14.9565  1.26214e+21
15.0738  1.24936e+21
15.1911  1.24059e+21
15.3084  1.23512e+21
15.4257  1.23271e+21
15.543  1.23269e+21
15.6603  1.23462e+21
15.7776  1.23801e+21
15.8949  1.24222e+21
16.0122  1.24659e+21
16.1295  1.25078e+21
16.2468  1.25419e+21
16.3641  1.25631e+21
16.4815  1.25676e+21
16.5988  1.25488e+21
16.7161  1.25028e+21
16.8334  1.24257e+21
16.9507  1.23129e+21
17.068  1.2161e+21
17.1853  1.19699e+21
17.3026  1.17384e+21
17.4199  1.1472e+21
17.5372  1.11766e+21
17.6545  1.08586e+21
17.7718  1.05307e+21
17.8891  1.02047e+21
18.0064  9.89274e+20
18.1237  9.60851e+20
18.241  9.36325e+20
18.3583  9.16683e+20
18.4756  9.0268e+20
18.5929  8.94944e+20
18.7102  8.93785e+20
18.8275  8.9893e+20
18.9449  9.10083e+20
19.0622  9.26459e+20
19.1795  9.47028e+20
19.2968  9.70397e+20
19.4141  9.95057e+20
19.5314  1.01935e+21
19.6487  1.04183e+21
19.766  1.06101e+21
19.8833  1.07587e+21
20.0006  1.08578e+21
20.1179  1.09045e+21
20.2352  1.08988e+21
20.3525  1.08443e+21
20.4698  1.07484e+21
20.5871  1.06198e+21
20.7044  1.04663e+21
20.8217  1.03004e+21
20.939  1.0132e+21
21.0563  9.9702e+20
21.1736  9.82436e+20
21.291  9.69875e+20
21.4083  9.60015e+20
21.5256  9.52687e+20
21.6429  9.47829e+20
21.7602  9.44811e+20
21.8775  9.43033e+20
21.9948  9.41545e+20
22.1121  9.39705e+20
22.2294  9.36754e+20
22.3467  9.32467e+20
22.464  9.26435e+20
22.5813  9.19015e+20
22.6986  9.10446e+20
22.8159  9.01327e+20
22.9332  8.92083e+20
23.0505  8.83181e+20
23.1678  8.74957e+20
23.2851  8.67532e+20
23.4024  8.60723e+20
23.5198  8.54268e+20
23.6371  8.47652e+20
23.7544  8.4024e+20
23.8717  8.31545e+20
23.989  8.20614e+20
24.1063  8.07106e+20
24.2236  7.90415e+20
24.3409  7.70393e+20
24.4582  7.47106e+20
24.5755  7.20731e+20
24.6928  6.92084e+20
24.8101  6.61997e+20
24.9274  6.31487e+20
25.0447  6.016e+20
25.162  5.73451e+20
25.2793  5.48129e+20
25.3966  5.26433e+20
25.5139  5.08966e+20
25.6312  4.95992e+20
25.7485  4.87484e+20
25.8658  4.8321e+20
25.9832  4.82668e+20
26.1005  4.85143e+20
26.2178  4.895e+20
26.3351  4.94797e+20
26.4524  4.99835e+20
26.5697  5.03393e+20
26.687  5.04576e+20
26.8043  5.02497e+20
26.9216  4.96609e+20
27.0389  4.8687e+20
27.1562  4.73263e+20
27.2735  4.5642e+20
27.3908  4.36991e+20
27.5081  4.15951e+20
27.6254  3.94374e+20
27.7427  3.73213e+20
27.86  3.53598e+20
27.9773  3.36304e+20
28.0946  3.22044e+20
28.212  3.11427e+20
28.3293  3.04682e+20
28.4466  3.01947e+20
28.5639  3.03027e+20
28.6812  3.07462e+20
28.7985  3.14731e+20
28.9158  3.24001e+20
29.0331  3.34485e+20
29.1504  3.45232e+20
29.2677  3.55314e+20
29.385  3.6397e+20
29.5023  3.70473e+20
29.6196  3.74326e+20
29.7369  3.75152e+20
29.8542  3.72855e+20
29.9715  3.67412e+20
30.0888  3.59203e+20
30.2061  3.48477e+20
30.3234  3.35822e+20
30.4407  3.21825e+20
30.558  3.07074e+20
30.6754  2.92325e+20
30.7927  2.77985e+20
30.91  2.64515e+20
31.0273  2.5231e+20
31.1446  2.41459e+20
31.2619  2.31972e+20
31.3792  2.23838e+20
31.4965  2.16924e+20
31.6138  2.11012e+20
31.7311  2.06013e+20
31.8484  2.01735e+20
31.9657  1.98174e+20
32.083  1.95186e+20
32.2003  1.9278e+20
32.3176  1.90942e+20
32.4349  1.89645e+20
32.5522  1.88884e+20
32.6695  1.88629e+20
32.7868  1.88835e+20
32.9042  1.89477e+20
33.0215  1.90347e+20
33.1388  1.91348e+20
33.2561  1.92179e+20
33.3734  1.92672e+20
33.4907  1.92515e+20
33.608  1.91498e+20
33.7253  1.89482e+20
33.8426  1.86462e+20
33.9599  1.82502e+20
34.0772  1.77779e+20
34.1945  1.72584e+20
34.3118  1.67298e+20
34.4291  1.62319e+20
34.5464  1.58045e+20
34.6637  1.54805e+20
34.781  1.52918e+20
34.8983  1.52644e+20
35.0156  1.54165e+20
35.1329  1.5754e+20
35.2503  1.62649e+20
35.3676  1.69264e+20
35.4849  1.76864e+20
35.6022  1.8487e+20
35.7195  1.92347e+20
35.8368  1.98433e+20
35.9541  2.02284e+20
36.0714  2.03084e+20
36.1887  2.00426e+20
36.306  1.94281e+20
36.4233  1.84892e+20
36.5406  1.73012e+20
36.6579  1.59527e+20
36.7752  1.45607e+20
36.8925  1.32253e+20
37.0098  1.20401e+20
37.1271  1.10803e+20
37.2444  1.0386e+20
37.3617  9.98463e+19
37.479  9.87892e+19
37.5964  1.00619e+20
37.7137  1.05197e+20
37.831  1.12246e+20
37.9483  1.21523e+20
38.0656  1.32535e+20
38.1829  1.44695e+20
38.3002  1.57239e+20
38.4175  1.69198e+20
38.5348  1.79623e+20
38.6521  1.87596e+20
38.7694  1.92427e+20
38.8867  1.93729e+20
39.004  1.91462e+20
39.1213  1.8609e+20
39.2386  1.78235e+20
39.3559  1.68867e+20
39.4732  1.5888e+20
39.5905  1.4907e+20
39.7078  1.39997e+20
39.8251  1.31994e+20
39.9425  1.25071e+20
40.0598  1.18996e+20
40.1771  1.13571e+20
40.2944  1.08443e+20
40.4117  1.03391e+20
40.529  9.83321e+19
40.6463  9.33315e+19
40.7636  8.85947e+19
40.8809  8.43851e+19
40.9982  8.10694e+19
41.1155  7.89609e+19
41.2328  7.83274e+19
41.3501  7.92935e+19
41.4674  8.18565e+19
41.5847  8.58472e+19
41.702  9.08744e+19
41.8193  9.64535e+19
41.9366  1.01912e+20
42.0539  1.06599e+20
42.1712  1.09844e+20
42.2885  1.11088e+20
42.4059  1.10123e+20
42.5232  1.0685e+20
42.6405  1.01487e+20
42.7578  9.4455e+19
42.8751  8.63265e+19
42.9924  7.77724e+19
43.1097  6.94423e+19
43.227  6.1935e+19
43.3443  5.57896e+19
43.4616  5.14626e+19
43.5789  4.93518e+19
43.6962  4.98024e+19
43.8135  5.30047e+19
43.9308  5.90919e+19
44.0481  6.78842e+19
44.1654  7.89389e+19
44.2827  9.15456e+19
44.4  1.0464e+20
44.5173  1.16952e+20
44.6347  1.27286e+20
44.752  1.34538e+20
44.8693  1.37857e+20
44.9866  1.36923e+20
45.1039  1.3194e+20
45.2212  1.23535e+20
45.3385  1.12684e+20
45.4558  1.0059e+20
45.5731  8.83512e+19
45.6904  7.68683e+19
45.8077  6.67871e+19
45.925  5.83866e+19
46.0423  5.1679e+19
46.1596  4.64299e+19
46.2769  4.23635e+19
46.3942  3.91639e+19
46.5115  3.65332e+19
46.6288  3.4353e+19
46.7461  3.24948e+19
46.8634  3.09474e+19
46.9808  2.97523e+19
47.0981  2.88791e+19
47.2154  2.84153e+19
47.3327  2.83733e+19
47.45  2.88894e+19
47.5673  3.0017e+19
47.6846  3.18457e+19
47.8019  3.44445e+19
47.9192  3.78045e+19
48.0365  4.18176e+19
48.1538  4.62616e+19
48.2711  5.0837e+19
48.3884  5.514e+19
48.5057  5.8804e+19
48.623  6.14095e+19
48.7403  6.2707e+19
48.8576  6.25364e+19
48.9749  6.09051e+19
49.0922  5.79656e+19
49.2095  5.40334e+19
49.3269  4.9469e+19
49.4442  4.47313e+19
49.5615  4.02935e+19
49.6788  3.66192e+19
49.7961  3.40324e+19
49.9134  3.27869e+19
50.0307  3.29096e+19
50.148  3.42601e+19
50.2653  3.65725e+19
50.3826  3.94394e+19
50.4999  4.23332e+19
50.6172  4.47919e+19
50.7345  4.6384e+19
50.8518  4.68296e+19
50.9691  4.59487e+19
