#S 1 spectral density
#N 2
#UFWHM 9.73632
#L  abscissas [um]  spectral density
-58.5938  5.31516e+18
-58.4764  5.04801e+18
-58.3591  4.81081e+18
-58.2418  4.63219e+18
-58.1245  4.49732e+18
-58.0072  4.32654e+18
-57.8899  4.05066e+18
-57.7726  3.67574e+18
-57.6553  3.29701e+18
-57.538  3.12838e+18
-57.4207  3.43664e+18
-57.3034  4.46358e+18
-57.1861  6.34164e+18
-57.0688  9.01868e+18
-56.9515  1.22443e+19
-56.8342  1.55668e+19
-56.7169  1.84648e+19
-56.5996  2.04212e+19
-56.4823  2.10708e+19
-56.365  2.026e+19
-56.2477  1.81252e+19
-56.1303  1.49834e+19
-56.013  1.13444e+19
-55.8957  7.72288e+18
-55.7784  4.59545e+18
-55.6611  2.27577e+18
-55.5438  9.12751e+17
-55.4265  5.04682e+17
-55.3092  9.39862e+17
-55.1919  2.06154e+18
-55.0746  3.7213e+18
-54.9573  5.80847e+18
-54.84  8.24258e+18
-54.7227  1.09483e+19
-54.6054  1.38509e+19
-54.4881  1.68179e+19
-54.3708  1.96896e+19
-54.2535  2.2223e+19
-54.1362  2.4188e+19
-54.0189  2.53813e+19
-53.9016  2.56714e+19
-53.7842  2.49937e+19
-53.6669  2.34326e+19
-53.5496  2.1081e+19
-53.4323  1.81729e+19
-53.315  1.49405e+19
-53.1977  1.16553e+19
-53.0804  8.5883e+18
-52.9631  5.96644e+18
-52.8458  3.97335e+18
-52.7285  2.72704e+18
-52.6112  2.26029e+18
-52.4939  2.51325e+18
-52.3766  3.34595e+18
-52.2593  4.53481e+18
-52.142  5.8406e+18
-52.0247  7.02186e+18
-51.9074  7.9012e+18
-51.7901  8.38797e+18
-51.6728  8.4905e+18
-51.5555  8.33562e+18
-51.4381  8.10442e+18
-51.3208  7.99678e+18
-51.2035  8.21304e+18
-51.0862  8.86521e+18
-50.9689  1.00049e+19
-50.8516  1.15735e+19
-50.7343  1.34206e+19
-50.617  1.53668e+19
-50.4997  1.72088e+19
-50.3824  1.87325e+19
-50.2651  1.97972e+19
-50.1478  2.02476e+19
-50.0305  2.00834e+19
-49.9132  1.92675e+19
-49.7959  1.78965e+19
-49.6786  1.61102e+19
-49.5613  1.40759e+19
-49.444  1.19807e+19
-49.3267  1.00251e+19
-49.2094  8.35673e+18
-49.092  7.06869e+18
-48.9747  6.18016e+18
-48.8574  5.66126e+18
-48.7401  5.40641e+18
-48.6228  5.29884e+18
-48.5055  5.21565e+18
-48.3882  5.06316e+18
-48.2709  4.80141e+18
-48.1536  4.43081e+18
-48.0363  3.98669e+18
-47.919  3.52937e+18
-47.8017  3.12271e+18
-47.6844  2.83307e+18
-47.5671  2.7263e+18
-47.4498  2.8798e+18
-47.3325  3.36669e+18
-47.2152  4.27849e+18
-47.0979  5.67332e+18
-46.9806  7.58192e+18
-46.8633  9.95397e+18
-46.7459  1.26485e+19
-46.6286  1.54687e+19
-46.5113  1.81233e+19
-46.394  2.03884e+19
-46.2767  2.20318e+19
-46.1594  2.29613e+19
-46.0421  2.32416e+19
-45.9248  2.30124e+19
-45.8075  2.24759e+19
-45.6902  2.1851e+19
-45.5729  2.12139e+19
-45.4556  2.05937e+19
-45.3383  1.98169e+19
-45.221  1.8674e+19
-45.1037  1.69527e+19
-44.9864  1.45554e+19
-44.8691  1.15917e+19
-44.7518  8.40408e+18
-44.6345  5.50879e+18
-44.5172  3.50142e+18
-44.3998  2.95094e+18
-44.2825  4.21361e+18
-44.1652  7.35466e+18
-44.0479  1.20817e+19
-43.9306  1.78122e+19
-43.8133  2.37569e+19
-43.696  2.91384e+19
-43.5787  3.32744e+19
-43.4614  3.57276e+19
-43.3441  3.64046e+19
-43.2268  3.55234e+19
-43.1095  3.34936e+19
-42.9922  3.08206e+19
-42.8749  2.80204e+19
-42.7576  2.54621e+19
-42.6403  2.33025e+19
-42.523  2.15662e+19
-42.4057  2.01076e+19
-42.2884  1.87127e+19
-42.171  1.71834e+19
-42.0537  1.54228e+19
-41.9364  1.33955e+19
-41.8191  1.12154e+19
-41.7018  9.06515e+18
-41.5845  7.22731e+18
-41.4672  5.9808e+18
-41.3499  5.58879e+18
-41.2326  6.24594e+18
-41.1153  8.04961e+18
-40.998  1.09641e+19
-40.8807  1.48092e+19
-40.7634  1.9238e+19
-40.6461  2.38345e+19
-40.5288  2.80654e+19
-40.4115  3.14659e+19
-40.2942  3.36324e+19
-40.1769  3.43041e+19
-40.0596  3.34437e+19
-39.9423  3.12214e+19
-39.825  2.79587e+19
-39.7076  2.40707e+19
-39.5903  2.00048e+19
-39.473  1.6112e+19
-39.3557  1.26367e+19
-39.2384  9.6881e+18
-39.1211  7.27402e+18
-39.0038  5.38202e+18
-38.8865  4.01981e+18
-38.7692  3.27047e+18
-38.6519  3.30682e+18
-38.5346  4.33754e+18
-38.4173  6.52997e+18
-38.3  9.93388e+18
-38.1827  1.43892e+19
-38.0654  1.94968e+19
-37.9481  2.4686e+19
-37.8308  2.92391e+19
-37.7135  3.25246e+19
-37.5962  3.40156e+19
-37.4789  3.3518e+19
-37.3615  3.12121e+19
-37.2442  2.75518e+19
-37.1269  2.33003e+19
-37.0096  1.92492e+19
-36.8923  1.61733e+19
-36.775  1.45987e+19
-36.6577  1.47405e+19
-36.5404  1.65026e+19
-36.4231  1.94919e+19
-36.3058  2.31454e+19
-36.1885  2.68583e+19
-36.0712  3.0115e+19
-35.9539  3.25593e+19
-35.8366  3.40646e+19
-35.7193  3.46506e+19
-35.602  3.45175e+19
-35.4847  3.39529e+19
-35.3674  3.32428e+19
-35.2501  3.26157e+19
-35.1328  3.22347e+19
-35.0154  3.21928e+19
-34.8981  3.25078e+19
-34.7808  3.31447e+19
-34.6635  3.4006e+19
-34.5462  3.49707e+19
-34.4289  3.59268e+19
-34.3116  3.66621e+19
-34.1943  3.70052e+19
-34.077  3.67936e+19
-33.9597  3.58709e+19
-33.8424  3.41932e+19
-33.7251  3.17751e+19
-33.6078  2.87792e+19
-33.4905  2.54302e+19
-33.3732  2.20436e+19
-33.2559  1.89643e+19
-33.1386  1.65101e+19
-33.0213  1.49522e+19
-32.904  1.4488e+19
-32.7867  1.52098e+19
-32.6693  1.70922e+19
-32.552  2.00652e+19
-32.4347  2.39245e+19
-32.3174  2.84731e+19
-32.2001  3.3423e+19
-32.0828  3.84753e+19
-31.9655  4.33131e+19
-31.8482  4.76069e+19
-31.7309  5.10741e+19
-31.6136  5.3484e+19
-31.4963  5.4687e+19
-31.379  5.46304e+19
-31.2617  5.34099e+19
-31.1444  5.12e+19
-31.0271  4.82655e+19
-30.9098  4.50049e+19
-30.7925  4.16957e+19
-30.6752  3.87148e+19
-30.5579  3.6326e+19
-30.4406  3.47387e+19
-30.3232  3.40931e+19
-30.2059  3.43835e+19
-30.0886  3.55624e+19
-29.9713  3.75286e+19
-29.854  4.0102e+19
-29.7367  4.30218e+19
-29.6194  4.6128e+19
-29.5021  4.92135e+19
-29.3848  5.21444e+19
-29.2675  5.49004e+19
-29.1502  5.74875e+19
-29.0329  6.00538e+19
-28.9156  6.27717e+19
-28.7983  6.58061e+19
-28.681  6.93517e+19
-28.5637  7.34692e+19
-28.4464  7.81919e+19
-28.3291  8.33898e+19
-28.2118  8.88356e+19
-28.0944  9.42937e+19
-27.9771  9.94466e+19
-27.8598  1.04003e+20
-27.7425  1.07742e+20
-27.6252  1.10357e+20
-27.5079  1.11815e+20
-27.3906  1.1199e+20
-27.2733  1.10904e+20
-27.156  1.0866e+20
-27.0387  1.05329e+20
-26.9214  1.01196e+20
-26.8041  9.65223e+19
-26.6868  9.16441e+19
-26.5695  8.68557e+19
-26.4522  8.24982e+19
-26.3349  7.88854e+19
-26.2176  7.61416e+19
-26.1003  7.44746e+19
-25.983  7.38571e+19
-25.8657  7.42205e+19
-25.7483  7.55328e+19
-25.631  7.76398e+19
-25.5137  8.05298e+19
-25.3964  8.40862e+19
-25.2791  8.82622e+19
-25.1618  9.30122e+19
-25.0445  9.83672e+19
-24.9272  1.04208e+20
-24.8099  1.10569e+20
-24.6926  1.17427e+20
-24.5753  1.24799e+20
-24.458  1.3274e+20
-24.3407  1.41386e+20
-24.2234  1.50813e+20
-24.1061  1.61217e+20
-23.9888  1.72614e+20
-23.8715  1.85016e+20
-23.7542  1.98183e+20
-23.6369  2.11925e+20
-23.5196  2.25831e+20
-23.4023  2.39332e+20
-23.2849  2.51909e+20
-23.1676  2.63043e+20
-23.0503  2.72195e+20
-22.933  2.79133e+20
-22.8157  2.83499e+20
-22.6984  2.85302e+20
-22.5811  2.84746e+20
-22.4638  2.82181e+20
-22.3465  2.78322e+20
-22.2292  2.73907e+20
-22.1119  2.69939e+20
-21.9946  2.67307e+20
-21.8773  2.66947e+20
-21.76  2.69547e+20
-21.6427  2.75363e+20
-21.5254  2.84374e+20
-21.4081  2.96105e+20
-21.2908  3.09814e+20
-21.1735  3.245e+20
-21.0561  3.39105e+20
-20.9388  3.52558e+20
-20.8215  3.63936e+20
-20.7042  3.72902e+20
-20.5869  3.79171e+20
-20.4696  3.82882e+20
-20.3523  3.84398e+20
-20.235  3.84326e+20
-20.1177  3.83356e+20
-20.0004  3.82214e+20
-19.8831  3.81326e+20
-19.7658  3.81491e+20
-19.6485  3.82962e+20
-19.5312  3.86075e+20
-19.4139  3.90861e+20
-19.2966  3.97326e+20
-19.1793  4.05294e+20
-19.062  4.14493e+20
-18.9447  4.2464e+20
-18.8274  4.3551e+20
-18.71  4.46881e+20
-18.5927  4.5892e+20
-18.4754  4.71809e+20
-18.3581  4.85888e+20
-18.2408  5.01872e+20
-18.1235  5.20287e+20
-18.0062  5.41786e+20
-17.8889  5.66708e+20
-17.7716  5.95139e+20
-17.6543  6.27056e+20
-17.537  6.61786e+20
-17.4197  6.98607e+20
-17.3024  7.36559e+20
-17.1851  7.7447e+20
-17.0678  8.11107e+20
-16.9505  8.45316e+20
-16.8332  8.76107e+20
-16.7159  9.02569e+20
-16.5986  9.24046e+20
-16.4813  9.4022e+20
-16.364  9.50997e+20
-16.2466  9.56685e+20
-16.1293  9.57535e+20
-16.012  9.5457e+20
-15.8947  9.48501e+20
-15.7774  9.40557e+20
-15.6601  9.31762e+20
-15.5428  9.23184e+20
-15.4255  9.15607e+20
-15.3082  9.09923e+20
-15.1909  9.06652e+20
-15.0736  9.061e+20
-14.9563  9.08321e+20
-14.839  9.13533e+20
-14.7217  9.21406e+20
-14.6044  9.31937e+20
-14.4871  9.45023e+20
-14.3698  9.60563e+20
-14.2525  9.78338e+20
-14.1352  9.98253e+20
-14.0178  1.02035e+21
-13.9005  1.04444e+21
-13.7832  1.07041e+21
-13.6659  1.09807e+21
-13.5486  1.12738e+21
-13.4313  1.1581e+21
-13.314  1.19003e+21
-13.1967  1.22281e+21
-13.0794  1.25648e+21
-12.9621  1.2904e+21
-12.8448  1.32448e+21
-12.7275  1.35819e+21
-12.6102  1.39146e+21
-12.4929  1.42394e+21
-12.3756  1.45547e+21
-12.2583  1.48619e+21
-12.141  1.51642e+21
-12.0237  1.5465e+21
-11.9064  1.57709e+21
-11.7891  1.60914e+21
-11.6718  1.64365e+21
-11.5544  1.68182e+21
-11.4371  1.72478e+21
-11.3198  1.77346e+21
-11.2025  1.8287e+21
-11.0852  1.89114e+21
-10.9679  1.96099e+21
-10.8506  2.03805e+21
-10.7333  2.12157e+21
-10.616  2.21064e+21
-10.4987  2.30412e+21
-10.3814  2.40025e+21
-10.2641  2.49739e+21
-10.1468  2.5942e+21
-10.0295  2.68933e+21
-9.91217  2.78149e+21
-9.79487  2.87046e+21
-9.67756  2.95603e+21
-9.56026  3.03851e+21
-9.44295  3.11878e+21
-9.32565  3.19845e+21
-9.20834  3.27892e+21
-9.09104  3.36207e+21
-8.97373  3.44988e+21
-8.85643  3.5445e+21
-8.73913  3.64732e+21
-8.62182  3.75996e+21
-8.50452  3.8834e+21
-8.38721  4.01831e+21
-8.26991  4.1643e+21
-8.1526  4.32122e+21
-8.03529  4.48751e+21
-7.91799  4.6619e+21
-7.80069  4.84259e+21
-7.68338  5.02753e+21
-7.56608  5.21511e+21
-7.44877  5.40386e+21
-7.33146  5.59255e+21
-7.21416  5.78045e+21
-7.09685  5.96742e+21
-6.97955  6.1536e+21
-6.86224  6.33969e+21
-6.74494  6.52679e+21
-6.62763  6.71525e+21
-6.51033  6.90628e+21
-6.39302  7.10066e+21
-6.27572  7.29874e+21
-6.15842  7.50091e+21
-6.04111  7.70689e+21
-5.92381  7.91641e+21
-5.8065  8.12934e+21
-5.68919  8.34489e+21
-5.57189  8.56294e+21
-5.45458  8.7834e+21
-5.33728  9.00678e+21
-5.21997  9.23346e+21
-5.10267  9.465e+21
-4.98536  9.70239e+21
-4.86806  9.9472e+21
-4.75075  1.02008e+22
-4.63345  1.04645e+22
-4.51614  1.07387e+22
-4.39884  1.10232e+22
-4.28154  1.13175e+22
-4.16423  1.16198e+22
-4.04692  1.19275e+22
-3.92962  1.22376e+22
-3.81231  1.25473e+22
-3.69501  1.28525e+22
-3.5777  1.31503e+22
-3.4604  1.34376e+22
-3.34309  1.37124e+22
-3.22579  1.39732e+22
-3.10849  1.42201e+22
-2.99118  1.44535e+22
-2.87387  1.46756e+22
-2.75657  1.48893e+22
-2.63926  1.50976e+22
-2.52196  1.53044e+22
-2.40465  1.55136e+22
-2.28735  1.57283e+22
-2.17005  1.59515e+22
-2.05274  1.61853e+22
-1.93544  1.64302e+22
-1.81813  1.66867e+22
-1.70083  1.69533e+22
-1.58352  1.72277e+22
-1.46622  1.75071e+22
-1.34891  1.77874e+22
-1.2316  1.80645e+22
-1.1143  1.83337e+22
-0.996995  1.85904e+22
-0.87969  1.88304e+22
-0.762385  1.90487e+22
-0.64508  1.92425e+22
-0.527775  1.94083e+22
-0.41047  1.95434e+22
-0.293165  1.96459e+22
-0.17586  1.97147e+22
-0.058555  1.97486e+22
0.05875  1.97473e+22
0.176055  1.97108e+22
0.29336  1.96396e+22
0.410665  1.95347e+22
0.52797  1.93972e+22
0.645275  1.92292e+22
0.76258  1.90334e+22
0.879885  1.88131e+22
0.99719  1.85716e+22
1.1145  1.83133e+22
1.2318  1.80426e+22
1.3491  1.77644e+22
1.46641  1.7483e+22
1.58371  1.72025e+22
1.70102  1.69272e+22
1.81832  1.66598e+22
1.93563  1.64025e+22
2.05294  1.61567e+22
2.17024  1.59224e+22
2.28754  1.56987e+22
2.40485  1.54834e+22
2.52216  1.52738e+22
2.63946  1.50664e+22
2.75677  1.48575e+22
2.87407  1.46435e+22
2.99137  1.44208e+22
3.10868  1.41868e+22
3.22599  1.39394e+22
3.34329  1.36781e+22
3.4606  1.3403e+22
3.5779  1.31151e+22
3.69521  1.28169e+22
3.81251  1.25113e+22
3.92982  1.22013e+22
4.04712  1.18906e+22
4.16443  1.15827e+22
4.28173  1.12802e+22
4.39903  1.09856e+22
4.51634  1.0701e+22
4.63364  1.04268e+22
4.75095  1.01631e+22
4.86825  9.90954e+21
4.98556  9.66476e+21
5.10286  9.42776e+21
5.22017  9.19644e+21
5.33748  8.97001e+21
5.45478  8.74707e+21
5.57209  8.52701e+21
5.68939  8.30939e+21
5.8067  8.09424e+21
5.924  7.88163e+21
6.0413  7.67251e+21
6.15861  7.46676e+21
6.27591  7.2648e+21
6.39322  7.06705e+21
6.51052  6.8729e+21
6.62783  6.68187e+21
6.74514  6.49349e+21
6.86244  6.30691e+21
6.97975  6.12093e+21
7.09705  5.93513e+21
7.21436  5.74867e+21
7.33166  5.56118e+21
7.44897  5.37332e+21
7.56627  5.1855e+21
7.68358  4.99878e+21
7.80088  4.81481e+21
7.91819  4.63511e+21
8.03549  4.46189e+21
8.1528  4.29678e+21
8.2701  4.14095e+21
8.38741  3.99585e+21
8.50471  3.8619e+21
8.62202  3.73941e+21
8.73932  3.62737e+21
8.85662  3.52522e+21
8.97393  3.4313e+21
9.09123  3.34392e+21
9.20854  3.26126e+21
9.32584  3.18137e+21
9.44315  3.10219e+21
9.56045  3.02222e+21
9.67776  2.94029e+21
9.79506  2.85524e+21
9.91237  2.76679e+21
10.0297  2.67518e+21
10.147  2.58081e+21
10.2643  2.48468e+21
10.3816  2.38808e+21
10.4989  2.29267e+21
10.6162  2.19981e+21
10.7335  2.11128e+21
10.8508  2.02827e+21
10.9681  1.9517e+21
11.0854  1.88236e+21
11.2027  1.82028e+21
11.32  1.76525e+21
11.4373  1.7168e+21
11.5546  1.67404e+21
11.6719  1.63597e+21
11.7893  1.60161e+21
11.9066  1.5697e+21
12.0239  1.53904e+21
12.1412  1.50917e+21
12.2585  1.4791e+21
12.3758  1.44847e+21
12.4931  1.41707e+21
12.6104  1.38473e+21
12.7277  1.35168e+21
12.845  1.31818e+21
12.9623  1.28427e+21
13.0796  1.25062e+21
13.1969  1.21725e+21
13.3142  1.18475e+21
13.4315  1.15311e+21
13.5488  1.12275e+21
13.6661  1.09381e+21
13.7834  1.06646e+21
13.9007  1.0409e+21
14.018  1.01727e+21
14.1354  9.95574e+20
14.2527  9.75986e+20
14.37  9.58636e+20
14.4873  9.43399e+20
14.6046  9.30635e+20
14.7219  9.20326e+20
14.8392  9.12708e+20
14.9565  9.07776e+20
15.0738  9.05659e+20
15.1911  9.06425e+20
15.3084  9.09771e+20
15.4257  9.15436e+20
15.543  9.22967e+20
15.6603  9.31555e+20
15.7776  9.40408e+20
15.8949  9.48304e+20
16.0122  9.54303e+20
16.1295  9.57204e+20
16.2468  9.56128e+20
16.3641  9.5036e+20
16.4815  9.3943e+20
16.5988  9.23103e+20
16.7161  9.01345e+20
16.8334  8.74798e+20
16.9507  8.43828e+20
17.068  8.09501e+20
17.1853  7.72781e+20
17.3026  7.34858e+20
17.4199  6.96864e+20
17.5372  6.60028e+20
17.6545  6.25334e+20
17.7718  5.93645e+20
17.8891  5.65278e+20
18.0064  5.4061e+20
18.1237  5.19314e+20
18.241  5.01033e+20
18.3583  4.85229e+20
18.4756  4.7129e+20
18.5929  4.58612e+20
18.7102  4.4665e+20
18.8275  4.3537e+20
18.9449  4.24654e+20
19.0622  4.14583e+20
19.1795  4.055e+20
19.2968  3.97571e+20
19.4141  3.91196e+20
19.5314  3.86467e+20
19.6487  3.83392e+20
19.766  3.82003e+20
19.8833  3.81864e+20
20.0006  3.8269e+20
20.1179  3.83876e+20
20.2352  3.84835e+20
20.3525  3.84827e+20
20.4698  3.83181e+20
20.5871  3.79316e+20
20.7044  3.72933e+20
20.8217  3.63841e+20
20.939  3.52246e+20
21.0563  3.38675e+20
21.1736  3.23935e+20
21.291  3.09173e+20
21.4083  2.95416e+20
21.5256  2.83654e+20
21.6429  2.74701e+20
21.7602  2.68986e+20
21.8775  2.66542e+20
21.9948  2.67036e+20
22.1121  2.69756e+20
22.2294  2.73822e+20
22.3467  2.78384e+20
22.464  2.82292e+20
22.5813  2.84871e+20
22.6986  2.85454e+20
22.8159  2.83639e+20
22.9332  2.79238e+20
23.0505  2.72311e+20
23.1678  2.63069e+20
23.2851  2.51918e+20
23.4024  2.3926e+20
23.5198  2.25773e+20
23.6371  2.11858e+20
23.7544  1.98118e+20
23.8717  1.84949e+20
23.989  1.72593e+20
24.1063  1.61228e+20
24.2236  1.50841e+20
24.3409  1.41404e+20
24.4582  1.32812e+20
24.5755  1.24838e+20
24.6928  1.17473e+20
24.8101  1.10609e+20
24.9274  1.04251e+20
25.0447  9.83602e+19
25.162  9.29901e+19
25.2793  8.81973e+19
25.3966  8.39799e+19
25.5139  8.04175e+19
25.6312  7.75311e+19
25.7485  7.5388e+19
25.8658  7.41046e+19
25.9832  7.37116e+19
26.1005  7.44056e+19
26.2178  7.61263e+19
26.3351  7.88627e+19
26.4524  8.25302e+19
26.5697  8.68913e+19
26.687  9.16677e+19
26.8043  9.65509e+19
26.9216  1.01165e+20
27.0389  1.05225e+20
27.1562  1.0846e+20
27.2735  1.10629e+20
27.3908  1.11599e+20
27.5081  1.11346e+20
27.6254  1.09823e+20
27.7427  1.07142e+20
27.86  1.03401e+20
27.9773  9.88383e+19
28.0946  9.37262e+19
28.212  8.83016e+19
28.3293  8.29165e+19
28.4466  7.7785e+19
28.5639  7.3137e+19
28.6812  6.90862e+19
28.7985  6.55984e+19
28.9158  6.26008e+19
29.0331  5.99133e+19
29.1504  5.73602e+19
29.2677  5.47708e+19
29.385  5.20289e+19
29.5023  4.90882e+19
29.6196  4.59971e+19
29.7369  4.29021e+19
29.8542  3.99902e+19
29.9715  3.74782e+19
30.0888  3.55531e+19
30.2061  3.4409e+19
30.3234  3.41706e+19
30.4407  3.48995e+19
30.558  3.65362e+19
30.6754  3.89667e+19
30.7927  4.19731e+19
30.91  4.52846e+19
31.0273  4.85756e+19
31.1446  5.14476e+19
31.2619  5.36261e+19
31.3792  5.47943e+19
31.4965  5.47955e+19
31.6138  5.35637e+19
31.7311  5.11062e+19
31.8484  4.75955e+19
31.9657  4.32805e+19
32.083  3.84368e+19
32.2003  3.33777e+19
32.3176  2.8426e+19
32.4349  2.38882e+19
32.5522  2.00256e+19
32.6695  1.70594e+19
32.7868  1.51763e+19
32.9042  1.44632e+19
33.0215  1.49199e+19
33.1388  1.6478e+19
33.2561  1.89219e+19
33.3734  2.20041e+19
33.4907  2.53759e+19
33.608  2.87153e+19
33.7253  3.17295e+19
33.8426  3.41327e+19
33.9599  3.58379e+19
34.0772  3.67715e+19
34.1945  3.70102e+19
34.3118  3.66965e+19
34.4291  3.59908e+19
34.5464  3.50762e+19
34.6637  3.41139e+19
34.781  3.32841e+19
34.8983  3.26754e+19
35.0156  3.23787e+19
35.1329  3.24325e+19
35.2503  3.2817e+19
35.3676  3.34682e+19
35.4849  3.41718e+19
35.6022  3.47166e+19
35.7195  3.48181e+19
35.8368  3.42102e+19
35.9541  3.2669e+19
36.0714  3.0173e+19
36.1887  2.68917e+19
36.306  2.31414e+19
36.4233  1.94582e+19
36.5406  1.64607e+19
36.6579  1.47026e+19
36.7752  1.45553e+19
36.8925  1.61252e+19
37.0098  1.9187e+19
37.1271  2.32062e+19
37.2444  2.74302e+19
37.3617  3.10534e+19
37.479  3.33236e+19
37.5964  3.37658e+19
37.7137  3.22606e+19
37.831  2.89634e+19
37.9483  2.44261e+19
38.0656  1.92559e+19
38.1829  1.41878e+19
38.3002  9.77873e+18
38.4175  6.4259e+18
38.5348  4.27658e+18
38.6521  3.27862e+18
38.7694  3.26716e+18
38.8867  4.02913e+18
39.004  5.40062e+18
39.1213  7.30012e+18
39.2386  9.72126e+18
39.3559  1.26907e+19
39.4732  1.61835e+19
39.5905  2.01045e+19
39.7078  2.41963e+19
39.8251  2.8091e+19
39.9425  3.13619e+19
40.0598  3.35664e+19
40.1771  3.44068e+19
40.2944  3.37065e+19
40.4117  3.15126e+19
40.529  2.80703e+19
40.6463  2.38071e+19
40.7636  1.92082e+19
40.8809  1.4757e+19
40.9982  1.09332e+19
41.1155  8.04365e+18
41.2328  6.27295e+18
41.3501  5.64895e+18
41.4674  6.08186e+18
41.5847  7.36735e+18
41.702  9.23191e+18
41.8193  1.14035e+19
41.9366  1.35965e+19
42.0539  1.56293e+19
42.1712  1.73951e+19
42.2885  1.89103e+19
42.4059  2.0299e+19
42.5232  2.17514e+19
42.6405  2.34866e+19
42.7578  2.56337e+19
42.8751  2.8185e+19
42.9924  3.09797e+19
43.1097  3.36154e+19
43.227  3.56216e+19
43.3443  3.64622e+19
43.4616  3.57159e+19
43.5789  3.31953e+19
43.6962  2.90234e+19
43.8135  2.36069e+19
43.9308  1.76373e+19
44.0481  1.19233e+19
44.1654  7.2224e+18
44.2827  4.13701e+18
44.4  2.93946e+18
44.5173  3.55436e+18
44.6347  5.6136e+18
44.752  8.56042e+18
44.8693  1.1775e+19
44.9866  1.47294e+19
45.1039  1.71286e+19
45.2212  1.88309e+19
45.3385  1.99564e+19
45.4558  2.07263e+19
45.5731  2.13485e+19
45.6904  2.19506e+19
45.8077  2.25806e+19
45.925  2.30927e+19
46.0423  2.32997e+19
46.1596  2.29894e+19
46.2769  2.20135e+19
46.3942  2.03571e+19
46.5115  1.8072e+19
46.6288  1.54025e+19
46.7461  1.25836e+19
46.8634  9.89272e+18
46.9808  7.54488e+18
47.0981  5.65457e+18
47.2154  4.27315e+18
47.3327  3.37352e+18
47.45  2.89512e+18
47.5673  2.74882e+18
47.6846  2.86194e+18
47.8019  3.15087e+18
47.9192  3.55713e+18
48.0365  4.0096e+18
48.1538  4.44532e+18
48.2711  4.80573e+18
48.3884  5.05371e+18
48.5057  5.19282e+18
48.623  5.26906e+18
48.7403  5.3741e+18
48.8576  5.63781e+18
48.9749  6.18159e+18
49.0922  7.09585e+18
49.2095  8.41506e+18
49.3269  1.0128e+19
49.4442  1.21119e+19
49.5615  1.42291e+19
49.6788  1.62664e+19
49.7961  1.80491e+19
49.9134  1.93747e+19
50.0307  2.01486e+19
50.148  2.02883e+19
50.2653  1.9784e+19
50.3826  1.87006e+19
50.4999  1.71452e+19
50.6172  1.53e+19
50.7345  1.33595e+19
50.8518  1.15303e+19
