#S 1 spectral density
#N 2
#UFWHM 13.842
#L  abscissas [um]  spectral density
-58.5938  8.04178e+18
-58.4764  9.078e+18
-58.3591  9.85909e+18
-58.2418  1.03515e+19
-58.1245  1.05226e+19
-58.0072  1.03386e+19
-57.8899  9.80987e+18
-57.7726  8.99332e+18
-57.6553  8.03894e+18
-57.538  7.1617e+18
-57.4207  6.61343e+18
-57.3034  6.62067e+18
-57.1861  7.31458e+18
-57.0688  8.66268e+18
-56.9515  1.04747e+19
-56.8342  1.2415e+19
-56.7169  1.41107e+19
-56.5996  1.51697e+19
-56.4823  1.53725e+19
-56.365  1.46667e+19
-56.2477  1.31568e+19
-56.1303  1.11633e+19
-56.013  9.06732e+18
-55.8957  7.2308e+18
-55.7784  5.91877e+18
-55.6611  5.25902e+18
-55.5438  5.2089e+18
-55.4265  5.61554e+18
-55.3092  6.23684e+18
-55.1919  6.84418e+18
-55.0746  7.2521e+18
-54.9573  7.37506e+18
-54.84  7.19193e+18
-54.7227  6.77302e+18
-54.6054  6.19215e+18
-54.4881  5.5438e+18
-54.3708  4.90054e+18
-54.2535  4.31802e+18
-54.1362  3.84465e+18
-54.0189  3.52733e+18
-53.9016  3.42672e+18
-53.7842  3.60738e+18
-53.6669  4.13854e+18
-53.5496  5.06701e+18
-53.4323  6.39302e+18
-53.315  8.07004e+18
-53.1977  9.98908e+18
-53.0804  1.20044e+19
-52.9631  1.39243e+19
-52.8458  1.55538e+19
-52.7285  1.67254e+19
-52.6112  1.72754e+19
-52.4939  1.71181e+19
-52.3766  1.62103e+19
-52.2593  1.46322e+19
-52.142  1.25105e+19
-52.0247  1.00885e+19
-51.9074  7.66426e+18
-51.7901  5.58051e+18
-51.6728  4.17705e+18
-51.5555  3.70056e+18
-51.4381  4.29973e+18
-51.3208  5.92956e+18
-51.2035  8.38796e+18
-51.0862  1.12892e+19
-50.9689  1.42039e+19
-50.8516  1.66805e+19
-50.7343  1.83041e+19
-50.617  1.88761e+19
-50.4997  1.83635e+19
-50.3824  1.6898e+19
-50.2651  1.48401e+19
-50.1478  1.25138e+19
-50.0305  1.03521e+19
-49.9132  8.61711e+18
-49.7959  7.49818e+18
-49.6786  7.02463e+18
-49.5613  7.08652e+18
-49.444  7.4852e+18
-49.3267  7.9873e+18
-49.2094  8.38077e+18
-49.092  8.51292e+18
-48.9747  8.31707e+18
-48.8574  7.82997e+18
-48.7401  7.16301e+18
-48.6228  6.49566e+18
-48.5055  6.02306e+18
-48.3882  5.89622e+18
-48.2709  6.2266e+18
-48.1536  7.0092e+18
-48.0363  8.14938e+18
-47.919  9.43511e+18
-47.8017  1.06322e+19
-47.6844  1.1466e+19
-47.5671  1.17394e+19
-47.4498  1.13523e+19
-47.3325  1.03505e+19
-47.2152  8.89256e+18
-47.0979  7.26432e+18
-46.9806  5.77322e+18
-46.8633  4.69197e+18
-46.7459  4.18101e+18
-46.6286  4.27416e+18
-46.5113  4.86167e+18
-46.394  5.73695e+18
-46.2767  6.66051e+18
-46.1594  7.42953e+18
-46.0421  7.92928e+18
-45.9248  8.16092e+18
-45.8075  8.19721e+18
-45.6902  8.16421e+18
-45.5729  8.16277e+18
-45.4556  8.24262e+18
-45.3383  8.3295e+18
-45.221  8.33626e+18
-45.1037  8.11513e+18
-44.9864  7.58317e+18
-44.8691  6.76753e+18
-44.7518  5.82313e+18
-44.6345  4.98712e+18
-44.5172  4.53355e+18
-44.3998  4.68756e+18
-44.2825  5.53241e+18
-44.1652  6.96695e+18
-44.0479  8.71381e+18
-43.9306  1.03613e+19
-43.8133  1.14988e+19
-43.696  1.18016e+19
-43.5787  1.11261e+19
-43.4614  9.55809e+18
-43.3441  7.41829e+18
-43.2268  5.15319e+18
-43.1095  3.2479e+18
-42.9922  2.09468e+18
-42.8749  1.91837e+18
-42.7576  2.72061e+18
-42.6403  4.31924e+18
-42.523  6.36973e+18
-42.4057  8.50948e+18
-42.2884  1.04119e+19
-42.171  1.18799e+19
-42.0537  1.28188e+19
-41.9364  1.33034e+19
-41.8191  1.34675e+19
-41.7018  1.34895e+19
-41.5845  1.34932e+19
-41.4672  1.35536e+19
-41.3499  1.36522e+19
-41.2326  1.37302e+19
-41.1153  1.36579e+19
-40.998  1.33169e+19
-40.8807  1.26283e+19
-40.7634  1.15828e+19
-40.6461  1.02359e+19
-40.5288  8.75619e+18
-40.4115  7.39274e+18
-40.2942  6.48499e+18
-40.1769  6.41906e+18
-40.0596  7.55702e+18
-39.9423  1.01931e+19
-39.825  1.44599e+19
-39.7076  2.02355e+19
-39.5903  2.71594e+19
-39.473  3.45582e+19
-39.3557  4.16196e+19
-39.2384  4.74163e+19
-39.1211  5.11089e+19
-39.0038  5.21511e+19
-38.8865  5.03709e+19
-38.7692  4.60055e+19
-38.6519  3.98256e+19
-38.5346  3.28257e+19
-38.4173  2.61736e+19
-38.3  2.09013e+19
-38.1827  1.77669e+19
-38.0654  1.70527e+19
-37.9481  1.85673e+19
-37.8308  2.16634e+19
-37.7135  2.54263e+19
-37.5962  2.88505e+19
-37.4789  3.10722e+19
-37.3615  3.15139e+19
-37.2442  2.99712e+19
-37.1269  2.66889e+19
-37.0096  2.21384e+19
-36.8923  1.70259e+19
-36.775  1.20326e+19
-36.6577  7.73056e+18
-36.5404  4.48595e+18
-36.4231  2.42422e+18
-36.3058  1.47749e+18
-36.1885  1.43451e+18
-36.0712  2.03028e+18
-35.9539  3.01269e+18
-35.8366  4.18511e+18
-35.7193  5.4195e+18
-35.602  6.63483e+18
-35.4847  7.78438e+18
-35.3674  8.81562e+18
-35.2501  9.66594e+18
-35.1328  1.02671e+19
-35.0154  1.05469e+19
-34.8981  1.04787e+19
-34.7808  1.00647e+19
-34.6635  9.35433e+18
-34.5462  8.44611e+18
-34.4289  7.46237e+18
-34.3116  6.50271e+18
-34.1943  5.65448e+18
-34.077  4.96195e+18
-33.9597  4.43549e+18
-33.8424  4.05497e+18
-33.7251  3.79889e+18
-33.6078  3.64005e+18
-33.4905  3.56792e+18
-33.3732  3.58494e+18
-33.2559  3.69239e+18
-33.1386  3.88997e+18
-33.0213  4.15701e+18
-32.904  4.47097e+18
-32.7867  4.78676e+18
-32.6693  5.06223e+18
-32.552  5.25309e+18
-32.4347  5.35132e+18
-32.3174  5.35639e+18
-32.2001  5.29159e+18
-32.0828  5.19036e+18
-31.9655  5.09095e+18
-31.8482  5.05393e+18
-31.7309  5.12889e+18
-31.6136  5.36919e+18
-31.4963  5.84956e+18
-31.379  6.63585e+18
-31.2617  7.79268e+18
-31.1444  9.36234e+18
-31.0271  1.13297e+19
-30.9098  1.36357e+19
-30.7925  1.61563e+19
-30.6752  1.87212e+19
-30.5579  2.11342e+19
-30.4406  2.31866e+19
-30.3232  2.4725e+19
-30.2059  2.56463e+19
-30.0886  2.5951e+19
-29.9713  2.57387e+19
-29.854  2.51539e+19
-29.7367  2.44542e+19
-29.6194  2.38943e+19
-29.5021  2.37673e+19
-29.3848  2.42991e+19
-29.2675  2.56918e+19
-29.1502  2.80624e+19
-29.0329  3.14601e+19
-28.9156  3.57548e+19
-28.7983  4.07382e+19
-28.681  4.60765e+19
-28.5637  5.13163e+19
-28.4464  5.5997e+19
-28.3291  5.96362e+19
-28.2118  6.18315e+19
-28.0944  6.23938e+19
-27.9771  6.12982e+19
-27.8598  5.87367e+19
-27.7425  5.5143e+19
-27.6252  5.09637e+19
-27.5079  4.68278e+19
-27.3906  4.32304e+19
-27.2733  4.05769e+19
-27.156  3.90528e+19
-27.0387  3.86669e+19
-26.9214  3.92426e+19
-26.8041  4.04551e+19
-26.6868  4.19165e+19
-26.5695  4.322e+19
-26.4522  4.40267e+19
-26.3349  4.4113e+19
-26.2176  4.33772e+19
-26.1003  4.18448e+19
-25.983  3.96677e+19
-25.8657  3.71106e+19
-25.7483  3.452e+19
-25.631  3.22757e+19
-25.5137  3.07642e+19
-25.3964  3.02904e+19
-25.2791  3.10681e+19
-25.1618  3.31762e+19
-25.0445  3.65261e+19
-24.9272  4.0888e+19
-24.8099  4.58842e+19
-24.6926  5.11008e+19
-24.5753  5.61378e+19
-24.458  6.05648e+19
-24.3407  6.41464e+19
-24.2234  6.6747e+19
-24.1061  6.83563e+19
-23.9888  6.91249e+19
-23.8715  6.92316e+19
-23.7542  6.89732e+19
-23.6369  6.86155e+19
-23.5196  6.84299e+19
-23.4023  6.86624e+19
-23.2849  6.94581e+19
-23.1676  7.09274e+19
-23.0503  7.30682e+19
-22.933  7.57841e+19
-22.8157  7.88991e+19
-22.6984  8.21195e+19
-22.5811  8.51559e+19
-22.4638  8.77349e+19
-22.3465  8.95765e+19
-22.2292  9.06228e+19
-22.1119  9.08725e+19
-21.9946  9.0487e+19
-21.8773  8.97362e+19
-21.76  8.89903e+19
-21.6427  8.86056e+19
-21.5254  8.89076e+19
-21.4081  9.0213e+19
-21.2908  9.27501e+19
-21.1735  9.66783e+19
-21.0561  1.02181e+20
-20.9388  1.09326e+20
-20.8215  1.18312e+20
-20.7042  1.29155e+20
-20.5869  1.41925e+20
-20.4696  1.56486e+20
-20.3523  1.72672e+20
-20.235  1.90053e+20
-20.1177  2.08268e+20
-20.0004  2.26729e+20
-19.8831  2.44868e+20
-19.7658  2.62277e+20
-19.6485  2.78628e+20
-19.5312  2.93694e+20
-19.4139  3.07419e+20
-19.2966  3.19766e+20
-19.1793  3.30751e+20
-19.062  3.40307e+20
-18.9447  3.48339e+20
-18.8274  3.54747e+20
-18.71  3.59184e+20
-18.5927  3.6154e+20
-18.4754  3.61728e+20
-18.3581  3.59668e+20
-18.2408  3.55681e+20
-18.1235  3.50018e+20
-18.0062  3.43274e+20
-17.8889  3.36138e+20
-17.7716  3.29245e+20
-17.6543  3.23683e+20
-17.537  3.20191e+20
-17.4197  3.19823e+20
-17.3024  3.23388e+20
-17.1851  3.31808e+20
-17.0678  3.45791e+20
-16.9505  3.6582e+20
-16.8332  3.92142e+20
-16.7159  4.24732e+20
-16.5986  4.63227e+20
-16.4813  5.06911e+20
-16.364  5.54826e+20
-16.2466  6.05788e+20
-16.1293  6.58204e+20
-16.012  7.10983e+20
-15.8947  7.62553e+20
-15.7774  8.11722e+20
-15.6601  8.57354e+20
-15.5428  8.98589e+20
-15.4255  9.34708e+20
-15.3082  9.65539e+20
-15.1909  9.90664e+20
-15.0736  1.0106e+21
-14.9563  1.02569e+21
-14.839  1.03692e+21
-14.7217  1.04511e+21
-14.6044  1.05178e+21
-14.4871  1.0581e+21
-14.3698  1.06564e+21
-14.2525  1.07556e+21
-14.1352  1.08905e+21
-14.0178  1.10687e+21
-13.9005  1.12965e+21
-13.7832  1.15758e+21
-13.6659  1.19055e+21
-13.5486  1.22844e+21
-13.4313  1.2709e+21
-13.314  1.31749e+21
-13.1967  1.36786e+21
-13.0794  1.42189e+21
-12.9621  1.47944e+21
-12.8448  1.54066e+21
-12.7275  1.60574e+21
-12.6102  1.67501e+21
-12.4929  1.74869e+21
-12.3756  1.82684e+21
-12.2583  1.90942e+21
-12.141  1.99601e+21
-12.0237  2.08598e+21
-11.9064  2.17833e+21
-11.7891  2.27186e+21
-11.6718  2.36542e+21
-11.5544  2.45764e+21
-11.4371  2.54719e+21
-11.3198  2.63345e+21
-11.2025  2.71575e+21
-11.0852  2.79436e+21
-10.9679  2.86984e+21
-10.8506  2.9434e+21
-10.7333  3.01667e+21
-10.616  3.09172e+21
-10.4987  3.17089e+21
-10.3814  3.25609e+21
-10.2641  3.34919e+21
-10.1468  3.45207e+21
-10.0295  3.56515e+21
-9.91217  3.68845e+21
-9.79487  3.82166e+21
-9.67756  3.96313e+21
-9.56026  4.11071e+21
-9.44295  4.26164e+21
-9.32565  4.41348e+21
-9.20834  4.56305e+21
-9.09104  4.70794e+21
-8.97373  4.84604e+21
-8.85643  4.97662e+21
-8.73913  5.0991e+21
-8.62182  5.21427e+21
-8.50452  5.32384e+21
-8.38721  5.4307e+21
-8.26991  5.53749e+21
-8.1526  5.64808e+21
-8.03529  5.76561e+21
-7.91799  5.8936e+21
-7.80069  6.0348e+21
-7.68338  6.19104e+21
-7.56608  6.36396e+21
-7.44877  6.55398e+21
-7.33146  6.76057e+21
-7.21416  6.98239e+21
-7.09685  7.21761e+21
-6.97955  7.46367e+21
-6.86224  7.71761e+21
-6.74494  7.97627e+21
-6.62763  8.23582e+21
-6.51033  8.49317e+21
-6.39302  8.74482e+21
-6.27572  8.98763e+21
-6.15842  9.2189e+21
-6.04111  9.43605e+21
-5.92381  9.63678e+21
-5.8065  9.81962e+21
-5.68919  9.98313e+21
-5.57189  1.01267e+22
-5.45458  1.02501e+22
-5.33728  1.03543e+22
-5.21997  1.044e+22
-5.10267  1.05098e+22
-4.98536  1.05664e+22
-4.86806  1.06132e+22
-4.75075  1.06544e+22
-4.63345  1.06944e+22
-4.51614  1.07377e+22
-4.39884  1.07887e+22
-4.28154  1.08516e+22
-4.16423  1.09305e+22
-4.04692  1.10274e+22
-3.92962  1.11446e+22
-3.81231  1.12834e+22
-3.69501  1.14433e+22
-3.5777  1.16235e+22
-3.4604  1.18218e+22
-3.34309  1.20348e+22
-3.22579  1.2259e+22
-3.10849  1.24907e+22
-2.99118  1.27251e+22
-2.87387  1.29582e+22
-2.75657  1.31858e+22
-2.63926  1.34044e+22
-2.52196  1.3611e+22
-2.40465  1.38031e+22
-2.28735  1.39787e+22
-2.17005  1.41369e+22
-2.05274  1.42774e+22
-1.93544  1.43998e+22
-1.81813  1.45049e+22
-1.70083  1.45938e+22
-1.58352  1.46675e+22
-1.46622  1.47277e+22
-1.34891  1.47758e+22
-1.2316  1.48137e+22
-1.1143  1.48428e+22
-0.996995  1.48647e+22
-0.87969  1.4881e+22
-0.762385  1.48921e+22
-0.64508  1.48998e+22
-0.527775  1.49048e+22
-0.41047  1.49077e+22
-0.293165  1.49088e+22
-0.17586  1.49093e+22
-0.058555  1.49093e+22
0.05875  1.49086e+22
0.176055  1.49077e+22
0.29336  1.49059e+22
0.410665  1.49035e+22
0.52797  1.48994e+22
0.645275  1.48931e+22
0.76258  1.4884e+22
0.879885  1.48715e+22
0.99719  1.48539e+22
1.1145  1.48307e+22
1.2318  1.48001e+22
1.3491  1.47609e+22
1.46641  1.47115e+22
1.58371  1.46499e+22
1.70102  1.45751e+22
1.81832  1.44851e+22
1.93563  1.4379e+22
2.05294  1.42557e+22
2.17024  1.41148e+22
2.28754  1.39562e+22
2.40485  1.378e+22
2.52216  1.35877e+22
2.63946  1.3381e+22
2.75677  1.31622e+22
2.87407  1.29345e+22
2.99137  1.27015e+22
3.10868  1.2467e+22
3.22599  1.22355e+22
3.34329  1.20112e+22
3.4606  1.17982e+22
3.5779  1.16002e+22
3.69521  1.14203e+22
3.81251  1.12605e+22
3.92982  1.11217e+22
4.04712  1.10044e+22
4.16443  1.09076e+22
4.28173  1.08289e+22
4.39903  1.07657e+22
4.51634  1.07144e+22
4.63364  1.06708e+22
4.75095  1.06304e+22
4.86825  1.05883e+22
4.98556  1.05405e+22
5.10286  1.0483e+22
5.22017  1.04117e+22
5.33748  1.03244e+22
5.45478  1.02188e+22
5.57209  1.00938e+22
5.68939  9.94846e+21
5.8067  9.78311e+21
5.924  9.59855e+21
6.0413  9.39636e+21
6.15861  9.17812e+21
6.27591  8.94567e+21
6.39322  8.70213e+21
6.51052  8.45e+21
6.62783  8.19251e+21
6.74514  7.93301e+21
6.86244  7.67492e+21
6.97975  7.42165e+21
7.09705  7.17652e+21
7.21436  6.94241e+21
7.33166  6.72157e+21
7.44897  6.51634e+21
7.56627  6.32764e+21
7.68358  6.15583e+21
7.80088  6.00054e+21
7.91819  5.86024e+21
8.03549  5.7331e+21
8.1528  5.61629e+21
8.2701  5.50625e+21
8.38741  5.39985e+21
8.50471  5.29343e+21
8.62202  5.18427e+21
8.73932  5.06936e+21
8.85662  4.94742e+21
8.97393  4.81754e+21
9.09123  4.67993e+21
9.20854  4.53578e+21
9.32584  4.38701e+21
9.44315  4.23616e+21
9.56045  4.08591e+21
9.67776  3.93937e+21
9.79506  3.79872e+21
9.91237  3.66637e+21
10.0297  3.54369e+21
10.147  3.4314e+21
10.2643  3.32916e+21
10.3816  3.23643e+21
10.4989  3.15156e+21
10.6162  3.07276e+21
10.7335  2.99785e+21
10.8508  2.92478e+21
10.9681  2.85135e+21
11.0854  2.77618e+21
11.2027  2.6979e+21
11.32  2.61586e+21
11.4373  2.53006e+21
11.5546  2.44085e+21
11.6719  2.34907e+21
11.7893  2.25613e+21
11.9066  2.16309e+21
12.0239  2.07114e+21
12.1412  1.98185e+21
12.2585  1.89573e+21
12.3758  1.81373e+21
12.4931  1.73605e+21
12.6104  1.66287e+21
12.7277  1.59404e+21
12.845  1.52928e+21
12.9623  1.46842e+21
13.0796  1.41133e+21
13.1969  1.35758e+21
13.3142  1.30763e+21
13.4315  1.26141e+21
13.5488  1.21925e+21
13.6661  1.18164e+21
13.7834  1.14888e+21
13.9007  1.1212e+21
14.018  1.09856e+21
14.1354  1.08089e+21
14.2527  1.06755e+21
14.37  1.05769e+21
14.4873  1.05026e+21
14.6046  1.04389e+21
14.7219  1.03727e+21
14.8392  1.02906e+21
14.9565  1.01787e+21
15.0738  1.00289e+21
15.1911  9.83043e+20
15.3084  9.58007e+20
15.4257  9.2743e+20
15.543  8.91541e+20
15.6603  8.50597e+20
15.7776  8.0528e+20
15.8949  7.56465e+20
16.0122  7.0534e+20
16.1295  6.52988e+20
16.2468  6.00874e+20
16.3641  5.50415e+20
16.4815  5.02893e+20
16.5988  4.59595e+20
16.7161  4.21502e+20
16.8334  3.89284e+20
16.9507  3.63303e+20
17.068  3.43645e+20
17.1853  3.30006e+20
17.3026  3.21917e+20
17.4199  3.18591e+20
17.5372  3.19177e+20
17.6545  3.22881e+20
17.7718  3.28633e+20
17.8891  3.35539e+20
18.0064  3.4278e+20
18.1237  3.49551e+20
18.241  3.55127e+20
18.3583  3.59023e+20
18.4756  3.60946e+20
18.5929  3.60628e+20
18.7102  3.58024e+20
18.8275  3.53444e+20
18.9449  3.46922e+20
19.0622  3.38716e+20
19.1795  3.29068e+20
19.2968  3.18005e+20
19.4141  3.05619e+20
19.5314  2.91842e+20
19.6487  2.7672e+20
19.766  2.60419e+20
19.8833  2.42974e+20
20.0006  2.24878e+20
20.1179  2.0652e+20
20.2352  1.88437e+20
20.3525  1.71127e+20
20.4698  1.55055e+20
20.5871  1.40616e+20
20.7044  1.27992e+20
20.8217  1.17283e+20
20.939  1.08461e+20
21.0563  1.01408e+20
21.1736  9.60456e+19
21.291  9.22113e+19
21.4083  8.9803e+19
21.5256  8.85755e+19
21.6429  8.83588e+19
21.7602  8.88199e+19
21.8775  8.96228e+19
21.9948  9.03812e+19
22.1121  9.07972e+19
22.2294  9.05264e+19
22.3467  8.9483e+19
22.464  8.75767e+19
22.5813  8.49736e+19
22.6986  8.19062e+19
22.8159  7.86683e+19
22.9332  7.55591e+19
23.0505  7.28468e+19
23.1678  7.07158e+19
23.2851  6.92575e+19
23.4024  6.84946e+19
23.5198  6.82941e+19
23.6371  6.84964e+19
23.7544  6.88678e+19
23.8717  6.91347e+19
23.989  6.90318e+19
24.1063  6.82521e+19
24.2236  6.66132e+19
24.3409  6.39935e+19
24.4582  6.0383e+19
24.5755  5.59347e+19
24.6928  5.09107e+19
24.8101  4.56952e+19
24.9274  4.07203e+19
25.0447  3.64109e+19
25.162  3.31147e+19
25.2793  3.10716e+19
25.3966  3.03424e+19
25.5139  3.08583e+19
25.6312  3.23977e+19
25.7485  3.4649e+19
25.8658  3.72309e+19
25.9832  3.97495e+19
26.1005  4.18931e+19
26.2178  4.33912e+19
26.3351  4.40807e+19
26.4524  4.39501e+19
26.5697  4.31177e+19
26.687  4.18182e+19
26.8043  4.03873e+19
26.9216  3.92306e+19
27.0389  3.87094e+19
27.1562  3.91697e+19
27.2735  4.07768e+19
27.3908  4.35149e+19
27.5081  4.71811e+19
27.6254  5.13543e+19
27.7427  5.55469e+19
27.86  5.91434e+19
27.9773  6.16525e+19
28.0946  6.26794e+19
28.212  6.20166e+19
28.3293  5.97308e+19
28.4466  5.60146e+19
28.5639  5.12636e+19
28.6812  4.59827e+19
28.7985  4.06331e+19
28.9158  3.565e+19
29.0331  3.13879e+19
29.1504  2.80391e+19
29.2677  2.57224e+19
29.385  2.43817e+19
29.5023  2.39028e+19
29.6196  2.40577e+19
29.7369  2.46203e+19
29.8542  2.53109e+19
29.9715  2.58466e+19
30.0888  2.60254e+19
30.2061  2.56596e+19
30.3234  2.46804e+19
30.4407  2.31018e+19
30.558  2.10126e+19
30.6754  1.85928e+19
30.7927  1.60104e+19
30.91  1.34917e+19
31.0273  1.11972e+19
31.1446  9.25397e+18
31.2619  7.70265e+18
31.3792  6.56317e+18
31.4965  5.78467e+18
31.6138  5.30829e+18
31.7311  5.06864e+18
31.8484  4.99917e+18
31.9657  5.03968e+18
32.083  5.13162e+18
32.2003  5.22772e+18
32.3176  5.29463e+18
32.4349  5.28152e+18
32.5522  5.18867e+18
32.6695  4.99838e+18
32.7868  4.73486e+18
32.9042  4.4274e+18
33.0215  4.12167e+18
33.1388  3.8642e+18
33.2561  3.67912e+18
33.3734  3.58402e+18
33.4907  3.57359e+18
33.608  3.65505e+18
33.7253  3.82961e+18
33.8426  4.09324e+18
33.9599  4.4879e+18
34.0772  5.02469e+18
34.1945  5.72792e+18
34.3118  6.58495e+18
34.4291  7.55014e+18
34.5464  8.53496e+18
34.6637  9.43088e+18
34.781  1.01254e+19
34.8983  1.05268e+19
35.0156  1.0578e+19
35.1329  1.02751e+19
35.2503  9.65777e+18
35.3676  8.79053e+18
35.4849  7.74802e+18
35.6022  6.58909e+18
35.7195  5.36395e+18
35.8368  4.12976e+18
35.9541  2.96235e+18
36.0714  1.99572e+18
36.1887  1.42466e+18
36.306  1.50369e+18
36.4233  2.49421e+18
36.5406  4.60386e+18
36.6579  7.89448e+18
36.7752  1.22313e+19
36.8925  1.72368e+19
37.0098  2.23528e+19
37.1271  2.6861e+19
37.2444  3.0119e+19
37.3617  3.16047e+19
37.479  3.11105e+19
37.5964  2.88399e+19
37.7137  2.53962e+19
37.831  2.16326e+19
37.9483  1.85634e+19
38.0656  1.70959e+19
38.1829  1.78736e+19
38.3002  2.10742e+19
38.4175  2.6386e+19
38.5348  3.30797e+19
38.6521  4.00695e+19
38.7694  4.62175e+19
38.8867  5.05049e+19
39.004  5.22097e+19
39.1213  5.10798e+19
39.2386  4.72908e+19
39.3559  4.14326e+19
39.4732  3.43229e+19
39.5905  2.69031e+19
39.7078  2.00011e+19
39.8251  1.42653e+19
39.9425  1.00565e+19
40.0598  7.47542e+18
40.1771  6.39606e+18
40.2944  6.5205e+18
40.4117  7.46576e+18
40.529  8.85639e+18
40.6463  1.03528e+19
40.7636  1.16922e+19
40.8809  1.27363e+19
40.9982  1.3402e+19
41.1155  1.37111e+19
41.2328  1.37545e+19
41.3501  1.36594e+19
41.4674  1.35305e+19
41.5847  1.34431e+19
41.702  1.3423e+19
41.8193  1.3379e+19
41.9366  1.31967e+19
42.0539  1.2699e+19
42.1712  1.17431e+19
42.2885  1.02734e+19
42.4059  8.36959e+18
42.5232  6.24544e+18
42.6405  4.21659e+18
42.7578  2.66197e+18
42.8751  1.9074e+18
42.9924  2.13662e+18
43.1097  3.34556e+18
43.227  5.29099e+18
43.3443  7.58208e+18
43.4616  9.72549e+18
43.5789  1.12803e+19
43.6962  1.19257e+19
43.8135  1.15911e+19
43.9308  1.0407e+19
44.0481  8.71708e+18
44.1654  6.94643e+18
44.2827  5.5004e+18
44.4  4.66023e+18
44.5173  4.51932e+18
44.6347  4.988e+18
44.752  5.84968e+18
44.8693  6.81311e+18
44.9866  7.63564e+18
45.1039  8.17237e+18
45.2212  8.40063e+18
45.3385  8.40421e+18
45.4558  8.30672e+18
45.5731  8.23083e+18
45.6904  8.21783e+18
45.8077  8.23164e+18
45.925  8.17306e+18
46.0423  7.91886e+18
46.1596  7.39788e+18
46.2769  6.60706e+18
46.3942  5.68e+18
46.5115  4.81085e+18
46.6288  4.2433e+18
46.7461  4.18019e+18
46.8634  4.72207e+18
46.9808  5.83634e+18
47.0981  7.34287e+18
47.2154  8.97533e+18
47.3327  1.04103e+19
47.45  1.14008e+19
47.5673  1.17634e+19
47.6846  1.14519e+19
47.8019  1.05946e+19
47.9192  9.39445e+18
48.0365  8.10557e+18
48.1538  6.98777e+18
48.2711  6.22055e+18
48.3884  5.91596e+18
48.5057  6.05621e+18
48.623  6.54801e+18
48.7403  7.21415e+18
48.8576  7.87007e+18
48.9749  8.34833e+18
49.0922  8.52807e+18
49.2095  8.38338e+18
49.3269  7.9862e+18
49.4442  7.48298e+18
49.5615  7.09565e+18
49.6788  7.05322e+18
49.7961  7.55404e+18
49.9134  8.69442e+18
50.0307  1.04453e+19
50.148  1.26284e+19
50.2653  1.49426e+19
50.3826  1.70111e+19
50.4999  1.84296e+19
50.6172  1.89128e+19
50.7345  1.83051e+19
50.8518  1.66391e+19
