#S 1 spectral density
#N 2
#UFWHM 12.0824
#L  abscissas [um]  spectral density
-58.5938  2.84329e+19
-58.4764  2.8222e+19
-58.3591  2.73524e+19
-58.2418  2.60953e+19
-58.1245  2.45831e+19
-58.0072  2.28215e+19
-57.8899  2.07602e+19
-57.7726  1.83025e+19
-57.6553  1.54152e+19
-57.538  1.218e+19
-57.4207  8.81543e+18
-57.3034  5.62872e+18
-57.1861  2.99504e+18
-57.0688  1.2729e+18
-56.9515  7.39968e+17
-56.8342  1.57233e+18
-56.7169  3.83675e+18
-56.5996  7.50139e+18
-56.4823  1.24726e+19
-56.365  1.86154e+19
-56.2477  2.56856e+19
-56.1303  3.34351e+19
-56.013  4.14703e+19
-55.8957  4.93125e+19
-55.7784  5.63281e+19
-55.6611  6.18946e+19
-55.5438  6.54168e+19
-55.4265  6.64403e+19
-55.3092  6.47519e+19
-55.1919  6.04177e+19
-55.0746  5.38721e+19
-54.9573  4.57406e+19
-54.84  3.68854e+19
-54.7227  2.81152e+19
-54.6054  2.02573e+19
-54.4881  1.38591e+19
-54.3708  9.21977e+18
-54.2535  6.37259e+18
-54.1362  5.12749e+18
-54.0189  5.12775e+18
-53.9016  5.95617e+18
-53.7842  7.20448e+18
-53.6669  8.50186e+18
-53.5496  9.61909e+18
-53.4323  1.04085e+19
-53.315  1.08541e+19
-53.1977  1.10182e+19
-53.0804  1.09951e+19
-52.9631  1.09578e+19
-52.8458  1.10426e+19
-52.7285  1.13479e+19
-52.6112  1.1941e+19
-52.4939  1.28082e+19
-52.3766  1.38609e+19
-52.2593  1.49222e+19
-52.142  1.58169e+19
-52.0247  1.63532e+19
-51.9074  1.63834e+19
-51.7901  1.58403e+19
-51.6728  1.47233e+19
-51.5555  1.31401e+19
-51.4381  1.12634e+19
-51.3208  9.26896e+18
-51.2035  7.37062e+18
-51.0862  5.71766e+18
-50.9689  4.45134e+18
-50.8516  3.64291e+18
-50.7343  3.30803e+18
-50.617  3.45076e+18
-50.4997  4.03501e+18
-50.3824  4.99077e+18
-50.2651  6.23605e+18
-50.1478  7.6367e+18
-50.0305  9.0473e+18
-49.9132  1.03015e+19
-49.7959  1.12398e+19
-49.6786  1.17475e+19
-49.5613  1.17388e+19
-49.444  1.12003e+19
-49.3267  1.02154e+19
-49.2094  8.92884e+18
-49.092  7.51215e+18
-48.9747  6.17947e+18
-48.8574  5.11196e+18
-48.7401  4.47024e+18
-48.6228  4.36837e+18
-48.5055  4.88688e+18
-48.3882  6.03385e+18
-48.2709  7.8072e+18
-48.1536  1.01456e+19
-48.0363  1.29625e+19
-47.919  1.61196e+19
-47.8017  1.94905e+19
-47.6844  2.2895e+19
-47.5671  2.6172e+19
-47.4498  2.91628e+19
-47.3325  3.17351e+19
-47.2152  3.37414e+19
-47.0979  3.50682e+19
-46.9806  3.55893e+19
-46.8633  3.51797e+19
-46.7459  3.36554e+19
-46.6286  3.09734e+19
-46.5113  2.71266e+19
-46.394  2.2306e+19
-46.2767  1.69058e+19
-46.1594  1.15405e+19
-46.0421  7.02425e+18
-45.9248  4.22403e+18
-45.8075  3.93603e+18
-45.6902  6.69836e+18
-45.5729  1.26372e+19
-45.4556  2.1408e+19
-45.3383  3.21316e+19
-45.221  4.36116e+19
-45.1037  5.43838e+19
-44.9864  6.30722e+19
-44.8691  6.85922e+19
-44.7518  7.02843e+19
-44.6345  6.80573e+19
-44.5172  6.24415e+19
-44.3998  5.42874e+19
-44.2825  4.47391e+19
-44.1652  3.49219e+19
-44.0479  2.58458e+19
-43.9306  1.82227e+19
-43.8133  1.242e+19
-43.696  8.51534e+18
-43.5787  6.30723e+18
-43.4614  5.44958e+18
-43.3441  5.54019e+18
-43.2268  6.18011e+18
-43.1095  7.00625e+18
-42.9922  7.7424e+18
-42.8749  8.17182e+18
-42.7576  8.16361e+18
-42.6403  7.66118e+18
-42.523  6.71588e+18
-42.4057  5.45342e+18
-42.2884  4.10178e+18
-42.171  2.93432e+18
-42.0537  2.22549e+18
-41.9364  2.2094e+18
-41.8191  3.0339e+18
-41.7018  4.69477e+18
-41.5845  7.09125e+18
-41.4672  9.99176e+18
-41.3499  1.31159e+19
-41.2326  1.61636e+19
-41.1153  1.88993e+19
-40.998  2.11425e+19
-40.8807  2.28001e+19
-40.7634  2.38094e+19
-40.6461  2.42392e+19
-40.5288  2.41041e+19
-40.4115  2.35013e+19
-40.2942  2.25506e+19
-40.1769  2.13626e+19
-40.0596  2.01004e+19
-39.9423  1.89664e+19
-39.825  1.8155e+19
-39.7076  1.78097e+19
-39.5903  1.80292e+19
-39.473  1.87546e+19
-39.3557  1.98487e+19
-39.2384  2.10589e+19
-39.1211  2.2075e+19
-39.0038  2.263e+19
-38.8865  2.25386e+19
-38.7692  2.17461e+19
-38.6519  2.03482e+19
-38.5346  1.85373e+19
-38.4173  1.6563e+19
-38.3  1.46292e+19
-38.1827  1.28699e+19
-38.0654  1.12829e+19
-37.9481  9.78721e+18
-37.8308  8.26981e+18
-37.7135  6.66495e+18
-37.5962  5.05555e+18
-37.4789  3.71539e+18
-37.3615  3.10605e+18
-37.2442  3.79856e+18
-37.1269  6.36285e+18
-37.0096  1.12057e+19
-36.8923  1.8458e+19
-36.775  2.7878e+19
-36.6577  3.88522e+19
-36.5404  5.04808e+19
-36.4231  6.16648e+19
-36.3058  7.1352e+19
-36.1885  7.86592e+19
-36.0712  8.30449e+19
-35.9539  8.43007e+19
-35.8366  8.26545e+19
-35.7193  7.8638e+19
-35.602  7.28354e+19
-35.4847  6.60502e+19
-35.3674  5.89068e+19
-35.2501  5.19099e+19
-35.1328  4.53944e+19
-35.0154  3.95626e+19
-34.8981  3.45119e+19
-34.7808  3.03088e+19
-34.6635  2.69816e+19
-34.5462  2.46239e+19
-34.4289  2.33766e+19
-34.3116  2.33249e+19
-34.1943  2.45703e+19
-34.077  2.7115e+19
-33.9597  3.08898e+19
-33.8424  3.56946e+19
-33.7251  4.12846e+19
-33.6078  4.72525e+19
-33.4905  5.319e+19
-33.3732  5.86542e+19
-33.2559  6.32139e+19
-33.1386  6.64917e+19
-33.0213  6.81932e+19
-32.904  6.81533e+19
-32.7867  6.63774e+19
-32.6693  6.29666e+19
-32.552  5.8218e+19
-32.4347  5.24348e+19
-32.3174  4.60906e+19
-32.2001  3.95737e+19
-32.0828  3.32413e+19
-31.9655  2.73588e+19
-31.8482  2.20933e+19
-31.7309  1.74998e+19
-31.6136  1.3544e+19
-31.4963  1.01761e+19
-31.379  7.35652e+18
-31.2617  5.09794e+18
-31.1444  3.46145e+18
-31.0271  2.5681e+18
-30.9098  2.59919e+18
-30.7925  3.71342e+18
-30.6752  6.068e+18
-30.5579  9.73829e+18
-30.4406  1.47234e+19
-30.3232  2.09397e+19
-30.2059  2.81912e+19
-30.0886  3.62055e+19
-29.9713  4.46687e+19
-29.854  5.32294e+19
-29.7367  6.14631e+19
-29.6194  6.90685e+19
-29.5021  7.57535e+19
-29.3848  8.13177e+19
-29.2675  8.56995e+19
-29.1502  8.88903e+19
-29.0329  9.10671e+19
-28.9156  9.24346e+19
-28.7983  9.32119e+19
-28.681  9.36838e+19
-28.5637  9.39787e+19
-28.4464  9.42599e+19
-28.3291  9.44947e+19
-28.2118  9.45711e+19
-28.0944  9.43986e+19
-27.9771  9.37823e+19
-27.8598  9.25572e+19
-27.7425  9.06561e+19
-27.6252  8.79195e+19
-27.5079  8.44647e+19
-27.3906  8.03775e+19
-27.2733  7.59049e+19
-27.156  7.13649e+19
-27.0387  6.71466e+19
-26.9214  6.37746e+19
-26.8041  6.17788e+19
-26.6868  6.16841e+19
-26.5695  6.39178e+19
-26.4522  6.8798e+19
-26.3349  7.65105e+19
-26.2176  8.68662e+19
-26.1003  9.96136e+19
-25.983  1.14148e+20
-25.8657  1.29762e+20
-25.7483  1.45758e+20
-25.631  1.61312e+20
-25.5137  1.75906e+20
-25.3964  1.89004e+20
-25.2791  2.00336e+20
-25.1618  2.09786e+20
-25.0445  2.17422e+20
-24.9272  2.23253e+20
-24.8099  2.27466e+20
-24.6926  2.30139e+20
-24.5753  2.31338e+20
-24.458  2.31008e+20
-24.3407  2.29131e+20
-24.2234  2.25568e+20
-24.1061  2.20262e+20
-23.9888  2.13121e+20
-23.8715  2.04173e+20
-23.7542  1.93499e+20
-23.6369  1.81451e+20
-23.5196  1.68513e+20
-23.4023  1.5521e+20
-23.2849  1.42314e+20
-23.1676  1.30619e+20
-23.0503  1.20813e+20
-22.933  1.1362e+20
-22.8157  1.09353e+20
-22.6984  1.08212e+20
-22.5811  1.10135e+20
-22.4638  1.14777e+20
-22.3465  1.21803e+20
-22.2292  1.30688e+20
-22.1119  1.41046e+20
-21.9946  1.52512e+20
-21.8773  1.64953e+20
-21.76  1.78296e+20
-21.6427  1.92443e+20
-21.5254  2.07386e+20
-21.4081  2.23002e+20
-21.2908  2.39123e+20
-21.1735  2.55473e+20
-21.0561  2.71651e+20
-20.9388  2.87174e+20
-20.8215  3.01526e+20
-20.7042  3.14322e+20
-20.5869  3.25116e+20
-20.4696  3.33501e+20
-20.3523  3.39213e+20
-20.235  3.42029e+20
-20.1177  3.41965e+20
-20.0004  3.39094e+20
-19.8831  3.33483e+20
-19.7658  3.25808e+20
-19.6485  3.1663e+20
-19.5312  3.06838e+20
-19.4139  2.97365e+20
-19.2966  2.89299e+20
-19.1793  2.83682e+20
-19.062  2.81506e+20
-18.9447  2.83637e+20
-18.8274  2.90835e+20
-18.71  3.03552e+20
-18.5927  3.2219e+20
-18.4754  3.4688e+20
-18.3581  3.7739e+20
-18.2408  4.13451e+20
-18.1235  4.54255e+20
-18.0062  4.98809e+20
-17.8889  5.45741e+20
-17.7716  5.93341e+20
-17.6543  6.39995e+20
-17.537  6.83736e+20
-17.4197  7.23026e+20
-17.3024  7.56498e+20
-17.1851  7.83265e+20
-17.0678  8.03014e+20
-16.9505  8.15906e+20
-16.8332  8.22628e+20
-16.7159  8.24381e+20
-16.5986  8.22535e+20
-16.4813  8.18652e+20
-16.364  8.143e+20
-16.2466  8.10869e+20
-16.1293  8.09139e+20
-16.012  8.10171e+20
-15.8947  8.14063e+20
-15.7774  8.2083e+20
-15.6601  8.30049e+20
-15.5428  8.41092e+20
-15.4255  8.52922e+20
-15.3082  8.64758e+20
-15.1909  8.75538e+20
-15.0736  8.84548e+20
-14.9563  8.91051e+20
-14.839  8.94921e+20
-14.7217  8.95828e+20
-14.6044  8.94239e+20
-14.4871  8.9067e+20
-14.3698  8.85941e+20
-14.2525  8.8091e+20
-14.1352  8.76684e+20
-14.0178  8.74405e+20
-13.9005  8.75174e+20
-13.7832  8.80079e+20
-13.6659  8.90121e+20
-13.5486  9.06347e+20
-13.4313  9.29568e+20
-13.314  9.60455e+20
-13.1967  9.99476e+20
-13.0794  1.04715e+21
-12.9621  1.1034e+21
-12.8448  1.16818e+21
-12.7275  1.24099e+21
-12.6102  1.32139e+21
-12.4929  1.40851e+21
-12.3756  1.50136e+21
-12.2583  1.59907e+21
-12.141  1.70056e+21
-12.0237  1.8048e+21
-11.9064  1.91063e+21
-11.7891  2.0171e+21
-11.6718  2.12332e+21
-11.5544  2.22822e+21
-11.4371  2.33071e+21
-11.3198  2.42981e+21
-11.2025  2.52436e+21
-11.0852  2.61344e+21
-10.9679  2.6961e+21
-10.8506  2.77166e+21
-10.7333  2.83944e+21
-10.616  2.8995e+21
-10.4987  2.95237e+21
-10.3814  2.99871e+21
-10.2641  3.03988e+21
-10.1468  3.07821e+21
-10.0295  3.11584e+21
-9.91217  3.15531e+21
-9.79487  3.19981e+21
-9.67756  3.2519e+21
-9.56026  3.31415e+21
-9.44295  3.38856e+21
-9.32565  3.47705e+21
-9.20834  3.58027e+21
-9.09104  3.69864e+21
-8.97373  3.83183e+21
-8.85643  3.97923e+21
-8.73913  4.13931e+21
-8.62182  4.31073e+21
-8.50452  4.49175e+21
-8.38721  4.68094e+21
-8.26991  4.87614e+21
-8.1526  5.07617e+21
-8.03529  5.27911e+21
-7.91799  5.48383e+21
-7.80069  5.68912e+21
-7.68338  5.89368e+21
-7.56608  6.09677e+21
-7.44877  6.2977e+21
-7.33146  6.4958e+21
-7.21416  6.69053e+21
-7.09685  6.88165e+21
-6.97955  7.06912e+21
-6.86224  7.25292e+21
-6.74494  7.43367e+21
-6.62763  7.61122e+21
-6.51033  7.7865e+21
-6.39302  7.96046e+21
-6.27572  8.13408e+21
-6.15842  8.30858e+21
-6.04111  8.48526e+21
-5.92381  8.66552e+21
-5.8065  8.85072e+21
-5.68919  9.04155e+21
-5.57189  9.23894e+21
-5.45458  9.44327e+21
-5.33728  9.65443e+21
-5.21997  9.87156e+21
-5.10267  1.00939e+22
-4.98536  1.03197e+22
-4.86806  1.05469e+22
-4.75075  1.07735e+22
-4.63345  1.09975e+22
-4.51614  1.12169e+22
-4.39884  1.14295e+22
-4.28154  1.16348e+22
-4.16423  1.18323e+22
-4.04692  1.20218e+22
-3.92962  1.22048e+22
-3.81231  1.23831e+22
-3.69501  1.25588e+22
-3.5777  1.27346e+22
-3.4604  1.29132e+22
-3.34309  1.30965e+22
-3.22579  1.32863e+22
-3.10849  1.3484e+22
-2.99118  1.36892e+22
-2.87387  1.39013e+22
-2.75657  1.41187e+22
-2.63926  1.43388e+22
-2.52196  1.45587e+22
-2.40465  1.47752e+22
-2.28735  1.49846e+22
-2.17005  1.51841e+22
-2.05274  1.53713e+22
-1.93544  1.55436e+22
-1.81813  1.57004e+22
-1.70083  1.58409e+22
-1.58352  1.59656e+22
-1.46622  1.60755e+22
-1.34891  1.61718e+22
-1.2316  1.62561e+22
-1.1143  1.63299e+22
-0.996995  1.63948e+22
-0.87969  1.64519e+22
-0.762385  1.65013e+22
-0.64508  1.65442e+22
-0.527775  1.65803e+22
-0.41047  1.66096e+22
-0.293165  1.66318e+22
-0.17586  1.66465e+22
-0.058555  1.66539e+22
0.05875  1.66535e+22
0.176055  1.66454e+22
0.29336  1.66297e+22
0.410665  1.66068e+22
0.52797  1.65766e+22
0.645275  1.65397e+22
0.76258  1.6496e+22
0.879885  1.64457e+22
0.99719  1.6388e+22
1.1145  1.63224e+22
1.2318  1.62476e+22
1.3491  1.61624e+22
1.46641  1.60651e+22
1.58371  1.59541e+22
1.70102  1.58282e+22
1.81832  1.56863e+22
1.93563  1.55282e+22
2.05294  1.53543e+22
2.17024  1.5166e+22
2.28754  1.49651e+22
2.40485  1.4754e+22
2.52216  1.45363e+22
2.63946  1.4315e+22
2.75677  1.40933e+22
2.87407  1.38748e+22
2.99137  1.36614e+22
3.10868  1.3455e+22
3.22599  1.32562e+22
3.34329  1.30655e+22
3.4606  1.28814e+22
3.5779  1.27021e+22
3.69521  1.25256e+22
3.81251  1.23494e+22
3.92982  1.21704e+22
4.04712  1.19868e+22
4.16443  1.17968e+22
4.28173  1.1599e+22
4.39903  1.13933e+22
4.51634  1.11802e+22
4.63364  1.09607e+22
4.75095  1.07363e+22
4.86825  1.05094e+22
4.98556  1.02819e+22
5.10286  1.00562e+22
5.22017  9.83364e+21
5.33748  9.61658e+21
5.45478  9.40557e+21
5.57209  9.20159e+21
5.68939  9.00442e+21
5.8067  8.81388e+21
5.924  8.62924e+21
6.0413  8.44961e+21
6.15861  8.27349e+21
6.27591  8.09944e+21
6.39322  7.92658e+21
6.51052  7.75315e+21
6.62783  7.57822e+21
6.74514  7.40099e+21
6.86244  7.22086e+21
6.97975  7.03719e+21
7.09705  6.84995e+21
7.21436  6.65902e+21
7.33166  6.46426e+21
7.44897  6.26638e+21
7.56627  6.06572e+21
7.68358  5.86272e+21
7.80088  5.65834e+21
7.91819  5.45329e+21
8.03549  5.24904e+21
8.1528  5.04662e+21
8.2701  4.84725e+21
8.38741  4.6527e+21
8.50471  4.46441e+21
8.62202  4.2843e+21
8.73932  4.11371e+21
8.85662  3.9546e+21
8.97393  3.8082e+21
9.09123  3.67589e+21
9.20854  3.55836e+21
9.32584  3.45591e+21
9.44315  3.36811e+21
9.56045  3.29401e+21
9.67776  3.23228e+21
9.79506  3.18038e+21
9.91237  3.13608e+21
10.0297  3.09667e+21
10.147  3.05919e+21
10.2643  3.02102e+21
10.3816  2.97973e+21
10.4989  2.93349e+21
10.6162  2.88081e+21
10.7335  2.82087e+21
10.8508  2.75331e+21
10.9681  2.67808e+21
11.0854  2.5959e+21
11.2027  2.50728e+21
11.32  2.41318e+21
11.4373  2.3146e+21
11.5546  2.21262e+21
11.6719  2.10823e+21
11.7893  2.00263e+21
11.9066  1.8967e+21
12.0239  1.79128e+21
12.1412  1.68776e+21
12.2585  1.58687e+21
12.3758  1.48976e+21
12.4931  1.39747e+21
12.6104  1.31098e+21
12.7277  1.23124e+21
12.845  1.159e+21
12.9623  1.09476e+21
13.0796  1.03911e+21
13.1969  9.91945e+20
13.3142  9.53391e+20
13.4315  9.22922e+20
13.5488  9.00068e+20
13.6661  8.84185e+20
13.7834  8.74364e+20
13.9007  8.69707e+20
14.018  8.69148e+20
14.1354  8.71634e+20
14.2527  8.76055e+20
14.37  8.8131e+20
14.4873  8.8626e+20
14.6046  8.90022e+20
14.7219  8.91821e+20
14.8392  8.91158e+20
14.9565  8.87608e+20
15.0738  8.81336e+20
15.1911  8.72635e+20
15.3084  8.62089e+20
15.4257  8.50466e+20
15.543  8.38805e+20
15.6603  8.28015e+20
15.7776  8.19019e+20
15.8949  8.12429e+20
16.0122  8.08737e+20
16.1295  8.07861e+20
16.2468  8.09554e+20
16.3641  8.1314e+20
16.4815  8.17523e+20
16.5988  8.21389e+20
16.7161  8.23127e+20
16.8334  8.21389e+20
16.9507  8.14517e+20
17.068  8.01566e+20
17.1853  7.81735e+20
17.3026  7.54903e+20
17.4199  7.21326e+20
17.5372  6.81921e+20
17.6545  6.3811e+20
17.7718  5.9155e+20
17.8891  5.43891e+20
18.0064  4.97081e+20
18.1237  4.52632e+20
18.241  4.11894e+20
18.3583  3.75971e+20
18.4756  3.4558e+20
18.5929  3.21065e+20
18.7102  3.02531e+20
18.8275  2.89963e+20
18.9449  2.82934e+20
19.0622  2.8091e+20
19.1795  2.83224e+20
19.2968  2.88885e+20
19.4141  2.9703e+20
19.5314  3.06511e+20
19.6487  3.16259e+20
19.766  3.2543e+20
19.8833  3.32997e+20
20.0006  3.38497e+20
20.1179  3.41345e+20
20.2352  3.41402e+20
20.3525  3.38508e+20
20.4698  3.32743e+20
20.5871  3.24328e+20
20.7044  3.13608e+20
20.8217  3.00896e+20
20.939  2.8661e+20
21.0563  2.7119e+20
21.1736  2.55102e+20
21.291  2.38881e+20
21.4083  2.22859e+20
21.5256  2.07279e+20
21.6429  1.92436e+20
21.7602  1.78351e+20
21.8775  1.65076e+20
21.9948  1.52653e+20
22.1121  1.41177e+20
22.2294  1.30826e+20
22.3467  1.2199e+20
22.464  1.15008e+20
22.5813  1.10393e+20
22.6986  1.08568e+20
22.8159  1.09801e+20
22.9332  1.14172e+20
23.0505  1.21505e+20
23.1678  1.31389e+20
23.2851  1.43192e+20
23.4024  1.5612e+20
23.5198  1.69483e+20
23.6371  1.82451e+20
23.7544  1.94479e+20
23.8717  2.05104e+20
23.989  2.14019e+20
24.1063  2.21129e+20
24.2236  2.26368e+20
24.3409  2.2984e+20
24.4582  2.31714e+20
24.5755  2.31942e+20
24.6928  2.30729e+20
24.8101  2.28016e+20
24.9274  2.23781e+20
25.0447  2.17882e+20
25.162  2.10161e+20
25.2793  2.00608e+20
25.3966  1.89136e+20
25.5139  1.75929e+20
25.6312  1.61228e+20
25.7485  1.45506e+20
25.8658  1.29445e+20
25.9832  1.13692e+20
26.1005  9.91423e+19
26.2178  8.6399e+19
26.3351  7.60219e+19
26.4524  6.83657e+19
26.5697  6.3534e+19
26.687  6.13615e+19
26.8043  6.15427e+19
26.9216  6.36111e+19
27.0389  6.70144e+19
27.1562  7.12509e+19
27.2735  7.58072e+19
27.3908  8.02741e+19
27.5081  8.43514e+19
27.6254  8.77848e+19
27.7427  9.05026e+19
27.86  9.2426e+19
27.9773  9.36377e+19
28.0946  9.4292e+19
28.212  9.44786e+19
28.3293  9.44467e+19
28.4466  9.42637e+19
28.5639  9.40498e+19
28.6812  9.38118e+19
28.7985  9.3404e+19
28.9158  9.26659e+19
29.0331  9.13291e+19
29.1504  8.91747e+19
29.2677  8.59746e+19
29.385  8.1597e+19
29.5023  7.60023e+19
29.6196  6.92626e+19
29.7369  6.16069e+19
29.8542  5.33234e+19
29.9715  4.47498e+19
30.0888  3.62424e+19
30.2061  2.81913e+19
30.3234  2.09171e+19
30.4407  1.4698e+19
30.558  9.71444e+18
30.6754  6.05022e+18
30.7927  3.71283e+18
30.91  2.61109e+18
31.0273  2.60278e+18
31.1446  3.50804e+18
31.2619  5.16557e+18
31.3792  7.44722e+18
31.4965  1.02888e+19
31.6138  1.3689e+19
31.7311  1.76776e+19
31.8484  2.23097e+19
31.9657  2.76166e+19
32.083  3.35283e+19
32.2003  3.98828e+19
32.3176  4.64232e+19
32.4349  5.27813e+19
32.5522  5.85404e+19
32.6695  6.32645e+19
32.7868  6.66373e+19
32.9042  6.83822e+19
33.0215  6.83541e+19
33.1388  6.66205e+19
33.2561  6.3293e+19
33.3734  5.87202e+19
33.4907  5.32179e+19
33.608  4.7252e+19
33.7253  4.12796e+19
33.8426  3.56807e+19
33.9599  3.08787e+19
34.0772  2.71048e+19
34.1945  2.45705e+19
34.3118  2.3341e+19
34.4291  2.34112e+19
34.5464  2.46882e+19
34.6637  2.70425e+19
34.781  3.03922e+19
34.8983  3.46259e+19
35.0156  3.97011e+19
35.1329  4.55521e+19
35.2503  5.20741e+19
35.3676  5.90969e+19
35.4849  6.62402e+19
35.6022  7.30042e+19
35.7195  7.87266e+19
35.8368  8.27303e+19
35.9541  8.42656e+19
36.0714  8.29366e+19
36.1887  7.84786e+19
36.306  7.10945e+19
36.4233  6.13682e+19
36.5406  5.01721e+19
36.6579  3.8575e+19
36.7752  2.76402e+19
36.8925  1.82705e+19
37.0098  1.10897e+19
37.1271  6.30349e+18
37.2444  3.79097e+18
37.3617  3.12445e+18
37.479  3.74016e+18
37.5964  5.07297e+18
37.7137  6.66272e+18
37.831  8.24196e+18
37.9483  9.7441e+18
38.0656  1.12182e+19
38.1829  1.28014e+19
38.3002  1.45714e+19
38.4175  1.6507e+19
38.5348  1.84976e+19
38.6521  2.03161e+19
38.7694  2.1728e+19
38.8867  2.2526e+19
39.004  2.26232e+19
39.1213  2.20699e+19
39.2386  2.10527e+19
39.3559  1.98645e+19
39.4732  1.87885e+19
39.5905  1.80887e+19
39.7078  1.79039e+19
39.8251  1.8277e+19
39.9425  1.9121e+19
40.0598  2.02664e+19
40.1771  2.15411e+19
40.2944  2.27373e+19
40.4117  2.36903e+19
40.529  2.42656e+19
40.6463  2.43736e+19
40.7636  2.39303e+19
40.8809  2.286e+19
40.9982  2.11783e+19
41.1155  1.88998e+19
41.2328  1.61385e+19
41.3501  1.30592e+19
41.4674  9.92464e+18
41.5847  7.027e+18
41.702  4.63972e+18
41.8193  2.9957e+18
41.9366  2.20161e+18
42.0539  2.2417e+18
42.1712  2.96918e+18
42.2885  4.14926e+18
42.4059  5.49894e+18
42.5232  6.7515e+18
42.6405  7.67438e+18
42.7578  8.15996e+18
42.8751  8.15176e+18
42.9924  7.70615e+18
43.1097  6.96268e+18
43.227  6.14321e+18
43.3443  5.52486e+18
43.4616  5.46172e+18
43.5789  6.35571e+18
43.6962  8.61429e+18
43.8135  1.25744e+19
43.9308  1.84195e+19
44.0481  2.60902e+19
44.1654  3.51658e+19
44.2827  4.49668e+19
44.4  5.44912e+19
44.5173  6.25848e+19
44.6347  6.81043e+19
44.752  7.01834e+19
44.8693  6.83603e+19
44.9866  6.27674e+19
45.1039  5.39744e+19
45.2212  4.31755e+19
45.3385  3.17217e+19
45.4558  2.10239e+19
45.5731  1.23478e+19
45.6904  6.51652e+18
45.8077  3.87073e+18
45.925  4.2636e+18
46.0423  7.14583e+18
46.1596  1.17067e+19
46.2769  1.70875e+19
46.3942  2.24782e+19
46.5115  2.72712e+19
46.6288  3.10751e+19
46.7461  3.37107e+19
46.8634  3.51747e+19
46.9808  3.55613e+19
47.0981  3.49946e+19
47.2154  3.36431e+19
47.3327  3.1596e+19
47.45  2.90312e+19
47.5673  2.60395e+19
47.6846  2.27495e+19
47.8019  1.93497e+19
47.9192  1.59983e+19
48.0365  1.2851e+19
48.1538  1.00578e+19
48.2711  7.72755e+18
48.3884  5.96923e+18
48.5057  4.82563e+18
48.623  4.32108e+18
48.7403  4.4211e+18
48.8576  5.07562e+18
48.9749  6.1519e+18
49.0922  7.49874e+18
49.2095  8.92641e+18
49.3269  1.02264e+19
49.4442  1.1209e+19
49.5615  1.17431e+19
49.6788  1.17535e+19
49.7961  1.12345e+19
49.9134  1.02823e+19
50.0307  9.0133e+18
50.148  7.58546e+18
50.2653  6.17839e+18
50.3826  4.94509e+18
50.4999  3.99764e+18
50.6172  3.43574e+18
50.7345  3.32017e+18
50.8518  3.68107e+18
50.9691  4.5199e+18
