#S 1 spectral density
#N 2
#UFWHM 12.0824
#L  abscissas [um]  spectral density
-58.5938  1.21319e+19
-58.4764  1.45068e+19
-58.3591  1.68607e+19
-58.2418  1.8929e+19
-58.1245  2.03504e+19
-58.0072  2.0818e+19
-57.8899  2.00903e+19
-57.7726  1.81223e+19
-57.6553  1.51613e+19
-57.538  1.16762e+19
-57.4207  8.32577e+18
-57.3034  5.86957e+18
-57.1861  4.95729e+18
-57.0688  6.02633e+18
-56.9515  9.19118e+18
-56.8342  1.42272e+19
-56.7169  2.06245e+19
-56.5996  2.76277e+19
-56.4823  3.4487e+19
-56.365  4.04936e+19
-56.2477  4.50598e+19
-56.1303  4.78987e+19
-56.013  4.89291e+19
-55.8957  4.82246e+19
-55.7784  4.60075e+19
-55.6611  4.25652e+19
-55.5438  3.82118e+19
-55.4265  3.33149e+19
-55.3092  2.81715e+19
-55.1919  2.30861e+19
-55.0746  1.83626e+19
-54.9573  1.42142e+19
-54.84  1.08442e+19
-54.7227  8.29212e+18
-54.6054  6.56383e+18
-54.4881  5.52134e+18
-54.3708  4.97557e+18
-54.2535  4.71803e+18
-54.1362  4.56705e+18
-54.0189  4.42232e+18
-53.9016  4.27129e+18
-53.7842  4.16697e+18
-53.6669  4.2304e+18
-53.5496  4.56772e+18
-53.4323  5.23539e+18
-53.315  6.22641e+18
-53.1977  7.44482e+18
-53.0804  8.71179e+18
-52.9631  9.86364e+18
-52.8458  1.07254e+19
-52.7285  1.11727e+19
-52.6112  1.11934e+19
-52.4939  1.08509e+19
-52.3766  1.0293e+19
-52.2593  9.681e+18
-52.142  9.23018e+18
-52.0247  9.10142e+18
-51.9074  9.40721e+18
-51.7901  1.0182e+19
-51.6728  1.13609e+19
-51.5555  1.27904e+19
-51.4381  1.42652e+19
-51.3208  1.54884e+19
-51.2035  1.6219e+19
-51.0862  1.61993e+19
-50.9689  1.53345e+19
-50.8516  1.36283e+19
-50.7343  1.12028e+19
-50.617  8.36499e+18
-50.4997  5.50605e+18
-50.3824  3.02041e+18
-50.2651  1.29322e+18
-50.1478  5.51883e+17
-50.0305  8.81371e+17
-49.9132  2.16979e+18
-49.7959  4.1457e+18
-49.6786  6.42007e+18
-49.5613  8.58181e+18
-49.444  1.0262e+19
-49.3267  1.12031e+19
-49.2094  1.13138e+19
-49.092  1.06795e+19
-48.9747  9.51606e+18
-48.8574  8.16535e+18
-48.7401  7.00803e+18
-48.6228  6.40532e+18
-48.5055  6.6299e+18
-48.3882  7.8206e+18
-48.2709  9.96826e+18
-48.1536  1.28858e+19
-48.0363  1.62391e+19
-47.919  1.95822e+19
-47.8017  2.24745e+19
-47.6844  2.44843e+19
-47.5671  2.53043e+19
-47.4498  2.48028e+19
-47.3325  2.30782e+19
-47.2152  2.03514e+19
-47.0979  1.70501e+19
-46.9806  1.3599e+19
-46.8633  1.04252e+19
-46.7459  7.83482e+18
-46.6286  5.99508e+18
-46.5113  4.95607e+18
-46.394  4.64741e+18
-46.2767  5.01335e+18
-46.1594  6.0199e+18
-46.0421  7.72156e+18
-45.9248  1.02668e+19
-45.8075  1.3821e+19
-45.6902  1.85061e+19
-45.5729  2.42915e+19
-45.4556  3.09919e+19
-45.3383  3.81179e+19
-45.221  4.51167e+19
-45.1037  5.12666e+19
-44.9864  5.59314e+19
-44.8691  5.86967e+19
-44.7518  5.94041e+19
-44.6345  5.8162e+19
-44.5172  5.53727e+19
-44.3998  5.15722e+19
-44.2825  4.73021e+19
-44.1652  4.30151e+19
-44.0479  3.89841e+19
-43.9306  3.52904e+19
-43.8133  3.18219e+19
-43.696  2.84568e+19
-43.5787  2.50273e+19
-43.4614  2.14634e+19
-43.3441  1.78471e+19
-43.2268  1.43865e+19
-43.1095  1.13274e+19
-42.9922  8.92056e+18
-42.8749  7.35149e+18
-42.7576  6.6727e+18
-42.6403  6.8101e+18
-42.523  7.57552e+18
-42.4057  8.73539e+18
-42.2884  1.00399e+19
-42.171  1.12932e+19
-42.0537  1.23719e+19
-41.9364  1.32101e+19
-41.8191  1.38326e+19
-41.7018  1.42306e+19
-41.5845  1.44856e+19
-41.4672  1.4614e+19
-41.3499  1.46578e+19
-41.2326  1.4643e+19
-41.1153  1.46147e+19
-40.998  1.46092e+19
-40.8807  1.46782e+19
-40.7634  1.4822e+19
-40.6461  1.50897e+19
-40.5288  1.54501e+19
-40.4115  1.59175e+19
-40.2942  1.65001e+19
-40.1769  1.72042e+19
-40.0596  1.80837e+19
-39.9423  1.91937e+19
-39.825  2.05716e+19
-39.7076  2.21763e+19
-39.5903  2.39048e+19
-39.473  2.54856e+19
-39.3557  2.66167e+19
-39.2384  2.69132e+19
-39.1211  2.60712e+19
-39.0038  2.3953e+19
-38.8865  2.0653e+19
-38.7692  1.65071e+19
-38.6519  1.21523e+19
-38.5346  8.34474e+18
-38.4173  5.86697e+18
-38.3  5.33651e+18
-38.1827  7.08766e+18
-38.0654  1.10714e+19
-37.9481  1.68346e+19
-37.8308  2.36152e+19
-37.7135  3.04796e+19
-37.5962  3.64965e+19
-37.4789  4.09193e+19
-37.3615  4.32753e+19
-37.2442  4.34465e+19
-37.1269  4.17218e+19
-37.0096  3.85347e+19
-36.8923  3.45134e+19
-36.775  3.02523e+19
-36.6577  2.62216e+19
-36.5404  2.27307e+19
-36.4231  1.98959e+19
-36.3058  1.77108e+19
-36.1885  1.60572e+19
-36.0712  1.48172e+19
-35.9539  1.38781e+19
-35.8366  1.31812e+19
-35.7193  1.2733e+19
-35.602  1.2503e+19
-35.4847  1.25263e+19
-35.3674  1.28122e+19
-35.2501  1.33819e+19
-35.1328  1.42748e+19
-35.0154  1.55861e+19
-34.8981  1.74886e+19
-34.7808  2.01874e+19
-34.6635  2.39034e+19
-34.5462  2.88251e+19
-34.4289  3.50775e+19
-34.3116  4.25715e+19
-34.1943  5.10695e+19
-34.077  6.01314e+19
-33.9597  6.91756e+19
-33.8424  7.75297e+19
-33.7251  8.45589e+19
-33.6078  8.96777e+19
-33.4905  9.24757e+19
-33.3732  9.2759e+19
-33.2559  9.05314e+19
-33.1386  8.59987e+19
-33.0213  7.95336e+19
-32.904  7.16483e+19
-32.7867  6.29072e+19
-32.6693  5.38445e+19
-32.552  4.50102e+19
-32.4347  3.68135e+19
-32.3174  2.96336e+19
-32.2001  2.36709e+19
-32.0828  1.90149e+19
-31.9655  1.56488e+19
-31.8482  1.34705e+19
-31.7309  1.23114e+19
-31.6136  1.19874e+19
-31.4963  1.23221e+19
-31.379  1.31697e+19
-31.2617  1.44189e+19
-31.1444  1.59943e+19
-31.0271  1.78429e+19
-30.9098  1.9943e+19
-30.7925  2.22091e+19
-30.6752  2.46075e+19
-30.5579  2.70739e+19
-30.4406  2.95927e+19
-30.3232  3.21955e+19
-30.2059  3.49551e+19
-30.0886  3.80091e+19
-29.9713  4.1558e+19
-29.854  4.57957e+19
-29.7367  5.08023e+19
-29.6194  5.66975e+19
-29.5021  6.3399e+19
-29.3848  7.07024e+19
-29.2675  7.83001e+19
-29.1502  8.57091e+19
-29.0329  9.24795e+19
-28.9156  9.80564e+19
-28.7983  1.01943e+20
-28.681  1.03784e+20
-28.5637  1.0329e+20
-28.4464  1.00448e+20
-28.3291  9.53505e+19
-28.2118  8.83205e+19
-28.0944  7.99084e+19
-27.9771  7.07532e+19
-27.8598  6.15708e+19
-27.7425  5.31031e+19
-27.6252  4.58828e+19
-27.5079  4.0438e+19
-27.3906  3.69748e+19
-27.2733  3.55327e+19
-27.156  3.59459e+19
-27.0387  3.7882e+19
-26.9214  4.10097e+19
-26.8041  4.49708e+19
-26.6868  4.94928e+19
-26.5695  5.44033e+19
-26.4522  5.96833e+19
-26.3349  6.54278e+19
-26.2176  7.17274e+19
-26.1003  7.88401e+19
-25.983  8.68587e+19
-25.8657  9.58617e+19
-25.7483  1.05904e+20
-25.631  1.16832e+20
-25.5137  1.28542e+20
-25.3964  1.40665e+20
-25.2791  1.52842e+20
-25.1618  1.64583e+20
-25.0445  1.75414e+20
-24.9272  1.84738e+20
-24.8099  1.92071e+20
-24.6926  1.97037e+20
-24.5753  1.99417e+20
-24.458  1.99139e+20
-24.3407  1.96475e+20
-24.2234  1.91917e+20
-24.1061  1.86176e+20
-23.9888  1.80126e+20
-23.8715  1.74744e+20
-23.7542  1.70971e+20
-23.6369  1.6977e+20
-23.5196  1.71899e+20
-23.4023  1.77805e+20
-23.2849  1.87747e+20
-23.1676  2.01633e+20
-23.0503  2.18925e+20
-22.933  2.38964e+20
-22.8157  2.60486e+20
-22.6984  2.82179e+20
-22.5811  3.0264e+20
-22.4638  3.20352e+20
-22.3465  3.34239e+20
-22.2292  3.43275e+20
-22.1119  3.47037e+20
-21.9946  3.45432e+20
-21.8773  3.38965e+20
-21.76  3.28421e+20
-21.6427  3.14712e+20
-21.5254  2.98969e+20
-21.4081  2.82242e+20
-21.2908  2.65519e+20
-21.1735  2.49563e+20
-21.0561  2.34966e+20
-20.9388  2.22063e+20
-20.8215  2.11045e+20
-20.7042  2.02122e+20
-20.5869  1.95319e+20
-20.4696  1.90604e+20
-20.3523  1.88016e+20
-20.235  1.87558e+20
-20.1177  1.89383e+20
-20.0004  1.93598e+20
-19.8831  2.00268e+20
-19.7658  2.09857e+20
-19.6485  2.22572e+20
-19.5312  2.3872e+20
-19.4139  2.58454e+20
-19.2966  2.81778e+20
-19.1793  3.08439e+20
-19.062  3.37884e+20
-18.9447  3.6929e+20
-18.8274  4.01678e+20
-18.71  4.33821e+20
-18.5927  4.64692e+20
-18.4754  4.93333e+20
-18.3581  5.18963e+20
-18.2408  5.41391e+20
-18.1235  5.60592e+20
-18.0062  5.77072e+20
-17.8889  5.91526e+20
-17.7716  6.04836e+20
-17.6543  6.18279e+20
-17.537  6.3272e+20
-17.4197  6.49257e+20
-17.3024  6.68662e+20
-17.1851  6.91424e+20
-17.0678  7.17657e+20
-16.9505  7.47086e+20
-16.8332  7.78981e+20
-16.7159  8.12325e+20
-16.5986  8.45643e+20
-16.4813  8.7738e+20
-16.364  9.05871e+20
-16.2466  9.29635e+20
-16.1293  9.47083e+20
-16.012  9.57647e+20
-15.8947  9.60667e+20
-15.7774  9.5638e+20
-15.6601  9.45414e+20
-15.5428  9.28918e+20
-15.4255  9.08199e+20
-15.3082  8.85247e+20
-15.1909  8.61773e+20
-15.0736  8.39804e+20
-14.9563  8.20987e+20
-14.839  8.07094e+20
-14.7217  7.99207e+20
-14.6044  7.98426e+20
-14.4871  8.05343e+20
-14.3698  8.20116e+20
-14.2525  8.42441e+20
-14.1352  8.71641e+20
-14.0178  9.06785e+20
-13.9005  9.46562e+20
-13.7832  9.89568e+20
-13.6659  1.0343e+21
-13.5486  1.07944e+21
-13.4313  1.12381e+21
-13.314  1.16655e+21
-13.1967  1.20706e+21
-13.0794  1.24551e+21
-12.9621  1.28193e+21
-12.8448  1.31707e+21
-12.7275  1.35164e+21
-12.6102  1.38681e+21
-12.4929  1.42345e+21
-12.3756  1.46235e+21
-12.2583  1.50429e+21
-12.141  1.5496e+21
-12.0237  1.59831e+21
-11.9064  1.65006e+21
-11.7891  1.70434e+21
-11.6718  1.76056e+21
-11.5544  1.81795e+21
-11.4371  1.87586e+21
-11.3198  1.93404e+21
-11.2025  1.99238e+21
-11.0852  2.05148e+21
-10.9679  2.11227e+21
-10.8506  2.17625e+21
-10.7333  2.24503e+21
-10.616  2.32074e+21
-10.4987  2.40553e+21
-10.3814  2.50109e+21
-10.2641  2.60887e+21
-10.1468  2.73015e+21
-10.0295  2.86498e+21
-9.91217  3.01278e+21
-9.79487  3.1725e+21
-9.67756  3.34193e+21
-9.56026  3.51842e+21
-9.44295  3.69863e+21
-9.32565  3.87958e+21
-9.20834  4.0576e+21
-9.09104  4.22966e+21
-8.97373  4.39331e+21
-8.85643  4.54698e+21
-8.73913  4.68955e+21
-8.62182  4.82123e+21
-8.50452  4.94302e+21
-8.38721  5.05707e+21
-8.26991  5.16546e+21
-8.1526  5.27161e+21
-8.03529  5.37813e+21
-7.91799  5.48846e+21
-7.80069  5.60527e+21
-7.68338  5.73065e+21
-7.56608  5.86657e+21
-7.44877  6.01405e+21
-7.33146  6.17346e+21
-7.21416  6.34442e+21
-7.09685  6.52605e+21
-6.97955  6.71699e+21
-6.86224  6.91564e+21
-6.74494  7.12019e+21
-6.62763  7.3282e+21
-6.51033  7.5378e+21
-6.39302  7.74716e+21
-6.27572  7.95464e+21
-6.15842  8.15895e+21
-6.04111  8.35894e+21
-5.92381  8.55393e+21
-5.8065  8.74371e+21
-5.68919  8.92796e+21
-5.57189  9.10711e+21
-5.45458  9.28153e+21
-5.33728  9.45242e+21
-5.21997  9.62051e+21
-5.10267  9.78789e+21
-4.98536  9.95601e+21
-4.86806  1.0127e+22
-4.75075  1.03033e+22
-4.63345  1.04874e+22
-4.51614  1.06817e+22
-4.39884  1.08882e+22
-4.28154  1.11095e+22
-4.16423  1.13473e+22
-4.04692  1.16023e+22
-3.92962  1.18751e+22
-3.81231  1.21658e+22
-3.69501  1.24728e+22
-3.5777  1.27945e+22
-3.4604  1.31277e+22
-3.34309  1.34686e+22
-3.22579  1.38127e+22
-3.10849  1.41554e+22
-2.99118  1.44913e+22
-2.87387  1.48153e+22
-2.75657  1.51223e+22
-2.63926  1.5408e+22
-2.52196  1.56683e+22
-2.40465  1.59003e+22
-2.28735  1.6101e+22
-2.17005  1.62695e+22
-2.05274  1.64054e+22
-1.93544  1.65083e+22
-1.81813  1.65801e+22
-1.70083  1.66224e+22
-1.58352  1.66378e+22
-1.46622  1.66296e+22
-1.34891  1.6601e+22
-1.2316  1.6556e+22
-1.1143  1.64984e+22
-0.996995  1.64322e+22
-0.87969  1.63616e+22
-0.762385  1.62895e+22
-0.64508  1.62205e+22
-0.527775  1.61573e+22
-0.41047  1.61029e+22
-0.293165  1.60597e+22
-0.17586  1.60298e+22
-0.058555  1.60147e+22
0.05875  1.60148e+22
0.176055  1.60303e+22
0.29336  1.60602e+22
0.410665  1.61035e+22
0.52797  1.61577e+22
0.645275  1.62206e+22
0.76258  1.62892e+22
0.879885  1.63605e+22
0.99719  1.64302e+22
1.1145  1.64952e+22
1.2318  1.65514e+22
1.3491  1.65949e+22
1.46641  1.66218e+22
1.58371  1.6628e+22
1.70102  1.66107e+22
1.81832  1.65663e+22
1.93563  1.64924e+22
2.05294  1.63872e+22
2.17024  1.62496e+22
2.28754  1.60793e+22
2.40485  1.58764e+22
2.52216  1.56429e+22
2.63946  1.53809e+22
2.75677  1.50936e+22
2.87407  1.47851e+22
2.99137  1.44596e+22
3.10868  1.41225e+22
3.22599  1.37787e+22
3.34329  1.34336e+22
3.4606  1.30919e+22
3.5779  1.27581e+22
3.69521  1.24359e+22
3.81251  1.21286e+22
3.92982  1.18376e+22
4.04712  1.15645e+22
4.16443  1.13096e+22
4.28173  1.10721e+22
4.39903  1.08509e+22
4.51634  1.06446e+22
4.63364  1.04508e+22
4.75095  1.02671e+22
4.86825  1.00911e+22
4.98556  9.92035e+21
5.10286  9.75264e+21
5.22017  9.58536e+21
5.33748  9.41732e+21
5.45478  9.24654e+21
5.57209  9.0721e+21
5.68939  8.89285e+21
5.8067  8.70841e+21
5.924  8.51845e+21
6.0413  8.32346e+21
6.15861  8.1234e+21
6.27591  7.91899e+21
6.39322  7.7118e+21
6.51052  7.50267e+21
6.62783  7.29336e+21
6.74514  7.08584e+21
6.86244  6.88206e+21
6.97975  6.68408e+21
7.09705  6.49395e+21
7.21436  6.31318e+21
7.33166  6.14297e+21
7.44897  5.98443e+21
7.56627  5.83779e+21
7.68358  5.70249e+21
7.80088  5.57753e+21
7.91819  5.46102e+21
8.03549  5.35103e+21
8.1528  5.24459e+21
8.2701  5.13849e+21
8.38741  5.02994e+21
8.50471  4.91582e+21
8.62202  4.79398e+21
8.73932  4.66211e+21
8.85662  4.51962e+21
8.97393  4.36621e+21
9.09123  4.20278e+21
9.20854  4.03115e+21
9.32584  3.85382e+21
9.44315  3.67369e+21
9.56045  3.49411e+21
9.67776  3.3187e+21
9.79506  3.15018e+21
9.91237  2.99145e+21
10.0297  2.84458e+21
10.147  2.71075e+21
10.2643  2.59041e+21
10.3816  2.48327e+21
10.4989  2.38844e+21
10.6162  2.30427e+21
10.7335  2.22905e+21
10.8508  2.16073e+21
10.9681  2.0972e+21
11.0854  2.03692e+21
11.2027  1.97828e+21
11.32  1.92038e+21
11.4373  1.86275e+21
11.5546  1.80532e+21
11.6719  1.74847e+21
11.7893  1.69293e+21
11.9066  1.63925e+21
12.0239  1.58797e+21
12.1412  1.54e+21
12.2585  1.49526e+21
12.3758  1.45387e+21
12.4931  1.4154e+21
12.6104  1.37923e+21
12.7277  1.34447e+21
12.845  1.31021e+21
12.9623  1.2753e+21
13.0796  1.23916e+21
13.1969  1.20094e+21
13.3142  1.1606e+21
13.4315  1.11804e+21
13.5488  1.07386e+21
13.6661  1.02892e+21
13.7834  9.84329e+20
13.9007  9.41549e+20
14.018  9.01992e+20
14.1354  8.6704e+20
14.2527  8.38008e+20
14.37  8.15944e+20
14.4873  8.0135e+20
14.6046  7.94588e+20
14.7219  7.95462e+20
14.8392  8.03459e+20
14.9565  8.17513e+20
15.0738  8.36387e+20
15.1911  8.58477e+20
15.3084  8.81974e+20
15.4257  9.04955e+20
15.543  9.25662e+20
15.6603  9.42262e+20
15.7776  9.53351e+20
15.8949  9.57731e+20
16.0122  9.54852e+20
16.1295  9.44453e+20
16.2468  9.27052e+20
16.3641  9.03537e+20
16.4815  8.75244e+20
16.5988  8.43712e+20
16.7161  8.10537e+20
16.8334  7.77506e+20
16.9507  7.45774e+20
17.068  7.16599e+20
17.1853  6.90587e+20
17.3026  6.6809e+20
17.4199  6.4882e+20
17.5372  6.32379e+20
17.6545  6.18002e+20
17.7718  6.04712e+20
17.8891  5.913e+20
18.0064  5.76869e+20
18.1237  5.60335e+20
18.241  5.40952e+20
18.3583  5.18368e+20
18.4756  4.92557e+20
18.5929  4.63768e+20
18.7102  4.32689e+20
18.8275  4.00426e+20
18.9449  3.67993e+20
19.0622  3.36533e+20
19.1795  3.07136e+20
19.2968  2.80502e+20
19.4141  2.57287e+20
19.5314  2.37681e+20
19.6487  2.21657e+20
19.766  2.0913e+20
19.8833  1.99683e+20
20.0006  1.93133e+20
20.1179  1.89123e+20
20.2352  1.875e+20
20.3525  1.88076e+20
20.4698  1.90785e+20
20.5871  1.95613e+20
20.7044  2.02593e+20
20.8217  2.11673e+20
20.939  2.22793e+20
21.0563  2.35839e+20
21.1736  2.50538e+20
21.291  2.66607e+20
21.4083  2.83417e+20
21.5256  3.00144e+20
21.6429  3.15909e+20
21.7602  3.2961e+20
21.8775  3.40134e+20
21.9948  3.46489e+20
22.1121  3.47886e+20
22.2294  3.43913e+20
22.3467  3.34731e+20
22.464  3.20647e+20
22.5813  3.02695e+20
22.6986  2.8212e+20
22.8159  2.60299e+20
22.9332  2.38707e+20
23.0505  2.18693e+20
23.1678  2.01383e+20
23.2851  1.87576e+20
23.4024  1.77681e+20
23.5198  1.71904e+20
23.6371  1.69885e+20
23.7544  1.71176e+20
23.8717  1.75004e+20
23.989  1.80436e+20
24.1063  1.86505e+20
24.2236  1.92203e+20
24.3409  1.96681e+20
24.4582  1.9927e+20
24.5755  1.994e+20
24.6928  1.96938e+20
24.8101  1.91866e+20
24.9274  1.8446e+20
25.0447  1.75066e+20
25.162  1.642e+20
25.2793  1.52452e+20
25.3966  1.40269e+20
25.5139  1.28191e+20
25.6312  1.1656e+20
25.7485  1.05656e+20
25.8658  9.56952e+19
25.9832  8.66862e+19
26.1005  7.87441e+19
26.2178  7.16701e+19
26.3351  6.53422e+19
26.4524  5.96008e+19
26.5697  5.42969e+19
26.687  4.93499e+19
26.8043  4.48156e+19
26.9216  4.08315e+19
27.0389  3.76993e+19
27.1562  3.57744e+19
27.2735  3.54084e+19
27.3908  3.69095e+19
27.5081  4.0461e+19
27.6254  4.59967e+19
27.7427  5.32938e+19
27.86  6.18569e+19
27.9773  7.10897e+19
28.0946  8.02858e+19
28.212  8.86806e+19
28.3293  9.56929e+19
28.4466  1.00732e+20
28.5639  1.03512e+20
28.6812  1.03935e+20
28.7985  1.02036e+20
28.9158  9.80953e+19
29.0331  9.24713e+19
29.1504  8.5696e+19
29.2677  7.82748e+19
29.385  7.07207e+19
29.5023  6.34507e+19
29.6196  5.6774e+19
29.7369  5.09238e+19
29.8542  4.59377e+19
29.9715  4.17609e+19
30.0888  3.8218e+19
30.2061  3.51553e+19
30.3234  3.23771e+19
30.4407  2.97601e+19
30.558  2.72153e+19
30.6754  2.47035e+19
30.7927  2.22831e+19
30.91  1.99848e+19
31.0273  1.78711e+19
31.1446  1.59767e+19
31.2619  1.43895e+19
31.3792  1.31258e+19
31.4965  1.22884e+19
31.6138  1.19795e+19
31.7311  1.23288e+19
31.8484  1.35196e+19
31.9657  1.57433e+19
32.083  1.91509e+19
32.2003  2.3846e+19
32.3176  2.98476e+19
32.4349  3.70529e+19
32.5522  4.52416e+19
32.6695  5.40619e+19
32.7868  6.30861e+19
32.9042  7.17856e+19
33.0215  7.95755e+19
33.1388  8.59691e+19
33.2561  9.03988e+19
33.3734  9.2569e+19
33.4907  9.21942e+19
33.608  8.93254e+19
33.7253  8.41961e+19
33.8426  7.71206e+19
33.9599  6.87824e+19
34.0772  5.97466e+19
34.1945  5.07221e+19
34.3118  4.22666e+19
34.4291  3.48208e+19
34.5464  2.86192e+19
34.6637  2.37058e+19
34.781  2.00205e+19
34.8983  1.73406e+19
35.0156  1.54517e+19
35.1329  1.41398e+19
35.2503  1.3249e+19
35.3676  1.26891e+19
35.4849  1.24129e+19
35.6022  1.23932e+19
35.7195  1.26185e+19
35.8368  1.3088e+19
35.9541  1.37779e+19
36.0714  1.4736e+19
36.1887  1.59853e+19
36.306  1.76562e+19
36.4233  1.98809e+19
36.5406  2.27499e+19
36.6579  2.62833e+19
36.7752  3.03529e+19
36.8925  3.46374e+19
37.0098  3.86794e+19
37.1271  4.18493e+19
37.2444  4.35818e+19
37.3617  4.33743e+19
37.479  4.09804e+19
37.5964  3.65102e+19
37.7137  3.04545e+19
37.831  2.35576e+19
37.9483  1.67519e+19
38.0656  1.099e+19
38.1829  7.02062e+18
38.3002  5.28959e+18
38.4175  5.84109e+18
38.5348  8.34375e+18
38.6521  1.21635e+19
38.7694  1.65203e+19
38.8867  2.0654e+19
39.004  2.3953e+19
39.1213  2.60629e+19
39.2386  2.68825e+19
39.3559  2.65786e+19
39.4732  2.54438e+19
39.5905  2.38639e+19
39.7078  2.21478e+19
39.8251  2.05504e+19
39.9425  1.91844e+19
40.0598  1.8071e+19
40.1771  1.72029e+19
40.2944  1.65052e+19
40.4117  1.59348e+19
40.529  1.54724e+19
40.6463  1.51174e+19
40.7636  1.48809e+19
40.8809  1.47291e+19
40.9982  1.46888e+19
41.1155  1.47109e+19
41.2328  1.47558e+19
41.3501  1.47728e+19
41.4674  1.47353e+19
41.5847  1.46104e+19
41.702  1.43471e+19
41.8193  1.39311e+19
41.9366  1.33053e+19
42.0539  1.24501e+19
42.1712  1.13557e+19
42.2885  1.00761e+19
42.4059  8.7555e+18
42.5232  7.5838e+18
42.6405  6.81765e+18
42.7578  6.67852e+18
42.8751  7.36525e+18
42.9924  8.95335e+18
43.1097  1.1374e+19
43.227  1.44545e+19
43.3443  1.79337e+19
43.4616  2.15442e+19
43.5789  2.5103e+19
43.6962  2.85424e+19
43.8135  3.19097e+19
43.9308  3.53538e+19
44.0481  3.9057e+19
44.1654  4.306e+19
44.2827  4.73307e+19
44.4  5.15935e+19
44.5173  5.53732e+19
44.6347  5.81133e+19
44.752  5.93148e+19
44.8693  5.85599e+19
44.9866  5.57503e+19
45.1039  5.10367e+19
45.2212  4.488e+19
45.3385  3.79009e+19
45.4558  3.07683e+19
45.5731  2.41203e+19
45.6904  1.83658e+19
45.8077  1.37257e+19
45.925  1.02122e+19
46.0423  7.70098e+18
46.1596  6.02334e+18
46.2769  5.03188e+18
46.3942  4.67686e+18
46.5115  4.99453e+18
46.6288  6.04507e+18
46.7461  7.89515e+18
46.8634  1.04952e+19
46.9808  1.3661e+19
47.0981  1.70911e+19
47.2154  2.03762e+19
47.3327  2.30566e+19
47.45  2.47494e+19
47.5673  2.5199e+19
47.6846  2.43326e+19
47.8019  2.23079e+19
47.9192  1.94111e+19
48.0365  1.60769e+19
48.1538  1.27652e+19
48.2711  9.89311e+18
48.3884  7.79989e+18
48.5057  6.65082e+18
48.623  6.47838e+18
48.7403  7.12003e+18
48.8576  8.29218e+18
48.9749  9.64187e+18
49.0922  1.0793e+19
49.2095  1.14089e+19
49.3269  1.12623e+19
49.4442  1.02915e+19
49.5615  8.57947e+18
49.6788  6.39468e+18
49.7961  4.10586e+18
49.9134  2.1337e+18
50.0307  8.60012e+17
50.148  5.5619e+17
50.2653  1.32916e+18
50.3826  3.09964e+18
50.4999  5.60949e+18
50.6172  8.49949e+18
50.7345  1.13509e+19
50.8518  1.37752e+19
