#S 1 spectral density
#N 2
#UFWHM 10.6748
#L  abscissas [um]  spectral density
-58.5938  4.94752e+18
-58.4764  4.72106e+18
-58.3591  4.56038e+18
-58.2418  4.52919e+18
-58.1245  4.60178e+18
-58.0072  4.66331e+18
-57.8899  4.5494e+18
-57.7726  4.15714e+18
-57.6553  3.46356e+18
-57.538  2.59316e+18
-57.4207  1.77281e+18
-57.3034  1.28514e+18
-57.1861  1.37537e+18
-57.0688  2.18484e+18
-56.9515  3.69924e+18
-56.8342  5.73641e+18
-56.7169  8.00457e+18
-56.5996  1.01648e+19
-56.4823  1.19167e+19
-56.365  1.30607e+19
-56.2477  1.35622e+19
-56.1303  1.34798e+19
-56.013  1.29713e+19
-55.8957  1.22073e+19
-55.7784  1.13311e+19
-55.6611  1.03996e+19
-55.5438  9.398e+18
-55.4265  8.28625e+18
-55.3092  7.01831e+18
-55.1919  5.60031e+18
-55.0746  4.10562e+18
-54.9573  2.68285e+18
-54.84  1.49806e+18
-54.7227  7.18658e+17
-54.6054  4.34013e+17
-54.4881  6.50389e+17
-54.3708  1.2734e+18
-54.2535  2.13292e+18
-54.1362  3.03122e+18
-54.0189  3.77685e+18
-53.9016  4.25332e+18
-53.7842  4.42191e+18
-53.6669  4.32172e+18
-53.5496  4.04137e+18
-53.4323  3.71411e+18
-53.315  3.44909e+18
-53.1977  3.32926e+18
-53.0804  3.38395e+18
-52.9631  3.59514e+18
-52.8458  3.90734e+18
-52.7285  4.23507e+18
-52.6112  4.49168e+18
-52.4939  4.59894e+18
-52.3766  4.50202e+18
-52.2593  4.17173e+18
-52.142  3.62625e+18
-52.0247  2.92683e+18
-51.9074  2.18575e+18
-51.7901  1.54483e+18
-51.6728  1.15788e+18
-51.5555  1.168e+18
-51.4381  1.6729e+18
-51.3208  2.69106e+18
-51.2035  4.16323e+18
-51.0862  5.92856e+18
-50.9689  7.78701e+18
-50.8516  9.50868e+18
-50.7343  1.08587e+19
-50.617  1.16889e+19
-50.4997  1.19143e+19
-50.3824  1.1542e+19
-50.2651  1.0672e+19
-50.1478  9.42621e+18
-50.0305  7.98374e+18
-49.9132  6.4958e+18
-49.7959  5.09895e+18
-49.6786  3.90256e+18
-49.5613  2.94331e+18
-49.444  2.24733e+18
-49.3267  1.80456e+18
-49.2094  1.58417e+18
-49.092  1.53727e+18
-48.9747  1.60079e+18
-48.8574  1.71492e+18
-48.7401  1.82851e+18
-48.6228  1.9024e+18
-48.5055  1.93001e+18
-48.3882  1.93173e+18
-48.2709  1.93178e+18
-48.1536  1.96556e+18
-48.0363  2.06027e+18
-47.919  2.2098e+18
-47.8017  2.38788e+18
-47.6844  2.54689e+18
-47.5671  2.65356e+18
-47.4498  2.68833e+18
-47.3325  2.6762e+18
-47.2152  2.67744e+18
-47.0979  2.77445e+18
-46.9806  3.04348e+18
-46.8633  3.51557e+18
-46.7459  4.16039e+18
-46.6286  4.88584e+18
-46.5113  5.54482e+18
-46.394  6.03146e+18
-46.2767  6.26701e+18
-46.1594  6.2927e+18
-46.0421  6.28568e+18
-45.9248  6.5044e+18
-45.8075  7.23195e+18
-45.6902  8.70498e+18
-45.5729  1.10009e+19
-45.4556  1.39971e+19
-45.3383  1.73672e+19
-45.221  2.05989e+19
-45.1037  2.31584e+19
-44.9864  2.45706e+19
-44.8691  2.45501e+19
-44.7518  2.30981e+19
-44.6345  2.04937e+19
-44.5172  1.71825e+19
-44.3998  1.37442e+19
-44.2825  1.07244e+19
-44.1652  8.4967e+18
-44.0479  7.18125e+18
-43.9306  6.68148e+18
-43.8133  6.69748e+18
-43.696  6.84645e+18
-43.5787  6.78616e+18
-43.4614  6.29167e+18
-43.3441  5.32826e+18
-43.2268  4.02853e+18
-43.1095  2.65162e+18
-42.9922  1.48747e+18
-42.8749  7.89988e+17
-42.7576  6.89416e+17
-42.6403  1.17987e+18
-42.523  2.12689e+18
-42.4057  3.32158e+18
-42.2884  4.52146e+18
-42.171  5.51729e+18
-42.0537  6.19609e+18
-41.9364  6.49265e+18
-41.8191  6.46211e+18
-41.7018  6.16835e+18
-41.5845  5.76601e+18
-41.4672  5.38181e+18
-41.3499  5.13001e+18
-41.2326  5.10891e+18
-41.1153  5.37974e+18
-40.998  5.96451e+18
-40.8807  6.83783e+18
-40.7634  7.9122e+18
-40.6461  9.08422e+18
-40.5288  1.02144e+19
-40.4115  1.12066e+19
-40.2942  1.20151e+19
-40.1769  1.26525e+19
-40.0596  1.32408e+19
-39.9423  1.39645e+19
-39.825  1.50545e+19
-39.7076  1.66862e+19
-39.5903  1.89089e+19
-39.473  2.16257e+19
-39.3557  2.45995e+19
-39.2384  2.73873e+19
-39.1211  2.95296e+19
-39.0038  3.06207e+19
-38.8865  3.0366e+19
-38.7692  2.86683e+19
-38.6519  2.57228e+19
-38.5346  2.18977e+19
-38.4173  1.77142e+19
-38.3  1.36606e+19
-38.1827  1.01781e+19
-38.0654  7.48311e+18
-37.9481  5.59476e+18
-37.8308  4.36489e+18
-37.7135  3.53701e+18
-37.5962  2.86363e+18
-37.4789  2.18566e+18
-37.3615  1.50779e+18
-37.2442  9.77372e+17
-37.1269  8.46415e+17
-37.0096  1.38806e+18
-36.8923  2.78656e+18
-36.775  5.0688e+18
-36.6577  8.05917e+18
-36.5404  1.1422e+19
-36.4231  1.46981e+19
-36.3058  1.74139e+19
-36.1885  1.92006e+19
-36.0712  1.98639e+19
-35.9539  1.94112e+19
-35.8366  1.80587e+19
-35.7193  1.613e+19
-35.602  1.40278e+19
-35.4847  1.21483e+19
-35.3674  1.07905e+19
-35.2501  1.01323e+19
-35.1328  1.02286e+19
-35.0154  1.10342e+19
-34.8981  1.24748e+19
-34.7808  1.44262e+19
-34.6635  1.6767e+19
-34.5462  1.9405e+19
-34.4289  2.22585e+19
-34.3116  2.51866e+19
-34.1943  2.80742e+19
-34.077  3.07822e+19
-33.9597  3.31344e+19
-33.8424  3.4996e+19
-33.7251  3.62216e+19
-33.6078  3.67991e+19
-33.4905  3.67141e+19
-33.3732  3.60182e+19
-33.2559  3.4867e+19
-33.1386  3.33578e+19
-33.0213  3.16552e+19
-32.904  2.9854e+19
-32.7867  2.8043e+19
-32.6693  2.62991e+19
-32.552  2.46368e+19
-32.4347  2.31356e+19
-32.3174  2.17786e+19
-32.2001  2.06244e+19
-32.0828  1.96837e+19
-31.9655  1.89842e+19
-31.8482  1.85504e+19
-31.7309  1.839e+19
-31.6136  1.85437e+19
-31.4963  1.90441e+19
-31.379  1.99414e+19
-31.2617  2.12606e+19
-31.1444  2.3024e+19
-31.0271  2.52422e+19
-30.9098  2.7849e+19
-30.7925  3.07241e+19
-30.6752  3.36871e+19
-30.5579  3.65087e+19
-30.4406  3.90004e+19
-30.3232  4.09564e+19
-30.2059  4.22783e+19
-30.0886  4.29089e+19
-29.9713  4.2949e+19
-29.854  4.25813e+19
-29.7367  4.20441e+19
-29.6194  4.16794e+19
-29.5021  4.17962e+19
-29.3848  4.27074e+19
-29.2675  4.4697e+19
-29.1502  4.79061e+19
-29.0329  5.24283e+19
-28.9156  5.82116e+19
-28.7983  6.50585e+19
-28.681  7.2713e+19
-28.5637  8.07299e+19
-28.4464  8.86993e+19
-28.3291  9.61028e+19
-28.2118  1.02475e+20
-28.0944  1.07484e+20
-27.9771  1.10866e+20
-27.8598  1.12568e+20
-27.7425  1.12594e+20
-27.6252  1.11146e+20
-27.5079  1.08566e+20
-27.3906  1.05222e+20
-27.2733  1.01542e+20
-27.156  9.7935e+19
-27.0387  9.48392e+19
-26.9214  9.25968e+19
-26.8041  9.15393e+19
-26.6868  9.19094e+19
-26.5695  9.38526e+19
-26.4522  9.73926e+19
-26.3349  1.0237e+20
-26.2176  1.08598e+20
-26.1003  1.15608e+20
-25.983  1.22969e+20
-25.8657  1.30197e+20
-25.7483  1.3677e+20
-25.631  1.42363e+20
-25.5137  1.46613e+20
-25.3964  1.49566e+20
-25.2791  1.51221e+20
-25.1618  1.5183e+20
-25.0445  1.51696e+20
-24.9272  1.51208e+20
-24.8099  1.5078e+20
-24.6926  1.50817e+20
-24.5753  1.51595e+20
-24.458  1.53518e+20
-24.3407  1.56759e+20
-24.2234  1.61454e+20
-24.1061  1.67645e+20
-23.9888  1.75301e+20
-23.8715  1.84259e+20
-23.7542  1.94274e+20
-23.6369  2.05131e+20
-23.5196  2.16658e+20
-23.4023  2.28513e+20
-23.2849  2.40651e+20
-23.1676  2.5301e+20
-23.0503  2.65523e+20
-22.933  2.78375e+20
-22.8157  2.91525e+20
-22.6984  3.05109e+20
-22.5811  3.19121e+20
-22.4638  3.33448e+20
-22.3465  3.4818e+20
-22.2292  3.63051e+20
-22.1119  3.77954e+20
-21.9946  3.92657e+20
-21.8773  4.07001e+20
-21.76  4.20687e+20
-21.6427  4.3339e+20
-21.5254  4.44642e+20
-21.4081  4.54174e+20
-21.2908  4.61681e+20
-21.1735  4.67036e+20
-21.0561  4.70371e+20
-20.9388  4.71963e+20
-20.8215  4.72599e+20
-20.7042  4.73183e+20
-20.5869  4.74885e+20
-20.4696  4.78799e+20
-20.3523  4.86103e+20
-20.235  4.97573e+20
-20.1177  5.13834e+20
-20.0004  5.34956e+20
-19.8831  5.60563e+20
-19.7658  5.90027e+20
-19.6485  6.22405e+20
-19.5312  6.56322e+20
-19.4139  6.90666e+20
-19.2966  7.23997e+20
-19.1793  7.55186e+20
-19.062  7.83105e+20
-18.9447  8.07106e+20
-18.8274  8.26793e+20
-18.71  8.41974e+20
-18.5927  8.53012e+20
-18.4754  8.60511e+20
-18.3581  8.65426e+20
-18.2408  8.68754e+20
-18.1235  8.7145e+20
-18.0062  8.74431e+20
-17.8889  8.78517e+20
-17.7716  8.84019e+20
-17.6543  8.91078e+20
-17.537  8.99659e+20
-17.4197  9.09456e+20
-17.3024  9.20067e+20
-17.1851  9.31288e+20
-17.0678  9.4294e+20
-16.9505  9.55341e+20
-16.8332  9.68863e+20
-16.7159  9.84342e+20
-16.5986  1.00271e+21
-16.4813  1.02509e+21
-16.364  1.05267e+21
-16.2466  1.08651e+21
-16.1293  1.12785e+21
-16.012  1.17688e+21
-15.8947  1.23411e+21
-15.7774  1.29918e+21
-15.6601  1.37127e+21
-15.5428  1.44905e+21
-15.4255  1.53072e+21
-15.3082  1.61388e+21
-15.1909  1.69655e+21
-15.0736  1.77579e+21
-14.9563  1.84968e+21
-14.839  1.91615e+21
-14.7217  1.97424e+21
-14.6044  2.02308e+21
-14.4871  2.06299e+21
-14.3698  2.09474e+21
-14.2525  2.11976e+21
-14.1352  2.13985e+21
-14.0178  2.15741e+21
-13.9005  2.1743e+21
-13.7832  2.19253e+21
-13.6659  2.21398e+21
-13.5486  2.23961e+21
-13.4313  2.27002e+21
-13.314  2.30526e+21
-13.1967  2.34488e+21
-13.0794  2.38819e+21
-12.9621  2.4335e+21
-12.8448  2.47988e+21
-12.7275  2.52566e+21
-12.6102  2.56969e+21
-12.4929  2.61103e+21
-12.3756  2.64899e+21
-12.2583  2.68373e+21
-12.141  2.7157e+21
-12.0237  2.74568e+21
-11.9064  2.77483e+21
-11.7891  2.80468e+21
-11.6718  2.83656e+21
-11.5544  2.87213e+21
-11.4371  2.91282e+21
-11.3198  2.95912e+21
-11.2025  3.01187e+21
-11.0852  3.07106e+21
-10.9679  3.13629e+21
-10.8506  3.20668e+21
-10.7333  3.28087e+21
-10.616  3.35725e+21
-10.4987  3.4346e+21
-10.3814  3.51068e+21
-10.2641  3.58429e+21
-10.1468  3.65431e+21
-10.0295  3.72006e+21
-9.91217  3.78102e+21
-9.79487  3.83789e+21
-9.67756  3.89147e+21
-9.56026  3.94277e+21
-9.44295  3.99333e+21
-9.32565  4.04542e+21
-9.20834  4.10048e+21
-9.09104  4.16029e+21
-8.97373  4.22653e+21
-8.85643  4.30046e+21
-8.73913  4.3827e+21
-8.62182  4.4739e+21
-8.50452  4.57391e+21
-8.38721  4.68275e+21
-8.26991  4.79929e+21
-8.1526  4.92302e+21
-8.03529  5.05248e+21
-7.91799  5.18668e+21
-7.80069  5.32448e+21
-7.68338  5.46454e+21
-7.56608  5.60647e+21
-7.44877  5.74961e+21
-7.33146  5.89362e+21
-7.21416  6.03839e+21
-7.09685  6.18426e+21
-6.97955  6.33121e+21
-6.86224  6.47976e+21
-6.74494  6.63037e+21
-6.62763  6.78296e+21
-6.51033  6.93783e+21
-6.39302  7.09522e+21
-6.27572  7.25524e+21
-6.15842  7.41808e+21
-6.04111  7.58373e+21
-5.92381  7.75254e+21
-5.8065  7.92548e+21
-5.68919  8.10268e+21
-5.57189  8.28524e+21
-5.45458  8.47434e+21
-5.33728  8.67099e+21
-5.21997  8.8762e+21
-5.10267  9.09134e+21
-4.98536  9.31716e+21
-4.86806  9.55395e+21
-4.75075  9.8016e+21
-4.63345  1.00599e+22
-4.51614  1.03275e+22
-4.39884  1.06025e+22
-4.28154  1.08829e+22
-4.16423  1.11657e+22
-4.04692  1.1448e+22
-3.92962  1.17268e+22
-3.81231  1.19991e+22
-3.69501  1.22624e+22
-3.5777  1.25146e+22
-3.4604  1.2754e+22
-3.34309  1.29796e+22
-3.22579  1.31914e+22
-3.10849  1.339e+22
-2.99118  1.35762e+22
-2.87387  1.37521e+22
-2.75657  1.39198e+22
-2.63926  1.40816e+22
-2.52196  1.42401e+22
-2.40465  1.43977e+22
-2.28735  1.45562e+22
-2.17005  1.47174e+22
-2.05274  1.48826e+22
-1.93544  1.5052e+22
-1.81813  1.52257e+22
-1.70083  1.54032e+22
-1.58352  1.55832e+22
-1.46622  1.57643e+22
-1.34891  1.59441e+22
-1.2316  1.61207e+22
-1.1143  1.62917e+22
-0.996995  1.64543e+22
-0.87969  1.66062e+22
-0.762385  1.67446e+22
-0.64508  1.68676e+22
-0.527775  1.69732e+22
-0.41047  1.70596e+22
-0.293165  1.71257e+22
-0.17586  1.71705e+22
-0.058555  1.71934e+22
0.05875  1.71941e+22
0.176055  1.71728e+22
0.29336  1.71295e+22
0.410665  1.7065e+22
0.52797  1.698e+22
0.645275  1.6876e+22
0.76258  1.67547e+22
0.879885  1.66178e+22
0.99719  1.64677e+22
1.1145  1.63067e+22
1.2318  1.61374e+22
1.3491  1.59622e+22
1.46641  1.57838e+22
1.58371  1.56042e+22
1.70102  1.54257e+22
1.81832  1.52496e+22
1.93563  1.5077e+22
2.05294  1.49088e+22
2.17024  1.4745e+22
2.28754  1.45849e+22
2.40485  1.44274e+22
2.52216  1.4271e+22
2.63946  1.41133e+22
2.75677  1.39524e+22
2.87407  1.37854e+22
2.99137  1.36102e+22
3.10868  1.34243e+22
3.22599  1.32262e+22
3.34329  1.30145e+22
3.4606  1.27888e+22
3.5779  1.2549e+22
3.69521  1.22965e+22
3.81251  1.20325e+22
3.92982  1.17595e+22
4.04712  1.14798e+22
4.16443  1.11967e+22
4.28173  1.09129e+22
4.39903  1.06318e+22
4.51634  1.03559e+22
4.63364  1.00876e+22
4.75095  9.82863e+21
4.86825  9.58022e+21
4.98556  9.34307e+21
5.10286  9.11697e+21
5.22017  8.90148e+21
5.33748  8.69587e+21
5.45478  8.4991e+21
5.57209  8.30983e+21
5.68939  8.12684e+21
5.8067  7.94934e+21
5.924  7.77602e+21
6.0413  7.60655e+21
6.15861  7.44024e+21
6.27591  7.27672e+21
6.39322  7.11609e+21
6.51052  6.9579e+21
6.62783  6.80204e+21
6.74514  6.64847e+21
6.86244  6.49714e+21
6.97975  6.34761e+21
7.09705  6.19986e+21
7.21436  6.05341e+21
7.33166  5.9077e+21
7.44897  5.76321e+21
7.56627  5.61961e+21
7.68358  5.47722e+21
7.80088  5.33652e+21
7.91819  5.19838e+21
8.03549  5.06388e+21
8.1528  4.93422e+21
8.2701  4.81002e+21
8.38741  4.69303e+21
8.50471  4.58387e+21
8.62202  4.48338e+21
8.73932  4.39172e+21
8.85662  4.3091e+21
8.97393  4.23478e+21
9.09123  4.16812e+21
9.20854  4.10782e+21
9.32584  4.05248e+21
9.44315  4.00004e+21
9.56045  3.94891e+21
9.67776  3.89739e+21
9.79506  3.84368e+21
9.91237  3.78659e+21
10.0297  3.72542e+21
10.147  3.65978e+21
10.2643  3.58988e+21
10.3816  3.51613e+21
10.4989  3.44015e+21
10.6162  3.363e+21
10.7335  3.28665e+21
10.8508  3.21259e+21
10.9681  3.14236e+21
11.0854  3.07738e+21
11.2027  3.01833e+21
11.32  2.96563e+21
11.4373  2.91924e+21
11.5546  2.87877e+21
11.6719  2.84316e+21
11.7893  2.81131e+21
11.9066  2.78154e+21
12.0239  2.75231e+21
12.1412  2.72239e+21
12.2585  2.69052e+21
12.3758  2.6557e+21
12.4931  2.61764e+21
12.6104  2.57624e+21
12.7277  2.5323e+21
12.845  2.4867e+21
12.9623  2.44031e+21
13.0796  2.3949e+21
13.1969  2.35183e+21
13.3142  2.31213e+21
13.4315  2.27687e+21
13.5488  2.24662e+21
13.6661  2.22107e+21
13.7834  2.19968e+21
13.9007  2.18134e+21
14.018  2.16454e+21
14.1354  2.14695e+21
14.2527  2.1266e+21
14.37  2.10141e+21
14.4873  2.06944e+21
14.6046  2.0293e+21
14.7219  1.98018e+21
14.8392  1.92189e+21
14.9565  1.85511e+21
15.0738  1.78091e+21
15.1911  1.70137e+21
15.3084  1.61858e+21
15.4257  1.53517e+21
15.543  1.45334e+21
15.6603  1.3754e+21
15.7776  1.30326e+21
15.8949  1.23817e+21
16.0122  1.18084e+21
16.1295  1.13171e+21
16.2468  1.09053e+21
16.3641  1.05661e+21
16.4815  1.02906e+21
16.5988  1.00664e+21
16.7161  9.88332e+20
16.8334  9.72839e+20
16.9507  9.59298e+20
17.068  9.46848e+20
17.1853  9.35104e+20
17.3026  9.23835e+20
17.4199  9.13248e+20
17.5372  9.0345e+20
17.6545  8.94868e+20
17.7718  8.87684e+20
17.8891  8.82142e+20
18.0064  8.77938e+20
18.1237  8.74833e+20
18.241  8.72018e+20
18.3583  8.68545e+20
18.4756  8.63438e+20
18.5929  8.55665e+20
18.7102  8.44359e+20
18.8275  8.28945e+20
18.9449  8.09054e+20
19.0622  7.84802e+20
19.1795  7.56722e+20
19.2968  7.25412e+20
19.4141  6.91995e+20
19.5314  6.57608e+20
19.6487  6.23632e+20
19.766  5.91367e+20
19.8833  5.61915e+20
20.0006  5.36425e+20
20.1179  5.15488e+20
20.2352  4.9943e+20
20.3525  4.88043e+20
20.4698  4.80791e+20
20.5871  4.76896e+20
20.7044  4.75242e+20
20.8217  4.74659e+20
20.939  4.73982e+20
21.0563  4.72269e+20
21.1736  4.68794e+20
21.291  4.63257e+20
21.4083  4.5564e+20
21.5256  4.45915e+20
21.6429  4.34479e+20
21.7602  4.21709e+20
21.8775  4.07917e+20
21.9948  3.93489e+20
22.1121  3.78656e+20
22.2294  3.63628e+20
22.3467  3.48753e+20
22.464  3.33979e+20
22.5813  3.19569e+20
22.6986  3.05532e+20
22.8159  2.91925e+20
22.9332  2.78718e+20
23.0505  2.65838e+20
23.1678  2.53274e+20
23.2851  2.40921e+20
23.4024  2.28704e+20
23.5198  2.16812e+20
23.6371  2.05303e+20
23.7544  1.94414e+20
23.8717  1.84397e+20
23.989  1.75441e+20
24.1063  1.67827e+20
24.2236  1.61655e+20
24.3409  1.56984e+20
24.4582  1.53796e+20
24.5755  1.51915e+20
24.6928  1.51134e+20
24.8101  1.51131e+20
24.9274  1.51564e+20
25.0447  1.52052e+20
25.162  1.52157e+20
25.2793  1.51489e+20
25.3966  1.49796e+20
25.5139  1.46794e+20
25.6312  1.42428e+20
25.7485  1.36808e+20
25.8658  1.30148e+20
25.9832  1.22932e+20
26.1005  1.15507e+20
26.2178  1.08477e+20
26.3351  1.02294e+20
26.4524  9.73241e+19
26.5697  9.38388e+19
26.687  9.19503e+19
26.8043  9.16241e+19
26.9216  9.27343e+19
27.0389  9.49834e+19
27.1562  9.81248e+19
27.2735  1.01733e+20
27.3908  1.05434e+20
27.5081  1.08775e+20
27.6254  1.11339e+20
27.7427  1.1277e+20
27.86  1.12707e+20
27.9773  1.10987e+20
28.0946  1.07563e+20
28.212  1.02523e+20
28.3293  9.61121e+19
28.4466  8.86953e+19
28.5639  8.07094e+19
28.6812  7.26935e+19
28.7985  6.50466e+19
28.9158  5.82106e+19
29.0331  5.24491e+19
29.1504  4.79491e+19
29.2677  4.47664e+19
29.385  4.28118e+19
29.5023  4.18952e+19
29.6196  4.17722e+19
29.7369  4.21297e+19
29.8542  4.2644e+19
29.9715  4.3008e+19
30.0888  4.29228e+19
30.2061  4.22568e+19
30.3234  4.09192e+19
30.4407  3.89434e+19
30.558  3.64581e+19
30.6754  3.36129e+19
30.7927  3.06736e+19
30.91  2.78311e+19
31.0273  2.52412e+19
31.1446  2.3037e+19
31.2619  2.12852e+19
31.3792  1.99774e+19
31.4965  1.90926e+19
31.6138  1.85986e+19
31.7311  1.84448e+19
31.8484  1.86022e+19
31.9657  1.90309e+19
32.083  1.9722e+19
32.2003  2.0651e+19
32.3176  2.17872e+19
32.4349  2.31228e+19
32.5522  2.46221e+19
32.6695  2.62666e+19
32.7868  2.80133e+19
32.9042  2.97971e+19
33.0215  3.15935e+19
33.1388  3.32809e+19
33.2561  3.47739e+19
33.3734  3.59098e+19
33.4907  3.65719e+19
33.608  3.66535e+19
33.7253  3.60789e+19
33.8426  3.48298e+19
33.9599  3.29744e+19
34.0772  3.06224e+19
34.1945  2.79383e+19
34.3118  2.50678e+19
34.4291  2.21565e+19
34.5464  1.93264e+19
34.6637  1.67064e+19
34.781  1.43868e+19
34.8983  1.24709e+19
35.0156  1.10586e+19
35.1329  1.02686e+19
35.2503  1.01995e+19
35.3676  1.08911e+19
35.4849  1.22635e+19
35.6022  1.41417e+19
35.7195  1.62342e+19
35.8368  1.81518e+19
35.9541  1.94765e+19
36.0714  1.98885e+19
36.1887  1.91933e+19
36.306  1.73646e+19
36.4233  1.46244e+19
36.5406  1.13373e+19
36.6579  7.98477e+18
36.7752  5.00155e+18
36.8925  2.74268e+18
37.0098  1.3701e+18
37.1271  8.49303e+17
37.2444  9.93323e+17
37.3617  1.53245e+18
37.479  2.21298e+18
37.5964  2.88901e+18
37.7137  3.56766e+18
37.831  4.39963e+18
37.9483  5.64105e+18
38.0656  7.54277e+18
38.1829  1.02586e+19
38.3002  1.37563e+19
38.4175  1.78024e+19
38.5348  2.19858e+19
38.6521  2.57889e+19
38.7694  2.87067e+19
38.8867  3.03553e+19
39.004  3.05833e+19
39.1213  2.94688e+19
39.2386  2.72969e+19
39.3559  2.44929e+19
39.4732  2.15196e+19
39.5905  1.87991e+19
39.7078  1.65935e+19
39.8251  1.50011e+19
39.9425  1.39304e+19
40.0598  1.32094e+19
40.1771  1.26302e+19
40.2944  1.20066e+19
40.4117  1.12021e+19
40.529  1.02032e+19
40.6463  9.06922e+18
40.7636  7.90016e+18
40.8809  6.81999e+18
40.9982  5.95557e+18
41.1155  5.37288e+18
41.2328  5.10645e+18
41.3501  5.12639e+18
41.4674  5.38009e+18
41.5847  5.76759e+18
41.702  6.16091e+18
41.8193  6.44092e+18
41.9366  6.46965e+18
42.0539  6.16388e+18
42.1712  5.48703e+18
42.2885  4.47557e+18
42.4059  3.28208e+18
42.5232  2.09266e+18
42.6405  1.16129e+18
42.7578  6.8641e+17
42.8751  8.09363e+17
42.9924  1.52821e+18
43.1097  2.70688e+18
43.227  4.09636e+18
43.3443  5.39923e+18
43.4616  6.35634e+18
43.5789  6.8309e+18
43.6962  6.879e+18
43.8135  6.71463e+18
43.9308  6.69568e+18
44.0481  7.19526e+18
44.1654  8.51701e+18
44.2827  1.07633e+19
44.4  1.37902e+19
44.5173  1.72169e+19
44.6347  2.05211e+19
44.752  2.31127e+19
44.8693  2.45428e+19
44.9866  2.45178e+19
45.1039  2.30885e+19
45.2212  2.05044e+19
45.3385  1.72575e+19
45.4558  1.39184e+19
45.5731  1.09408e+19
45.6904  8.662e+18
45.8077  7.21869e+18
45.925  6.5083e+18
46.0423  6.29859e+18
46.1596  6.29661e+18
46.2769  6.25429e+18
46.3942  6.01387e+18
46.5115  5.51306e+18
46.6288  4.84346e+18
46.7461  4.11488e+18
46.8634  3.46947e+18
46.9808  3.0088e+18
47.0981  2.74427e+18
47.2154  2.6515e+18
47.3327  2.64907e+18
47.45  2.65919e+18
47.5673  2.62124e+18
47.6846  2.51389e+18
47.8019  2.35282e+18
47.9192  2.18054e+18
48.0365  2.03828e+18
48.1538  1.953e+18
48.2711  1.92147e+18
48.3884  1.92272e+18
48.5057  1.92271e+18
48.623  1.89181e+18
48.7403  1.81406e+18
48.8576  1.6963e+18
48.9749  1.5805e+18
49.0922  1.52305e+18
49.2095  1.58254e+18
49.3269  1.81515e+18
49.4442  2.26998e+18
49.5615  2.9756e+18
49.6788  3.94297e+18
49.7961  5.14802e+18
49.9134  6.53924e+18
50.0307  8.02198e+18
50.148  9.44802e+18
50.2653  1.06775e+19
50.3826  1.15463e+19
50.4999  1.18986e+19
50.6172  1.16597e+19
50.7345  1.08254e+19
50.8518  9.47748e+18
