#S 1 spectral density
#N 2
#UFWHM 13.0209
#L  abscissas [um]  spectral density
-58.5938  2.24085e+19
-58.4764  1.8461e+19
-58.3591  1.42801e+19
-58.2418  1.04479e+19
-58.1245  7.36207e+18
-58.0072  5.186e+18
-57.8899  3.81884e+18
-57.7726  3.03233e+18
-57.6553  2.55592e+18
-57.538  2.15965e+18
-57.4207  1.73101e+18
-57.3034  1.30591e+18
-57.1861  1.01419e+18
-57.0688  1.05756e+18
-56.9515  1.63133e+18
-56.8342  2.87943e+18
-56.7169  4.88659e+18
-56.5996  7.64318e+18
-56.4823  1.10834e+19
-56.365  1.50623e+19
-56.2477  1.93874e+19
-56.1303  2.3788e+19
-56.013  2.79529e+19
-55.8957  3.14841e+19
-55.7784  3.39947e+19
-55.6611  3.50902e+19
-55.5438  3.44601e+19
-55.4265  3.20765e+19
-55.3092  2.80323e+19
-55.1919  2.2737e+19
-55.0746  1.68127e+19
-54.9573  1.10077e+19
-54.84  6.12318e+18
-54.7227  2.82089e+18
-54.6054  1.55551e+18
-54.4881  2.47778e+18
-54.3708  5.44282e+18
-54.2535  1.00245e+19
-54.1362  1.56099e+19
-54.0189  2.15378e+19
-53.9016  2.71423e+19
-53.7842  3.18588e+19
-53.6669  3.53673e+19
-53.5496  3.74319e+19
-53.4323  3.80529e+19
-53.315  3.73187e+19
-53.1977  3.54298e+19
-53.0804  3.26407e+19
-52.9631  2.92077e+19
-52.8458  2.53991e+19
-52.7285  2.14348e+19
-52.6112  1.75221e+19
-52.4939  1.3795e+19
-52.3766  1.03877e+19
-52.2593  7.40283e+18
-52.142  4.95083e+18
-52.0247  3.14175e+18
-51.9074  2.10601e+18
-51.7901  1.98615e+18
-51.6728  2.9052e+18
-51.5555  4.94904e+18
-51.4381  8.11468e+18
-51.3208  1.22781e+19
-51.2035  1.71991e+19
-51.0862  2.25069e+19
-50.9689  2.77575e+19
-50.8516  3.24782e+19
-50.7343  3.62178e+19
-50.617  3.86331e+19
-50.4997  3.95479e+19
-50.3824  3.88985e+19
-50.2651  3.68241e+19
-50.1478  3.35476e+19
-50.0305  2.94262e+19
-49.9132  2.47818e+19
-49.7959  1.99904e+19
-49.6786  1.53749e+19
-49.5613  1.12155e+19
-49.444  7.73027e+18
-49.3267  5.05177e+18
-49.2094  3.23611e+18
-49.092  2.27223e+18
-48.9747  2.06844e+18
-48.8574  2.47918e+18
-48.7401  3.32475e+18
-48.6228  4.40448e+18
-48.5055  5.54109e+18
-48.3882  6.60842e+18
-48.2709  7.50799e+18
-48.1536  8.21823e+18
-48.0363  8.74625e+18
-47.919  9.13824e+18
-47.8017  9.43151e+18
-47.6844  9.67813e+18
-47.5671  9.90068e+18
-47.4498  1.01098e+19
-47.3325  1.02974e+19
-47.2152  1.04317e+19
-47.0979  1.04583e+19
-46.9806  1.0281e+19
-46.8633  9.79061e+18
-46.7459  8.91912e+18
-46.6286  7.58752e+18
-46.5113  5.86044e+18
-46.394  3.92442e+18
-46.2767  2.16646e+18
-46.1594  1.1223e+18
-46.0421  1.44027e+18
-45.9248  3.75923e+18
-45.8075  8.55289e+18
-45.6902  1.60003e+19
-45.5729  2.58164e+19
-45.4556  3.73246e+19
-45.3383  4.93371e+19
-45.221  6.05023e+19
-45.1037  6.93728e+19
-44.9864  7.47128e+19
-44.8691  7.5779e+19
-44.7518  7.24563e+19
-44.6345  6.51911e+19
-44.5172  5.49786e+19
-44.3998  4.32272e+19
-44.2825  3.14007e+19
-44.1652  2.08672e+19
-44.0479  1.25872e+19
-43.9306  7.09554e+18
-43.8133  4.40995e+18
-43.696  4.15679e+18
-43.5787  5.68259e+18
-43.4614  8.22191e+18
-43.3441  1.10578e+19
-43.2268  1.36329e+19
-43.1095  1.55905e+19
-42.9922  1.67947e+19
-42.8749  1.73103e+19
-42.7576  1.73244e+19
-42.6403  1.70949e+19
-42.523  1.69189e+19
-42.4057  1.70302e+19
-42.2884  1.75802e+19
-42.171  1.86088e+19
-42.0537  2.007e+19
-41.9364  2.17424e+19
-41.8191  2.3311e+19
-41.7018  2.44261e+19
-41.5845  2.47189e+19
-41.4672  2.39449e+19
-41.3499  2.19862e+19
-41.2326  1.89439e+19
-41.1153  1.5117e+19
-40.998  1.09597e+19
-40.8807  7.03182e+18
-40.7634  3.86547e+18
-40.6461  1.89073e+18
-40.5288  1.34225e+18
-40.4115  2.25003e+18
-40.2942  4.43439e+18
-40.1769  7.5511e+18
-40.0596  1.11925e+19
-39.9423  1.49289e+19
-39.825  1.83627e+19
-39.7076  2.11928e+19
-39.5903  2.32237e+19
-39.473  2.43326e+19
-39.3557  2.44623e+19
-39.2384  2.36442e+19
-39.1211  2.19557e+19
-39.0038  1.95583e+19
-38.8865  1.67037e+19
-38.7692  1.37141e+19
-38.6519  1.09472e+19
-38.5346  8.73346e+18
-38.4173  7.31097e+18
-38.3  6.78e+18
-38.1827  7.04435e+18
-38.0654  7.82545e+18
-37.9481  8.72296e+18
-37.8308  9.29724e+18
-37.7135  9.20486e+18
-37.5962  8.28292e+18
-37.4789  6.61863e+18
-37.3615  4.53313e+18
-37.2442  2.53021e+18
-37.1269  1.18055e+18
-37.0096  9.47383e+17
-36.8923  2.08137e+18
-36.775  4.52759e+18
-36.6577  7.9245e+18
-36.5404  1.16454e+19
-36.4231  1.49741e+19
-36.3058  1.72317e+19
-36.1885  1.79472e+19
-36.0712  1.69532e+19
-35.9539  1.44389e+19
-35.8366  1.08872e+19
-35.7193  7.00964e+18
-35.602  3.5828e+18
-35.4847  1.27668e+18
-35.3674  5.91663e+17
-35.2501  1.76579e+18
-35.1328  4.7678e+18
-35.0154  9.34912e+18
-34.8981  1.51385e+19
-34.7808  2.17076e+19
-34.6635  2.86211e+19
-34.5462  3.5568e+19
-34.4289  4.23375e+19
-34.3116  4.87306e+19
-34.1943  5.46419e+19
-34.077  6.00072e+19
-33.9597  6.4691e+19
-33.8424  6.85593e+19
-33.7251  7.14243e+19
-33.6078  7.31165e+19
-33.4905  7.3457e+19
-33.3732  7.22866e+19
-33.2559  6.95453e+19
-33.1386  6.52546e+19
-33.0213  5.9557e+19
-32.904  5.27569e+19
-32.7867  4.52331e+19
-32.6693  3.74824e+19
-32.552  3.00481e+19
-32.4347  2.35029e+19
-32.3174  1.83677e+19
-32.2001  1.5023e+19
-32.0828  1.36844e+19
-31.9655  1.43901e+19
-31.8482  1.69816e+19
-31.7309  2.11345e+19
-31.6136  2.6416e+19
-31.4963  3.23396e+19
-31.379  3.84249e+19
-31.2617  4.42637e+19
-31.1444  4.95268e+19
-31.0271  5.39822e+19
-30.9098  5.757e+19
-30.7925  6.01551e+19
-30.6752  6.17742e+19
-30.5579  6.24526e+19
-30.4406  6.22187e+19
-30.3232  6.11893e+19
-30.2059  5.9393e+19
-30.0886  5.69651e+19
-29.9713  5.40712e+19
-29.854  5.08321e+19
-29.7367  4.7406e+19
-29.6194  4.39906e+19
-29.5021  4.07526e+19
-29.3848  3.78407e+19
-29.2675  3.54038e+19
-29.1502  3.35477e+19
-29.0329  3.23736e+19
-28.9156  3.1886e+19
-28.7983  3.20302e+19
-28.681  3.27058e+19
-28.5637  3.37008e+19
-28.4464  3.47862e+19
-28.3291  3.56798e+19
-28.2118  3.61187e+19
-28.0944  3.59158e+19
-27.9771  3.49829e+19
-27.8598  3.33212e+19
-27.7425  3.10943e+19
-27.6252  2.84911e+19
-27.5079  2.58288e+19
-27.3906  2.3399e+19
-27.2733  2.14898e+19
-27.156  2.03579e+19
-27.0387  2.01609e+19
-26.9214  2.10344e+19
-26.8041  2.30344e+19
-26.6868  2.61549e+19
-26.5695  3.03038e+19
-26.4522  3.53265e+19
-26.3349  4.10169e+19
-26.2176  4.70723e+19
-26.1003  5.31673e+19
-25.983  5.89178e+19
-25.8657  6.39858e+19
-25.7483  6.81103e+19
-25.631  7.11679e+19
-25.5137  7.31741e+19
-25.3964  7.42609e+19
-25.2791  7.47031e+19
-25.1618  7.48457e+19
-25.0445  7.50247e+19
-24.9272  7.55645e+19
-24.8099  7.66479e+19
-24.6926  7.84252e+19
-24.5753  8.0971e+19
-24.458  8.4188e+19
-24.3407  8.80832e+19
-24.2234  9.26327e+19
-24.1061  9.78733e+19
-23.9888  1.03928e+20
-23.8715  1.10992e+20
-23.7542  1.19358e+20
-23.6369  1.29364e+20
-23.5196  1.41347e+20
-23.4023  1.55531e+20
-23.2849  1.72048e+20
-23.1676  1.90798e+20
-23.0503  2.11345e+20
-22.933  2.33128e+20
-22.8157  2.5504e+20
-22.6984  2.75864e+20
-22.5811  2.94273e+20
-22.4638  3.08914e+20
-22.3465  3.1866e+20
-22.2292  3.22768e+20
-22.1119  3.20927e+20
-21.9946  3.13302e+20
-21.8773  3.00643e+20
-21.76  2.84057e+20
-21.6427  2.64829e+20
-21.5254  2.44335e+20
-21.4081  2.23927e+20
-21.2908  2.04705e+20
-21.1735  1.87466e+20
-21.0561  1.72759e+20
-20.9388  1.6075e+20
-20.8215  1.51492e+20
-20.7042  1.4486e+20
-20.5869  1.40683e+20
-20.4696  1.38733e+20
-20.3523  1.38894e+20
-20.235  1.41069e+20
-20.1177  1.45327e+20
-20.0004  1.51731e+20
-19.8831  1.60337e+20
-19.7658  1.71423e+20
-19.6485  1.85048e+20
-19.5312  2.01253e+20
-19.4139  2.19869e+20
-19.2966  2.40583e+20
-19.1793  2.62826e+20
-19.062  2.85835e+20
-18.9447  3.08718e+20
-18.8274  3.30596e+20
-18.71  3.5054e+20
-18.5927  3.6795e+20
-18.4754  3.82453e+20
-18.3581  3.93843e+20
-18.2408  4.02468e+20
-18.1235  4.08628e+20
-18.0062  4.12962e+20
-17.8889  4.16102e+20
-17.7716  4.1849e+20
-17.6543  4.20896e+20
-17.537  4.23557e+20
-17.4197  4.27064e+20
-17.3024  4.31702e+20
-17.1851  4.37989e+20
-17.0678  4.4642e+20
-16.9505  4.57474e+20
-16.8332  4.71698e+20
-16.7159  4.89614e+20
-16.5986  5.11586e+20
-16.4813  5.37807e+20
-16.364  5.68256e+20
-16.2466  6.02679e+20
-16.1293  6.40295e+20
-16.012  6.80665e+20
-15.8947  7.22717e+20
-15.7774  7.65616e+20
-15.6601  8.08442e+20
-15.5428  8.50472e+20
-15.4255  8.91017e+20
-15.3082  9.29997e+20
-15.1909  9.67076e+20
-15.0736  1.00273e+21
-14.9563  1.03727e+21
-14.839  1.07147e+21
-14.7217  1.10578e+21
-14.6044  1.14105e+21
-14.4871  1.17766e+21
-14.3698  1.21597e+21
-14.2525  1.25583e+21
-14.1352  1.29683e+21
-14.0178  1.33824e+21
-13.9005  1.37918e+21
-13.7832  1.41847e+21
-13.6659  1.45497e+21
-13.5486  1.48783e+21
-13.4313  1.51633e+21
-13.314  1.53997e+21
-13.1967  1.55876e+21
-13.0794  1.57328e+21
-12.9621  1.58415e+21
-12.8448  1.59248e+21
-12.7275  1.59946e+21
-12.6102  1.60656e+21
-12.4929  1.61505e+21
-12.3756  1.62603e+21
-12.2583  1.64063e+21
-12.141  1.65955e+21
-12.0237  1.68329e+21
-11.9064  1.71198e+21
-11.7891  1.74566e+21
-11.6718  1.78426e+21
-11.5544  1.82757e+21
-11.4371  1.87533e+21
-11.3198  1.92769e+21
-11.2025  1.98484e+21
-11.0852  2.04752e+21
-10.9679  2.11677e+21
-10.8506  2.1941e+21
-10.7333  2.28131e+21
-10.616  2.38058e+21
-10.4987  2.49425e+21
-10.3814  2.62426e+21
-10.2641  2.77235e+21
-10.1468  2.94012e+21
-10.0295  3.12768e+21
-9.91217  3.33443e+21
-9.79487  3.55905e+21
-9.67756  3.7986e+21
-9.56026  4.04928e+21
-9.44295  4.30621e+21
-9.32565  4.56455e+21
-9.20834  4.81847e+21
-9.09104  5.06264e+21
-8.97373  5.29215e+21
-8.85643  5.50345e+21
-8.73913  5.6935e+21
-8.62182  5.86101e+21
-8.50452  6.00604e+21
-8.38721  6.13049e+21
-8.26991  6.23643e+21
-8.1526  6.32789e+21
-8.03529  6.40856e+21
-7.91799  6.48307e+21
-7.80069  6.55562e+21
-7.68338  6.62976e+21
-7.56608  6.70903e+21
-7.44877  6.79604e+21
-7.33146  6.89243e+21
-7.21416  6.99908e+21
-7.09685  7.11634e+21
-6.97955  7.24394e+21
-6.86224  7.38121e+21
-6.74494  7.52714e+21
-6.62763  7.68007e+21
-6.51033  7.83897e+21
-6.39302  8.00243e+21
-6.27572  8.16927e+21
-6.15842  8.33849e+21
-6.04111  8.50904e+21
-5.92381  8.68001e+21
-5.8065  8.85091e+21
-5.68919  9.02088e+21
-5.57189  9.1894e+21
-5.45458  9.35583e+21
-5.33728  9.5203e+21
-5.21997  9.68209e+21
-5.10267  9.8418e+21
-4.98536  9.99955e+21
-4.86806  1.0156e+22
-4.75075  1.03121e+22
-4.63345  1.04695e+22
-4.51614  1.06292e+22
-4.39884  1.07931e+22
-4.28154  1.09633e+22
-4.16423  1.11418e+22
-4.04692  1.13297e+22
-3.92962  1.15288e+22
-3.81231  1.17404e+22
-3.69501  1.19648e+22
-3.5777  1.2202e+22
-3.4604  1.24507e+22
-3.34309  1.27091e+22
-3.22579  1.29742e+22
-3.10849  1.32431e+22
-2.99118  1.35114e+22
-2.87387  1.37746e+22
-2.75657  1.40285e+22
-2.63926  1.42688e+22
-2.52196  1.44912e+22
-2.40465  1.46926e+22
-2.28735  1.48698e+22
-2.17005  1.50215e+22
-2.05274  1.51468e+22
-1.93544  1.52451e+22
-1.81813  1.53181e+22
-1.70083  1.53672e+22
-1.58352  1.53947e+22
-1.46622  1.54034e+22
-1.34891  1.53965e+22
-1.2316  1.53772e+22
-1.1143  1.53486e+22
-0.996995  1.53139e+22
-0.87969  1.52761e+22
-0.762385  1.52368e+22
-0.64508  1.51993e+22
-0.527775  1.51649e+22
-0.41047  1.51355e+22
-0.293165  1.5112e+22
-0.17586  1.5096e+22
-0.058555  1.50879e+22
0.05875  1.50879e+22
0.176055  1.50963e+22
0.29336  1.51123e+22
0.410665  1.51358e+22
0.52797  1.5165e+22
0.645275  1.51991e+22
0.76258  1.52362e+22
0.879885  1.52748e+22
0.99719  1.5312e+22
1.1145  1.53458e+22
1.2318  1.53731e+22
1.3491  1.53912e+22
1.46641  1.53967e+22
1.58371  1.53864e+22
1.70102  1.53573e+22
1.81832  1.53065e+22
1.93563  1.52318e+22
2.05294  1.51316e+22
2.17024  1.50049e+22
2.28754  1.48518e+22
2.40485  1.46728e+22
2.52216  1.44701e+22
2.63946  1.42463e+22
2.75677  1.40047e+22
2.87407  1.37495e+22
2.99137  1.34849e+22
3.10868  1.32155e+22
3.22599  1.29457e+22
3.34329  1.26796e+22
3.4606  1.24205e+22
3.5779  1.21711e+22
3.69521  1.19335e+22
3.81251  1.17088e+22
3.92982  1.14967e+22
4.04712  1.12972e+22
4.16443  1.11093e+22
4.28173  1.09311e+22
4.39903  1.07608e+22
4.51634  1.05969e+22
4.63364  1.04374e+22
4.75095  1.02803e+22
4.86825  1.01241e+22
4.98556  9.96756e+21
5.10286  9.80997e+21
5.22017  9.64993e+21
5.33748  9.48789e+21
5.45478  9.32323e+21
5.57209  9.15648e+21
5.68939  8.98751e+21
5.8067  8.81708e+21
5.924  8.64575e+21
6.0413  8.47446e+21
6.15861  8.30371e+21
6.27591  8.13415e+21
6.39322  7.96736e+21
6.51052  7.80396e+21
6.62783  7.64522e+21
6.74514  7.49252e+21
6.86244  7.34719e+21
6.97975  7.2104e+21
7.09705  7.08336e+21
7.21436  6.96664e+21
7.33166  6.86033e+21
7.44897  6.76448e+21
7.56627  6.67786e+21
7.68358  6.59871e+21
7.80088  6.52448e+21
7.91819  6.45179e+21
8.03549  6.37708e+21
8.1528  6.29606e+21
8.2701  6.20417e+21
8.38741  6.09766e+21
8.50471  5.97286e+21
8.62202  5.82758e+21
8.73932  5.65974e+21
8.85662  5.4698e+21
8.97393  5.2589e+21
9.09123  5.02973e+21
9.20854  4.78627e+21
9.32584  4.53336e+21
9.44315  4.27616e+21
9.56045  4.02024e+21
9.67776  3.77099e+21
9.79506  3.53273e+21
9.91237  3.30947e+21
10.0297  3.10393e+21
10.147  2.91768e+21
10.2643  2.75114e+21
10.3816  2.60396e+21
10.4989  2.47489e+21
10.6162  2.36211e+21
10.7335  2.26349e+21
10.8508  2.17692e+21
10.9681  2.10016e+21
11.0854  2.03155e+21
11.2027  1.96945e+21
11.32  1.91284e+21
11.4373  1.86105e+21
11.5546  1.81377e+21
11.6719  1.77098e+21
11.7893  1.73296e+21
11.9066  1.69977e+21
12.0239  1.67142e+21
12.1412  1.64824e+21
12.2585  1.62966e+21
12.3758  1.61544e+21
12.4931  1.60471e+21
12.6104  1.59652e+21
12.7277  1.58963e+21
12.845  1.58277e+21
12.9623  1.57453e+21
13.0796  1.56388e+21
13.1969  1.54943e+21
13.3142  1.5308e+21
13.4315  1.50726e+21
13.5488  1.47891e+21
13.6661  1.44622e+21
13.7834  1.40982e+21
13.9007  1.37074e+21
14.018  1.32999e+21
14.1354  1.28873e+21
14.2527  1.24797e+21
14.37  1.20836e+21
14.4873  1.17029e+21
14.6046  1.13381e+21
14.7219  1.09871e+21
14.8392  1.06456e+21
14.9565  1.03054e+21
15.0738  9.96206e+20
15.1911  9.60738e+20
15.3084  9.23793e+20
15.4257  8.85024e+20
15.543  8.44656e+20
15.6603  8.0288e+20
15.7776  7.60297e+20
15.8949  7.17645e+20
16.0122  6.75894e+20
16.1295  6.3581e+20
16.2468  5.98347e+20
16.3641  5.64254e+20
16.4815  5.34017e+20
16.5988  5.08004e+20
16.7161  4.86235e+20
16.8334  4.68515e+20
16.9507  4.54436e+20
17.068  4.43603e+20
17.1853  4.35384e+20
17.3026  4.29351e+20
17.4199  4.24888e+20
17.5372  4.2157e+20
17.6545  4.19115e+20
17.7718  4.16977e+20
17.8891  4.14677e+20
18.0064  4.1177e+20
18.1237  4.07596e+20
18.241  4.01486e+20
18.3583  3.92924e+20
18.4756  3.81549e+20
18.5929  3.67082e+20
18.7102  3.496e+20
18.8275  3.2967e+20
18.9449  3.07833e+20
19.0622  2.84952e+20
19.1795  2.62032e+20
19.2968  2.3983e+20
19.4141  2.19216e+20
19.5314  2.00675e+20
19.6487  1.84545e+20
19.766  1.71018e+20
19.8833  1.59972e+20
20.0006  1.51384e+20
20.1179  1.45041e+20
20.2352  1.40841e+20
20.3525  1.38666e+20
20.4698  1.3851e+20
20.5871  1.40483e+20
20.7044  1.44736e+20
20.8217  1.51448e+20
20.939  1.60808e+20
21.0563  1.72912e+20
21.1736  1.87748e+20
21.291  2.05106e+20
21.4083  2.2447e+20
21.5256  2.44927e+20
21.6429  2.65481e+20
21.7602  2.84759e+20
21.8775  3.01338e+20
21.9948  3.13908e+20
22.1121  3.21405e+20
22.2294  3.23072e+20
22.3467  3.18876e+20
22.464  3.08932e+20
22.5813  2.94132e+20
22.6986  2.75655e+20
22.8159  2.54764e+20
22.9332  2.32845e+20
23.0505  2.11122e+20
23.1678  1.90582e+20
23.2851  1.71902e+20
23.4024  1.55448e+20
23.5198  1.4135e+20
23.6371  1.29419e+20
23.7544  1.19442e+20
23.8717  1.1108e+20
23.989  1.04004e+20
24.1063  9.79095e+19
24.2236  9.26122e+19
24.3409  8.80004e+19
24.4582  8.40409e+19
24.5755  8.07498e+19
24.6928  7.81769e+19
24.8101  7.63486e+19
24.9274  7.52166e+19
25.0447  7.46672e+19
25.162  7.44628e+19
25.2793  7.43155e+19
25.3966  7.38294e+19
25.5139  7.27048e+19
25.6312  7.06641e+19
25.7485  6.75793e+19
25.8658  6.34424e+19
25.9832  5.83567e+19
26.1005  5.26367e+19
26.2178  4.65963e+19
26.3351  4.0593e+19
26.4524  3.49678e+19
26.5697  3.0025e+19
26.687  2.59691e+19
26.8043  2.29582e+19
26.9216  2.10408e+19
27.0389  2.02388e+19
27.1562  2.05028e+19
27.2735  2.16977e+19
27.3908  2.36465e+19
27.5081  2.61188e+19
27.6254  2.88075e+19
27.7427  3.14236e+19
27.86  3.36649e+19
27.9773  3.53253e+19
28.0946  3.62562e+19
28.212  3.64274e+19
28.3293  3.59732e+19
28.4466  3.50449e+19
28.5639  3.39328e+19
28.6812  3.29107e+19
28.7985  3.22204e+19
28.9158  3.20554e+19
29.0331  3.25434e+19
29.1504  3.37222e+19
29.2677  3.55933e+19
29.385  3.80582e+19
29.5023  4.10119e+19
29.6196  4.42699e+19
29.7369  4.77139e+19
29.8542  5.11651e+19
29.9715  5.44273e+19
30.0888  5.73435e+19
30.2061  5.97335e+19
30.3234  6.1492e+19
30.4407  6.25092e+19
30.558  6.26826e+19
30.6754  6.19686e+19
30.7927  6.02816e+19
30.91  5.76228e+19
31.0273  5.40258e+19
31.1446  4.94831e+19
31.2619  4.41893e+19
31.3792  3.83228e+19
31.4965  3.22417e+19
31.6138  2.63494e+19
31.7311  2.10959e+19
31.8484  1.69781e+19
31.9657  1.44338e+19
32.083  1.37713e+19
32.2003  1.51472e+19
32.3176  1.85298e+19
32.4349  2.36786e+19
32.5522  3.02266e+19
32.6695  3.76424e+19
32.7868  4.53818e+19
32.9042  5.28781e+19
33.0215  5.96377e+19
33.1388  6.53008e+19
33.2561  6.95461e+19
33.3734  7.22625e+19
33.4907  7.33811e+19
33.608  7.30211e+19
33.7253  7.13246e+19
33.8426  6.84111e+19
33.9599  6.45305e+19
34.0772  5.9815e+19
34.1945  5.44281e+19
34.3118  4.84868e+19
34.4291  4.20788e+19
34.5464  3.53131e+19
34.6637  2.83463e+19
34.781  2.14358e+19
34.8983  1.49078e+19
35.0156  9.15982e+18
35.1329  4.62615e+18
35.2503  1.6838e+18
35.3676  5.69031e+17
35.4849  1.30171e+18
35.6022  3.63783e+18
35.7195  7.0758e+18
35.8368  1.09197e+19
35.9541  1.44331e+19
36.0714  1.68926e+19
36.1887  1.78162e+19
36.306  1.70513e+19
36.4233  1.47649e+19
36.5406  1.14278e+19
36.6579  7.71842e+18
36.7752  4.37264e+18
36.8925  1.98854e+18
37.0098  9.21076e+17
37.1271  1.21691e+18
37.2444  2.62121e+18
37.3617  4.65643e+18
37.479  6.75429e+18
37.5964  8.41092e+18
37.7137  9.31472e+18
37.831  9.37851e+18
37.9483  8.77502e+18
38.0656  7.86195e+18
38.1829  7.07781e+18
38.3002  6.81904e+18
38.4175  7.37071e+18
38.5348  8.81747e+18
38.6521  1.10542e+19
38.7694  1.38511e+19
38.8867  1.68542e+19
39.004  1.97066e+19
39.1213  2.20825e+19
39.2386  2.37434e+19
39.3559  2.4536e+19
39.4732  2.43665e+19
39.5905  2.32276e+19
39.7078  2.11567e+19
39.8251  1.82817e+19
39.9425  1.48249e+19
40.0598  1.1088e+19
40.1771  7.45881e+18
40.2944  4.3585e+18
40.4117  2.21302e+18
40.529  1.34946e+18
40.6463  1.94571e+18
40.7636  3.96515e+18
40.8809  7.15621e+18
40.9982  1.11002e+19
41.1155  1.52494e+19
41.2328  1.90602e+19
41.3501  2.20662e+19
41.4674  2.39893e+19
41.5847  2.47237e+19
41.702  2.4391e+19
41.8193  2.32614e+19
41.9366  2.16722e+19
42.0539  2.00034e+19
42.1712  1.85594e+19
42.2885  1.75407e+19
42.4059  1.70124e+19
42.5232  1.69172e+19
42.6405  1.71113e+19
42.7578  1.73292e+19
42.8751  1.72969e+19
42.9924  1.67768e+19
43.1097  1.55544e+19
43.227  1.35824e+19
43.3443  1.10011e+19
43.4616  8.16626e+18
43.5789  5.64848e+18
43.6962  4.16328e+18
43.8135  4.47047e+18
43.9308  7.21686e+18
44.0481  1.27762e+19
44.1654  2.11014e+19
44.2827  3.16681e+19
44.4  4.34763e+19
44.5173  5.51695e+19
44.6347  6.52791e+19
44.752  7.24577e+19
44.8693  7.56552e+19
44.9866  7.44185e+19
45.1039  6.89581e+19
45.2212  6.00069e+19
45.3385  4.88142e+19
45.4558  3.68195e+19
45.5731  2.53949e+19
45.6904  1.56506e+19
45.8077  8.32405e+18
45.925  3.63217e+18
46.0423  1.40377e+18
46.1596  1.14888e+18
46.2769  2.22713e+18
46.3942  3.9926e+18
46.5115  5.91169e+18
46.6288  7.61267e+18
46.7461  8.91266e+18
46.8634  9.76547e+18
46.9808  1.02195e+19
47.0981  1.03849e+19
47.2154  1.0352e+19
47.3327  1.02233e+19
47.45  1.00283e+19
47.5673  9.81571e+18
47.6846  9.60326e+18
47.8019  9.36297e+18
47.9192  9.06575e+18
48.0365  8.67504e+18
48.1538  8.1374e+18
48.2711  7.42757e+18
48.3884  6.51767e+18
48.5057  5.45602e+18
48.623  4.31511e+18
48.7403  3.25075e+18
48.8576  2.43554e+18
48.9749  2.0617e+18
49.0922  2.31548e+18
49.2095  3.33287e+18
49.3269  5.19604e+18
49.4442  7.92031e+18
49.5615  1.14345e+19
49.6788  1.55901e+19
49.7961  2.01963e+19
49.9134  2.49387e+19
50.0307  2.953e+19
50.148  3.36308e+19
50.2653  3.68459e+19
50.3826  3.887e+19
50.4999  3.94776e+19
50.6172  3.85449e+19
50.7345  3.61129e+19
