#S 1 spectral density
#N 2
#UFWHM 13.9593
#L  abscissas [um]  spectral density
-58.5938  1.73909e+19
-58.4764  1.57545e+19
-58.3591  1.48175e+19
-58.2418  1.4829e+19
-58.1245  1.57181e+19
-58.0072  1.71535e+19
-57.8899  1.86614e+19
-57.7726  1.97267e+19
-57.6553  1.99469e+19
-57.538  1.91468e+19
-57.4207  1.74257e+19
-57.3034  1.5097e+19
-57.1861  1.26453e+19
-57.0688  1.05862e+19
-56.9515  9.36845e+18
-56.8342  9.24659e+18
-56.7169  1.03406e+19
-56.5996  1.25114e+19
-56.4823  1.55297e+19
-56.365  1.90678e+19
-56.2477  2.27199e+19
-56.1303  2.61591e+19
-56.013  2.90589e+19
-55.8957  3.11485e+19
-55.7784  3.21976e+19
-55.6611  3.20672e+19
-55.5438  3.07174e+19
-55.4265  2.82414e+19
-55.3092  2.48461e+19
-55.1919  2.08616e+19
-55.0746  1.67577e+19
-54.9573  1.29745e+19
-54.84  9.97307e+18
-54.7227  8.04945e+18
-54.6054  7.36795e+18
-54.4881  7.86967e+18
-54.3708  9.31538e+18
-54.2535  1.13457e+19
-54.1362  1.35388e+19
-54.0189  1.5489e+19
-53.9016  1.6867e+19
-53.7842  1.74728e+19
-53.6669  1.72199e+19
-53.5496  1.61829e+19
-53.4323  1.44805e+19
-53.315  1.2335e+19
-53.1977  9.96871e+18
-53.0804  7.58675e+18
-52.9631  5.41502e+18
-52.8458  3.6106e+18
-52.7285  2.27803e+18
-52.6112  1.4815e+18
-52.4939  1.20095e+18
-52.3766  1.35894e+18
-52.2593  1.81926e+18
-52.142  2.4246e+18
-52.0247  3.01847e+18
-51.9074  3.47604e+18
-51.7901  3.72523e+18
-51.6728  3.76755e+18
-51.5555  3.64162e+18
-51.4381  3.43341e+18
-51.3208  3.22936e+18
-51.2035  3.0952e+18
-51.0862  3.06889e+18
-50.9689  3.14692e+18
-50.8516  3.30194e+18
-50.7343  3.52532e+18
-50.617  3.80282e+18
-50.4997  4.1454e+18
-50.3824  4.59824e+18
-50.2651  5.19547e+18
-50.1478  5.9804e+18
-50.0305  6.94256e+18
-49.9132  8.06349e+18
-49.7959  9.27189e+18
-49.6786  1.04931e+19
-49.5613  1.1641e+19
-49.444  1.26427e+19
-49.3267  1.34602e+19
-49.2094  1.40911e+19
-49.092  1.45317e+19
-48.9747  1.47994e+19
-48.8574  1.48951e+19
-48.7401  1.482e+19
-48.6228  1.45628e+19
-48.5055  1.41506e+19
-48.3882  1.35891e+19
-48.2709  1.29555e+19
-48.1536  1.23446e+19
-48.0363  1.18663e+19
-47.919  1.16411e+19
-47.8017  1.18004e+19
-47.6844  1.23995e+19
-47.5671  1.34756e+19
-47.4498  1.49848e+19
-47.3325  1.68546e+19
-47.2152  1.88949e+19
-47.0979  2.09057e+19
-46.9806  2.26175e+19
-46.8633  2.37635e+19
-46.7459  2.40479e+19
-46.6286  2.33174e+19
-46.5113  2.15255e+19
-46.394  1.88414e+19
-46.2767  1.56409e+19
-46.1594  1.25112e+19
-46.0421  1.01911e+19
-45.9248  9.39813e+18
-45.8075  1.07221e+19
-45.6902  1.44432e+19
-45.5729  2.04083e+19
-45.4556  2.80668e+19
-45.3383  3.63788e+19
-45.221  4.41834e+19
-45.1037  5.01994e+19
-44.9864  5.33866e+19
-44.8691  5.3181e+19
-44.7518  4.95245e+19
-44.6345  4.29254e+19
-44.5172  3.43948e+19
-44.3998  2.51848e+19
-44.2825  1.6574e+19
-44.1652  9.63229e+18
-44.0479  5.04487e+18
-43.9306  3.04311e+18
-43.8133  3.4061e+18
-43.696  5.56311e+18
-43.5787  8.75695e+18
-43.4614  1.22148e+19
-43.3441  1.52599e+19
-43.2268  1.74178e+19
-43.1095  1.84655e+19
-42.9922  1.83805e+19
-42.8749  1.72923e+19
-42.7576  1.54375e+19
-42.6403  1.31157e+19
-42.523  1.05883e+19
-42.4057  8.12274e+18
-42.2884  5.92312e+18
-42.171  4.14565e+18
-42.0537  2.87441e+18
-41.9364  2.12938e+18
-41.8191  1.87503e+18
-41.7018  2.00682e+18
-41.5845  2.40731e+18
-41.4672  2.95417e+18
-41.3499  3.55309e+18
-41.2326  4.15815e+18
-41.1153  4.77367e+18
-40.998  5.42087e+18
-40.8807  6.1283e+18
-40.7634  6.87671e+18
-40.6461  7.60038e+18
-40.5288  8.16835e+18
-40.4115  8.42321e+18
-40.2942  8.24621e+18
-40.1769  7.59075e+18
-40.0596  6.51344e+18
-39.9423  5.22437e+18
-39.825  4.03354e+18
-39.7076  3.28125e+18
-39.5903  3.26209e+18
-39.473  4.14443e+18
-39.3557  5.92813e+18
-39.2384  8.41334e+18
-39.1211  1.12406e+19
-39.0038  1.39862e+19
-38.8865  1.62426e+19
-38.7692  1.77001e+19
-38.6519  1.82337e+19
-38.5346  1.78693e+19
-38.4173  1.67865e+19
-38.3  1.52149e+19
-38.1827  1.34166e+19
-38.0654  1.15648e+19
-37.9481  9.77705e+18
-37.8308  8.08929e+18
-37.7135  6.52545e+18
-37.5962  5.14485e+18
-37.4789  4.09433e+18
-37.3615  3.61816e+18
-37.2442  4.02331e+18
-37.1269  5.60361e+18
-37.0096  8.54171e+18
-36.8923  1.28536e+19
-36.775  1.83049e+19
-36.6577  2.44439e+19
-36.5404  3.06183e+19
-36.4231  3.61396e+19
-36.3058  4.0378e+19
-36.1885  4.2892e+19
-36.0712  4.34986e+19
-35.9539  4.23067e+19
-35.8366  3.96933e+19
-35.7193  3.62295e+19
-35.602  3.24432e+19
-35.4847  2.89153e+19
-35.3674  2.60195e+19
-35.2501  2.39491e+19
-35.1328  2.27142e+19
-35.0154  2.22051e+19
-34.8981  2.22274e+19
-34.7808  2.25888e+19
-34.6635  2.31082e+19
-34.5462  2.36992e+19
-34.4289  2.43585e+19
-34.3116  2.50588e+19
-34.1943  2.5828e+19
-34.077  2.66422e+19
-33.9597  2.74683e+19
-33.8424  2.82001e+19
-33.7251  2.8773e+19
-33.6078  2.90544e+19
-33.4905  2.89819e+19
-33.3732  2.85238e+19
-33.2559  2.76907e+19
-33.1386  2.65414e+19
-33.0213  2.51828e+19
-32.904  2.37565e+19
-32.7867  2.24203e+19
-32.6693  2.12994e+19
-32.552  2.05205e+19
-32.4347  2.01384e+19
-32.3174  2.01836e+19
-32.2001  2.05778e+19
-32.0828  2.11846e+19
-31.9655  2.18028e+19
-31.8482  2.22233e+19
-31.7309  2.22141e+19
-31.6136  2.15996e+19
-31.4963  2.02986e+19
-31.379  1.83237e+19
-31.2617  1.58053e+19
-31.1444  1.29646e+19
-31.0271  1.00833e+19
-30.9098  7.45052e+18
-30.7925  5.34945e+18
-30.6752  3.98928e+18
-30.5579  3.49786e+18
-30.4406  3.90985e+18
-30.3232  5.18099e+18
-30.2059  7.17695e+18
-30.0886  9.71722e+18
-29.9713  1.25986e+19
-29.854  1.55727e+19
-29.7367  1.83945e+19
-29.6194  2.08737e+19
-29.5021  2.28593e+19
-29.3848  2.42698e+19
-29.2675  2.51242e+19
-29.1502  2.5545e+19
-29.0329  2.57765e+19
-28.9156  2.60859e+19
-28.7983  2.67725e+19
-28.681  2.81211e+19
-28.5637  3.02976e+19
-28.4464  3.33801e+19
-28.3291  3.72823e+19
-28.2118  4.17918e+19
-28.0944  4.66264e+19
-27.9771  5.14287e+19
-27.8598  5.58339e+19
-27.7425  5.95572e+19
-27.6252  6.2301e+19
-27.5079  6.39666e+19
-27.3906  6.45112e+19
-27.2733  6.40491e+19
-27.156  6.27463e+19
-27.0387  6.09246e+19
-26.9214  5.89567e+19
-26.8041  5.72598e+19
-26.6868  5.62543e+19
-26.5695  5.62723e+19
-26.4522  5.75327e+19
-26.3349  6.01514e+19
-26.2176  6.39872e+19
-26.1003  6.87756e+19
-25.983  7.40653e+19
-25.8657  7.93463e+19
-25.7483  8.4168e+19
-25.631  8.81246e+19
-25.5137  9.10479e+19
-25.3964  9.28866e+19
-25.2791  9.38114e+19
-25.1618  9.41574e+19
-25.0445  9.43199e+19
-24.9272  9.46529e+19
-24.8099  9.54567e+19
-24.6926  9.68839e+19
-24.5753  9.89668e+19
-24.458  1.01451e+20
-24.3407  1.04079e+20
-24.2234  1.06423e+20
-24.1061  1.08071e+20
-23.9888  1.08622e+20
-23.8715  1.07759e+20
-23.7542  1.05337e+20
-23.6369  1.01386e+20
-23.5196  9.61275e+19
-23.4023  8.99235e+19
-23.2849  8.32769e+19
-23.1676  7.67519e+19
-23.0503  7.0861e+19
-22.933  6.60616e+19
-22.8157  6.26153e+19
-22.6984  6.06195e+19
-22.5811  6.00483e+19
-22.4638  6.07472e+19
-22.3465  6.25747e+19
-22.2292  6.54332e+19
-22.1119  6.9341e+19
-21.9946  7.44281e+19
-21.8773  8.09714e+19
-21.76  8.92784e+19
-21.6427  9.95917e+19
-21.5254  1.12022e+20
-21.4081  1.26538e+20
-21.2908  1.42846e+20
-21.1735  1.60452e+20
-21.0561  1.78718e+20
-20.9388  1.96819e+20
-20.8215  2.14066e+20
-20.7042  2.29647e+20
-20.5869  2.42997e+20
-20.4696  2.53537e+20
-20.3523  2.6095e+20
-20.235  2.64941e+20
-20.1177  2.65565e+20
-20.0004  2.62885e+20
-19.8831  2.57134e+20
-19.7658  2.48832e+20
-19.6485  2.38629e+20
-19.5312  2.27301e+20
-19.4139  2.15724e+20
-19.2966  2.04805e+20
-19.1793  1.95442e+20
-19.062  1.88454e+20
-18.9447  1.84594e+20
-18.8274  1.84564e+20
-18.71  1.88811e+20
-18.5927  1.97836e+20
-18.4754  2.11983e+20
-18.3581  2.31361e+20
-18.2408  2.56056e+20
-18.1235  2.85711e+20
-18.0062  3.19817e+20
-17.8889  3.57531e+20
-17.7716  3.97472e+20
-17.6543  4.38515e+20
-17.537  4.78927e+20
-17.4197  5.17399e+20
-17.3024  5.52494e+20
-17.1851  5.83351e+20
-17.0678  6.09437e+20
-16.9505  6.3058e+20
-16.8332  6.47124e+20
-16.7159  6.5985e+20
-16.5986  6.69836e+20
-16.4813  6.78286e+20
-16.364  6.86578e+20
-16.2466  6.95993e+20
-16.1293  7.07349e+20
-16.012  7.21893e+20
-15.8947  7.3992e+20
-15.7774  7.61702e+20
-15.6601  7.87031e+20
-15.5428  8.154e+20
-15.4255  8.45854e+20
-15.3082  8.77467e+20
-15.1909  9.08753e+20
-15.0736  9.38645e+20
-14.9563  9.65887e+20
-14.839  9.89683e+20
-14.7217  1.00919e+21
-14.6044  1.02448e+21
-14.4871  1.03559e+21
-14.3698  1.04333e+21
-14.2525  1.04862e+21
-14.1352  1.05282e+21
-14.0178  1.05746e+21
-13.9005  1.06416e+21
-13.7832  1.07452e+21
-13.6659  1.08999e+21
-13.5486  1.11201e+21
-13.4313  1.1417e+21
-13.314  1.17973e+21
-13.1967  1.22658e+21
-13.0794  1.2825e+21
-12.9621  1.34731e+21
-12.8448  1.42057e+21
-12.7275  1.50171e+21
-12.6102  1.58996e+21
-12.4929  1.68444e+21
-12.3756  1.78414e+21
-12.2583  1.88813e+21
-12.141  1.99538e+21
-12.0237  2.10495e+21
-11.9064  2.21569e+21
-11.7891  2.32666e+21
-11.6718  2.43681e+21
-11.5544  2.545e+21
-11.4371  2.64992e+21
-11.3198  2.75064e+21
-11.2025  2.84591e+21
-11.0852  2.93496e+21
-10.9679  3.01713e+21
-10.8506  3.09217e+21
-10.7333  3.16017e+21
-10.616  3.22201e+21
-10.4987  3.2791e+21
-10.3814  3.33307e+21
-10.2641  3.38626e+21
-10.1468  3.4418e+21
-10.0295  3.50227e+21
-9.91217  3.57053e+21
-9.79487  3.64971e+21
-9.67756  3.74184e+21
-9.56026  3.84869e+21
-9.44295  3.97101e+21
-9.32565  4.10931e+21
-9.20834  4.26266e+21
-9.09104  4.42967e+21
-8.97373  4.60827e+21
-8.85643  4.79633e+21
-8.73913  4.99094e+21
-8.62182  5.18947e+21
-8.50452  5.38949e+21
-8.38721  5.58906e+21
-8.26991  5.78607e+21
-8.1526  5.97944e+21
-8.03529  6.16793e+21
-7.91799  6.35101e+21
-7.80069  6.52852e+21
-7.68338  6.69998e+21
-7.56608  6.86557e+21
-7.44877  7.02537e+21
-7.33146  7.1793e+21
-7.21416  7.32737e+21
-7.09685  7.46951e+21
-6.97955  7.6059e+21
-6.86224  7.73666e+21
-6.74494  7.8623e+21
-6.62763  7.98287e+21
-6.51033  8.09965e+21
-6.39302  8.21387e+21
-6.27572  8.32712e+21
-6.15842  8.44154e+21
-6.04111  8.55919e+21
-5.92381  8.68241e+21
-5.8065  8.81346e+21
-5.68919  8.95385e+21
-5.57189  9.10498e+21
-5.45458  9.26752e+21
-5.33728  9.44161e+21
-5.21997  9.62588e+21
-5.10267  9.8192e+21
-4.98536  1.00193e+22
-4.86806  1.02235e+22
-4.75075  1.04293e+22
-4.63345  1.06343e+22
-4.51614  1.08359e+22
-4.39884  1.10324e+22
-4.28154  1.1223e+22
-4.16423  1.1408e+22
-4.04692  1.15874e+22
-3.92962  1.17634e+22
-3.81231  1.19382e+22
-3.69501  1.2114e+22
-3.5777  1.22938e+22
-3.4604  1.24799e+22
-3.34309  1.26735e+22
-3.22579  1.28752e+22
-3.10849  1.30853e+22
-2.99118  1.33016e+22
-2.87387  1.35217e+22
-2.75657  1.37419e+22
-2.63926  1.39578e+22
-2.52196  1.41645e+22
-2.40465  1.43571e+22
-2.28735  1.45306e+22
-2.17005  1.46813e+22
-2.05274  1.4806e+22
-1.93544  1.49022e+22
-1.81813  1.49694e+22
-1.70083  1.5008e+22
-1.58352  1.50196e+22
-1.46622  1.50071e+22
-1.34891  1.49738e+22
-1.2316  1.49242e+22
-1.1143  1.48625e+22
-0.996995  1.47933e+22
-0.87969  1.47211e+22
-0.762385  1.4649e+22
-0.64508  1.45812e+22
-0.527775  1.45206e+22
-0.41047  1.44691e+22
-0.293165  1.44287e+22
-0.17586  1.4401e+22
-0.058555  1.4387e+22
0.05875  1.43868e+22
0.176055  1.44005e+22
0.29336  1.44277e+22
0.410665  1.44675e+22
0.52797  1.45183e+22
0.645275  1.45784e+22
0.76258  1.46455e+22
0.879885  1.47167e+22
0.99719  1.47883e+22
1.1145  1.48566e+22
1.2318  1.49172e+22
1.3491  1.49658e+22
1.46641  1.49978e+22
1.58371  1.50091e+22
1.70102  1.49961e+22
1.81832  1.49561e+22
1.93563  1.48876e+22
2.05294  1.47899e+22
2.17024  1.46642e+22
2.28754  1.45124e+22
2.40485  1.43375e+22
2.52216  1.41439e+22
2.63946  1.39362e+22
2.75677  1.37193e+22
2.87407  1.34983e+22
2.99137  1.32775e+22
3.10868  1.30604e+22
3.22599  1.28498e+22
3.34329  1.26475e+22
3.4606  1.24535e+22
3.5779  1.22672e+22
3.69521  1.20872e+22
3.81251  1.19112e+22
3.92982  1.17361e+22
4.04712  1.15598e+22
4.16443  1.13801e+22
4.28173  1.11949e+22
4.39903  1.10038e+22
4.51634  1.08068e+22
4.63364  1.06049e+22
4.75095  1.03995e+22
4.86825  1.0193e+22
4.98556  9.9881e+21
5.10286  9.78753e+21
5.22017  9.5934e+21
5.33748  9.40846e+21
5.45478  9.2339e+21
5.57209  9.07079e+21
5.68939  8.91899e+21
5.8067  8.77799e+21
5.924  8.64656e+21
6.0413  8.52305e+21
6.15861  8.40523e+21
6.27591  8.29053e+21
6.39322  8.17724e+21
6.51052  8.06296e+21
6.62783  7.94616e+21
6.74514  7.82551e+21
6.86244  7.70014e+21
6.97975  7.56938e+21
7.09705  7.43312e+21
7.21436  7.29104e+21
7.33166  7.1429e+21
7.44897  6.98915e+21
7.56627  6.82961e+21
7.68358  6.66409e+21
7.80088  6.49286e+21
7.91819  6.31568e+21
8.03549  6.13302e+21
8.1528  5.94516e+21
8.2701  5.75245e+21
8.38741  5.55625e+21
8.50471  5.35763e+21
8.62202  5.15876e+21
8.73932  4.96124e+21
8.85662  4.76792e+21
8.97393  4.58121e+21
9.09123  4.40379e+21
9.20854  4.23799e+21
9.32584  4.08579e+21
9.44315  3.94851e+21
9.56045  3.82681e+21
9.67776  3.72079e+21
9.79506  3.62907e+21
9.91237  3.55031e+21
10.0297  3.48214e+21
10.147  3.42188e+21
10.2643  3.36645e+21
10.3816  3.31308e+21
10.4989  3.25904e+21
10.6162  3.20196e+21
10.7335  3.14002e+21
10.8508  3.07198e+21
10.9681  2.99699e+21
11.0854  2.91505e+21
11.2027  2.82622e+21
11.32  2.73116e+21
11.4373  2.63081e+21
11.5546  2.52615e+21
11.6719  2.41834e+21
11.7893  2.30869e+21
11.9066  2.19822e+21
12.0239  2.08783e+21
12.1412  1.97894e+21
12.2585  1.87223e+21
12.3758  1.7689e+21
12.4931  1.66985e+21
12.6104  1.57609e+21
12.7277  1.48854e+21
12.845  1.40805e+21
12.9623  1.33541e+21
13.0796  1.27138e+21
13.1969  1.21601e+21
13.3142  1.1698e+21
13.4315  1.13234e+21
13.5488  1.10313e+21
13.6661  1.08152e+21
13.7834  1.06637e+21
13.9007  1.05632e+21
14.018  1.04982e+21
14.1354  1.04545e+21
14.2527  1.04149e+21
14.37  1.03638e+21
14.4873  1.02887e+21
14.6046  1.01789e+21
14.7219  1.00285e+21
14.8392  9.83529e+20
14.9565  9.59988e+20
15.0738  9.33037e+20
15.1911  9.03382e+20
15.3084  8.72317e+20
15.4257  8.40983e+20
15.543  8.10739e+20
15.6603  7.82594e+20
15.7776  7.57459e+20
15.8949  7.35832e+20
16.0122  7.18001e+20
16.1295  7.0362e+20
16.2468  6.9223e+20
16.3641  6.82983e+20
16.4815  6.74743e+20
16.5988  6.66319e+20
16.7161  6.56384e+20
16.8334  6.43687e+20
16.9507  6.27154e+20
17.068  6.06111e+20
17.1853  5.80137e+20
17.3026  5.49413e+20
17.4199  5.14393e+20
17.5372  4.76032e+20
17.6545  4.35784e+20
17.7718  3.95001e+20
17.8891  3.55142e+20
18.0064  3.17718e+20
18.1237  2.8385e+20
18.241  2.54362e+20
18.3583  2.29874e+20
18.4756  2.10678e+20
18.5929  1.96725e+20
18.7102  1.87802e+20
18.8275  1.83701e+20
18.9449  1.83861e+20
19.0622  1.87767e+20
19.1795  1.94814e+20
19.2968  2.04181e+20
19.4141  2.15083e+20
19.5314  2.26573e+20
19.6487  2.37759e+20
19.766  2.47855e+20
19.8833  2.55927e+20
20.0006  2.61504e+20
20.1179  2.64054e+20
20.2352  2.63319e+20
20.3525  2.59174e+20
20.4698  2.51667e+20
20.5871  2.41072e+20
20.7044  2.27736e+20
20.8217  2.122e+20
20.939  1.95086e+20
21.0563  1.7708e+20
21.1736  1.58991e+20
21.291  1.4156e+20
21.4083  1.25472e+20
21.5256  1.11124e+20
21.6429  9.88921e+19
21.7602  8.87579e+19
21.8775  8.06063e+19
21.9948  7.41748e+19
22.1121  6.91865e+19
22.2294  6.53541e+19
22.3467  6.25777e+19
22.464  6.08001e+19
22.5813  6.01505e+19
22.6986  6.07913e+19
22.8159  6.28519e+19
22.9332  6.63743e+19
23.0505  7.12437e+19
23.1678  7.71854e+19
23.2851  8.37487e+19
23.4024  9.04118e+19
23.5198  9.66282e+19
23.6371  1.01869e+20
23.7544  1.0578e+20
23.8717  1.08149e+20
23.989  1.0897e+20
24.1063  1.0838e+20
24.2236  1.06697e+20
24.3409  1.04321e+20
24.4582  1.01701e+20
24.5755  9.92072e+19
24.6928  9.71762e+19
24.8101  9.57709e+19
24.9274  9.49947e+19
25.0447  9.4687e+19
25.162  9.45341e+19
25.2793  9.41802e+19
25.3966  9.31926e+19
25.5139  9.13034e+19
25.6312  8.83207e+19
25.7485  8.42798e+19
25.8658  7.94211e+19
25.9832  7.40567e+19
26.1005  6.87706e+19
26.2178  6.40074e+19
26.3351  6.01752e+19
26.4524  5.75849e+19
26.5697  5.63495e+19
26.687  5.63693e+19
26.8043  5.74101e+19
26.9216  5.91271e+19
27.0389  6.1058e+19
27.1562  6.28318e+19
27.2735  6.4068e+19
27.3908  6.44673e+19
27.5081  6.3839e+19
27.6254  6.20978e+19
27.7427  5.92936e+19
27.86  5.5547e+19
27.9773  5.11123e+19
28.0946  4.63173e+19
28.212  4.149e+19
28.3293  3.70143e+19
28.4466  3.31619e+19
28.5639  3.01303e+19
28.6812  2.80107e+19
28.7985  2.67101e+19
28.9158  2.60533e+19
29.0331  2.57736e+19
29.1504  2.5554e+19
29.2677  2.5134e+19
29.385  2.42769e+19
29.5023  2.28655e+19
29.6196  2.08625e+19
29.7369  1.83695e+19
29.8542  1.55405e+19
29.9715  1.25684e+19
30.0888  9.69658e+18
30.2061  7.15092e+18
30.3234  5.16408e+18
30.4407  3.90945e+18
30.558  3.5059e+18
30.6754  4.00365e+18
30.7927  5.36334e+18
30.91  7.45568e+18
31.0273  1.00639e+19
31.1446  1.29252e+19
31.2619  1.57381e+19
31.3792  1.82311e+19
31.4965  2.01723e+19
31.6138  2.1451e+19
31.7311  2.20567e+19
31.8484  2.20734e+19
31.9657  2.16781e+19
32.083  2.10809e+19
32.2003  2.05091e+19
32.3176  2.01667e+19
32.4349  2.01641e+19
32.5522  2.05875e+19
32.6695  2.14039e+19
32.7868  2.25587e+19
32.9042  2.39307e+19
33.0215  2.53601e+19
33.1388  2.67365e+19
33.2561  2.78805e+19
33.3734  2.87279e+19
33.4907  2.91702e+19
33.608  2.92287e+19
33.7253  2.89434e+19
33.8426  2.83577e+19
33.9599  2.76155e+19
34.0772  2.67802e+19
34.1945  2.59558e+19
34.3118  2.51865e+19
34.4291  2.44864e+19
34.5464  2.38382e+19
34.6637  2.32279e+19
34.781  2.27115e+19
34.8983  2.23671e+19
35.0156  2.23637e+19
35.1329  2.28892e+19
35.2503  2.41467e+19
35.3676  2.62474e+19
35.4849  2.91656e+19
35.6022  3.27051e+19
35.7195  3.64636e+19
35.8368  3.99329e+19
35.9541  4.24817e+19
36.0714  4.36347e+19
36.1887  4.2953e+19
36.306  4.03795e+19
36.4233  3.60937e+19
36.5406  3.05363e+19
36.6579  2.43321e+19
36.7752  1.81961e+19
36.8925  1.27479e+19
37.0098  8.45531e+18
37.1271  5.53907e+18
37.2444  3.98965e+18
37.3617  3.61071e+18
37.479  4.10711e+18
37.5964  5.17825e+18
37.7137  6.57519e+18
37.831  8.15617e+18
37.9483  9.86343e+18
38.0656  1.16609e+19
38.1829  1.35243e+19
38.3002  1.53346e+19
38.4175  1.68917e+19
38.5348  1.79732e+19
38.6521  1.83148e+19
38.7694  1.77569e+19
38.8867  1.62675e+19
39.004  1.39834e+19
39.1213  1.12139e+19
39.2386  8.36821e+18
39.3559  5.8852e+18
39.4732  4.10838e+18
39.5905  3.2356e+18
39.7078  3.27216e+18
39.8251  4.04485e+18
39.9425  5.2505e+18
40.0598  6.53836e+18
40.1771  7.60966e+18
40.2944  8.26844e+18
40.4117  8.43217e+18
40.529  8.16201e+18
40.6463  7.59257e+18
40.7636  6.85948e+18
40.8809  6.10375e+18
40.9982  5.39623e+18
41.1155  4.74295e+18
41.2328  4.1319e+18
41.3501  3.52386e+18
41.4674  2.9291e+18
41.5847  2.38993e+18
41.702  1.99712e+18
41.8193  1.8762e+18
41.9366  2.1473e+18
42.0539  2.90591e+18
42.1712  4.18813e+18
42.2885  5.96838e+18
42.4059  8.1638e+18
42.5232  1.06162e+19
42.6405  1.3118e+19
42.7578  1.54148e+19
42.8751  1.72259e+19
42.9924  1.82702e+19
43.1097  1.83315e+19
43.227  1.725e+19
43.3443  1.50698e+19
43.4616  1.20342e+19
43.5789  8.60487e+18
43.6962  5.45378e+18
43.8135  3.36321e+18
43.9308  3.08716e+18
44.0481  5.18051e+18
44.1654  9.84199e+18
44.2827  1.68477e+19
44.4  2.54934e+19
44.5173  3.46985e+19
44.6347  4.31741e+19
44.752  4.96725e+19
44.8693  5.321e+19
44.9866  5.33166e+19
45.1039  4.99921e+19
45.2212  4.39105e+19
45.3385  3.60883e+19
45.4558  2.77603e+19
45.5731  2.01693e+19
45.6904  1.42793e+19
45.8077  1.06653e+19
45.925  9.44617e+18
46.0423  1.03279e+19
46.1596  1.27122e+19
46.2769  1.58737e+19
46.3942  1.90771e+19
46.5115  2.17509e+19
46.6288  2.35087e+19
46.7461  2.41954e+19
46.8634  2.38598e+19
46.9808  2.26826e+19
47.0981  2.09311e+19
47.2154  1.89005e+19
47.3327  1.68336e+19
47.45  1.49733e+19
47.5673  1.34639e+19
47.6846  1.23901e+19
47.8019  1.18039e+19
47.9192  1.16579e+19
48.0365  1.18884e+19
48.1538  1.23728e+19
48.2711  1.29907e+19
48.3884  1.36167e+19
48.5057  1.41757e+19
48.623  1.45828e+19
48.7403  1.48133e+19
48.8576  1.48925e+19
48.9749  1.47993e+19
49.0922  1.45384e+19
49.2095  1.41075e+19
49.3269  1.34931e+19
49.4442  1.26722e+19
49.5615  1.16696e+19
49.6788  1.05224e+19
49.7961  9.28643e+18
49.9134  8.0627e+18
50.0307  6.92149e+18
50.148  5.9319e+18
50.2653  5.1356e+18
50.3826  4.53009e+18
50.4999  4.08109e+18
50.6172  3.74689e+18
50.7345  3.48345e+18
50.8518  3.27844e+18
