#S 1 spectral density
#N 2
#UFWHM 13.7247
#L  abscissas [um]  spectral density
-58.5938  4.10007e+18
-58.4764  2.60668e+18
-58.3591  2.43897e+18
-58.2418  3.69635e+18
-58.1245  6.16086e+18
-58.0072  9.37242e+18
-57.8899  1.27034e+19
-57.7726  1.55115e+19
-57.6553  1.73077e+19
-57.538  1.78069e+19
-57.4207  1.69876e+19
-57.3034  1.50883e+19
-57.1861  1.24881e+19
-57.0688  9.6294e+18
-56.9515  6.89215e+18
-56.8342  4.57411e+18
-56.7169  2.82995e+18
-56.5996  1.70477e+18
-56.4823  1.15315e+18
-56.365  1.0983e+18
-56.2477  1.45219e+18
-56.1303  2.12038e+18
-56.013  2.99769e+18
-55.8957  3.95535e+18
-55.7784  4.84369e+18
-55.6611  5.4899e+18
-55.5438  5.72862e+18
-55.4265  5.46543e+18
-55.3092  4.70671e+18
-55.1919  3.58162e+18
-55.0746  2.32895e+18
-54.9573  1.26553e+18
-54.84  7.01914e+17
-54.7227  8.7473e+17
-54.6054  1.88726e+18
-54.4881  3.66598e+18
-54.3708  5.97576e+18
-54.2535  8.48467e+18
-54.1362  1.0818e+19
-54.0189  1.26118e+19
-53.9016  1.36522e+19
-53.7842  1.38642e+19
-53.6669  1.32917e+19
-53.5496  1.21106e+19
-53.4323  1.05661e+19
-53.315  8.90859e+18
-53.1977  7.3572e+18
-53.0804  6.06167e+18
-52.9631  5.08907e+18
-52.8458  4.42889e+18
-52.7285  4.0242e+18
-52.6112  3.78405e+18
-52.4939  3.62027e+18
-52.3766  3.46869e+18
-52.2593  3.30481e+18
-52.142  3.15202e+18
-52.0247  3.07885e+18
-51.9074  3.19819e+18
-51.7901  3.6296e+18
-51.6728  4.47412e+18
-51.5555  5.7765e+18
-51.4381  7.51799e+18
-51.3208  9.54713e+18
-51.2035  1.1662e+19
-51.0862  1.35566e+19
-50.9689  1.49489e+19
-50.8516  1.56036e+19
-50.7343  1.53467e+19
-50.617  1.42e+19
-50.4997  1.23171e+19
-50.3824  9.98755e+18
-50.2651  7.60397e+18
-50.1478  5.56067e+18
-50.0305  4.20894e+18
-49.9132  3.79944e+18
-49.7959  4.42226e+18
-49.6786  6.00511e+18
-49.5613  8.33507e+18
-49.444  1.10975e+19
-49.3267  1.39036e+19
-49.2094  1.63675e+19
-49.092  1.81886e+19
-48.9747  1.90975e+19
-48.8574  1.90089e+19
-48.7401  1.7935e+19
-48.6228  1.60517e+19
-48.5055  1.36176e+19
-48.3882  1.09824e+19
-48.2709  8.49528e+18
-48.1536  6.46463e+18
-48.0363  5.11172e+18
-47.919  4.52165e+18
-47.8017  4.65551e+18
-47.6844  5.36576e+18
-47.5671  6.42789e+18
-47.4498  7.60698e+18
-47.3325  8.71806e+18
-47.2152  9.6295e+18
-47.0979  1.0311e+19
-46.9806  1.07743e+19
-46.8633  1.10636e+19
-46.7459  1.12509e+19
-46.6286  1.13252e+19
-46.5113  1.12973e+19
-46.394  1.11109e+19
-46.2767  1.07873e+19
-46.1594  1.03807e+19
-46.0421  9.98818e+18
-45.9248  9.79025e+18
-45.8075  9.96315e+18
-45.6902  1.06118e+19
-45.5729  1.17564e+19
-45.4556  1.32084e+19
-45.3383  1.47157e+19
-45.221  1.58662e+19
-45.1037  1.63342e+19
-44.9864  1.58854e+19
-44.8691  1.44947e+19
-44.7518  1.23938e+19
-44.6345  1.00374e+19
-44.5172  7.98073e+18
-44.3998  6.78568e+18
-44.2825  6.85577e+18
-44.1652  8.3267e+18
-44.0479  1.10162e+19
-43.9306  1.44632e+19
-43.8133  1.80223e+19
-43.696  2.10288e+19
-43.5787  2.29201e+19
-43.4614  2.33606e+19
-43.3441  2.23365e+19
-43.2268  2.00921e+19
-43.1095  1.70919e+19
-42.9922  1.38752e+19
-42.8749  1.09552e+19
-42.7576  8.71832e+18
-42.6403  7.33056e+18
-42.523  6.7862e+18
-42.4057  6.9086e+18
-42.2884  7.43693e+18
-42.171  8.08245e+18
-42.0537  8.58315e+18
-41.9364  8.76588e+18
-41.8191  8.55231e+18
-41.7018  7.94194e+18
-41.5845  7.01653e+18
-41.4672  5.91238e+18
-41.3499  4.78097e+18
-41.2326  3.77944e+18
-41.1153  3.04919e+18
-40.998  2.67951e+18
-40.8807  2.69355e+18
-40.7634  3.0384e+18
-40.6461  3.60875e+18
-40.5288  4.24121e+18
-40.4115  4.80445e+18
-40.2942  5.20797e+18
-40.1769  5.44326e+18
-40.0596  5.61433e+18
-39.9423  5.92772e+18
-39.825  6.63787e+18
-39.7076  7.96126e+18
-39.5903  1.00051e+19
-39.473  1.27134e+19
-39.3557  1.58712e+19
-39.2384  1.90479e+19
-39.1211  2.17794e+19
-39.0038  2.36238e+19
-38.8865  2.42793e+19
-38.7692  2.36188e+19
-38.6519  2.18176e+19
-38.5346  1.92598e+19
-38.4173  1.64687e+19
-38.3  1.39649e+19
-38.1827  1.21716e+19
-38.0654  1.1296e+19
-37.9481  1.12916e+19
-37.8308  1.19031e+19
-37.7135  1.27205e+19
-37.5962  1.33269e+19
-37.4789  1.33746e+19
-37.3615  1.26731e+19
-37.2442  1.12442e+19
-37.1269  9.32278e+18
-37.0096  7.1991e+18
-36.8923  5.24725e+18
-36.775  3.76168e+18
-36.6577  2.93013e+18
-36.5404  2.81325e+18
-36.4231  3.36989e+18
-36.3058  4.49626e+18
-36.1885  6.07767e+18
-36.0712  8.03128e+18
-35.9539  1.03062e+19
-35.8366  1.28675e+19
-35.7193  1.56805e+19
-35.602  1.86484e+19
-35.4847  2.15764e+19
-35.3674  2.41798e+19
-35.2501  2.61475e+19
-35.1328  2.71831e+19
-35.0154  2.70494e+19
-34.8981  2.5673e+19
-34.7808  2.31309e+19
-34.6635  1.97028e+19
-34.5462  1.57916e+19
-34.4289  1.18358e+19
-34.3116  8.3033e+18
-34.1943  5.5406e+18
-34.077  3.77151e+18
-33.9597  3.05698e+18
-33.8424  3.30787e+18
-33.7251  4.31705e+18
-33.6078  5.82837e+18
-33.4905  7.55967e+18
-33.3732  9.25841e+18
-33.2559  1.07391e+19
-33.1386  1.18643e+19
-33.0213  1.25887e+19
-32.904  1.29284e+19
-32.7867  1.29372e+19
-32.6693  1.27081e+19
-32.552  1.23465e+19
-32.4347  1.19596e+19
-32.3174  1.16422e+19
-32.2001  1.14302e+19
-32.0828  1.13269e+19
-31.9655  1.12793e+19
-31.8482  1.12235e+19
-31.7309  1.10601e+19
-31.6136  1.07026e+19
-31.4963  1.01057e+19
-31.379  9.27124e+18
-31.2617  8.25861e+18
-31.1444  7.16261e+18
-31.0271  6.07776e+18
-30.9098  5.1068e+18
-30.7925  4.30577e+18
-30.6752  3.69261e+18
-30.5579  3.23296e+18
-30.4406  2.8617e+18
-30.3232  2.50329e+18
-30.2059  2.11427e+18
-30.0886  1.67367e+18
-29.9713  1.20531e+18
-29.854  7.86828e+17
-29.7367  5.18051e+17
-29.6194  4.99555e+17
-29.5021  8.21255e+17
-29.3848  1.53635e+18
-29.2675  2.65115e+18
-29.1502  4.12147e+18
-29.0329  5.86003e+18
-28.9156  7.73071e+18
-28.7983  9.57273e+18
-28.681  1.12201e+19
-28.5637  1.25023e+19
-28.4464  1.32938e+19
-28.3291  1.3506e+19
-28.2118  1.31417e+19
-28.0944  1.22775e+19
-27.9771  1.10561e+19
-27.8598  9.70103e+18
-27.7425  8.4136e+18
-27.6252  7.4134e+18
-27.5079  6.84248e+18
-27.3906  6.75131e+18
-27.2733  7.08971e+18
-27.156  7.726e+18
-27.0387  8.46237e+18
-26.9214  9.09992e+18
-26.8041  9.4706e+18
-26.6868  9.48427e+18
-26.5695  9.14564e+18
-26.4522  8.553e+18
-26.3349  7.87983e+18
-26.2176  7.35444e+18
-26.1003  7.22492e+18
-25.983  7.72574e+18
-25.8657  9.05542e+18
-25.7483  1.13636e+19
-25.631  1.47561e+19
-25.5137  1.92483e+19
-25.3964  2.4763e+19
-25.2791  3.11381e+19
-25.1618  3.81121e+19
-25.0445  4.52895e+19
-24.9272  5.22553e+19
-24.8099  5.84781e+19
-24.6926  6.35081e+19
-24.5753  6.69851e+19
-24.458  6.85822e+19
-24.3407  6.82216e+19
-24.2234  6.59799e+19
-24.1061  6.20813e+19
-23.9888  5.69331e+19
-23.8715  5.09985e+19
-23.7542  4.48277e+19
-23.6369  3.89484e+19
-23.5196  3.38294e+19
-23.4023  2.99431e+19
-23.2849  2.7584e+19
-23.1676  2.69643e+19
-23.0503  2.81728e+19
-22.933  3.11031e+19
-22.8157  3.55373e+19
-22.6984  4.11126e+19
-22.5811  4.74026e+19
-22.4638  5.39359e+19
-22.3465  6.02973e+19
-22.2292  6.61347e+19
-22.1119  7.12726e+19
-21.9946  7.55981e+19
-21.8773  7.91721e+19
-21.76  8.21106e+19
-21.6427  8.44906e+19
-21.5254  8.63608e+19
-21.4081  8.77191e+19
-21.2908  8.85022e+19
-21.1735  8.85751e+19
-21.0561  8.78605e+19
-20.9388  8.62559e+19
-20.8215  8.38271e+19
-20.7042  8.07801e+19
-20.5869  7.73672e+19
-20.4696  7.3901e+19
-20.3523  7.07473e+19
-20.235  6.81701e+19
-20.1177  6.64566e+19
-20.0004  6.5725e+19
-19.8831  6.59801e+19
-19.7658  6.73e+19
-19.6485  6.96364e+19
-19.5312  7.29203e+19
-19.4139  7.71007e+19
-19.2966  8.20894e+19
-19.1793  8.7719e+19
-19.062  9.378e+19
-18.9447  1.00043e+20
-18.8274  1.06269e+20
-18.71  1.12087e+20
-18.5927  1.17407e+20
-18.4754  1.22101e+20
-18.3581  1.26212e+20
-18.2408  1.30026e+20
-18.1235  1.33891e+20
-18.0062  1.38339e+20
-17.8889  1.43932e+20
-17.7716  1.51178e+20
-17.6543  1.60747e+20
-17.537  1.72957e+20
-17.4197  1.88198e+20
-17.3024  2.066e+20
-17.1851  2.28186e+20
-17.0678  2.52714e+20
-16.9505  2.79676e+20
-16.8332  3.08452e+20
-16.7159  3.38106e+20
-16.5986  3.67662e+20
-16.4813  3.96057e+20
-16.364  4.22327e+20
-16.2466  4.4567e+20
-16.1293  4.65402e+20
-16.012  4.81613e+20
-15.8947  4.94448e+20
-15.7774  5.04749e+20
-15.6601  5.13542e+20
-15.5428  5.22293e+20
-15.4255  5.3245e+20
-15.3082  5.45683e+20
-15.1909  5.63413e+20
-15.0736  5.86928e+20
-14.9563  6.17034e+20
-14.839  6.54485e+20
-14.7217  6.9931e+20
-14.6044  7.51354e+20
-14.4871  8.10154e+20
-14.3698  8.74889e+20
-14.2525  9.44363e+20
-14.1352  1.01721e+21
-14.0178  1.09222e+21
-13.9005  1.1677e+21
-13.7832  1.2422e+21
-13.6659  1.31425e+21
-13.5486  1.3825e+21
-13.4313  1.4459e+21
-13.314  1.50347e+21
-13.1967  1.55446e+21
-13.0794  1.59878e+21
-12.9621  1.63587e+21
-12.8448  1.66622e+21
-12.7275  1.68997e+21
-12.6102  1.70796e+21
-12.4929  1.72103e+21
-12.3756  1.73021e+21
-12.2583  1.73696e+21
-12.141  1.74289e+21
-12.0237  1.74958e+21
-11.9064  1.75889e+21
-11.7891  1.77281e+21
-11.6718  1.79314e+21
-11.5544  1.8219e+21
-11.4371  1.86101e+21
-11.3198  1.91175e+21
-11.2025  1.97548e+21
-11.0852  2.0532e+21
-10.9679  2.14535e+21
-10.8506  2.25192e+21
-10.7333  2.37226e+21
-10.616  2.50536e+21
-10.4987  2.65009e+21
-10.3814  2.80425e+21
-10.2641  2.96607e+21
-10.1468  3.13342e+21
-10.0295  3.30448e+21
-9.91217  3.47737e+21
-9.79487  3.65114e+21
-9.67756  3.82483e+21
-9.56026  3.99809e+21
-9.44295  4.17118e+21
-9.32565  4.34492e+21
-9.20834  4.52003e+21
-9.09104  4.69765e+21
-8.97373  4.87897e+21
-8.85643  5.06525e+21
-8.73913  5.25659e+21
-8.62182  5.45362e+21
-8.50452  5.65609e+21
-8.38721  5.8634e+21
-8.26991  6.0741e+21
-8.1526  6.28666e+21
-8.03529  6.49871e+21
-7.91799  6.7082e+21
-7.80069  6.91306e+21
-7.68338  7.1107e+21
-7.56608  7.30004e+21
-7.44877  7.47981e+21
-7.33146  7.64925e+21
-7.21416  7.80825e+21
-7.09685  7.95772e+21
-6.97955  8.0982e+21
-6.86224  8.23136e+21
-6.74494  8.35926e+21
-6.62763  8.48277e+21
-6.51033  8.60435e+21
-6.39302  8.72556e+21
-6.27572  8.84795e+21
-6.15842  8.97306e+21
-6.04111  9.10201e+21
-5.92381  9.23589e+21
-5.8065  9.37612e+21
-5.68919  9.52319e+21
-5.57189  9.67818e+21
-5.45458  9.84175e+21
-5.33728  1.00152e+22
-5.21997  1.01988e+22
-5.10267  1.03937e+22
-4.98536  1.06003e+22
-4.86806  1.0819e+22
-4.75075  1.10499e+22
-4.63345  1.12929e+22
-4.51614  1.1547e+22
-4.39884  1.18111e+22
-4.28154  1.20833e+22
-4.16423  1.2362e+22
-4.04692  1.26439e+22
-3.92962  1.29269e+22
-3.81231  1.32079e+22
-3.69501  1.34844e+22
-3.5777  1.37534e+22
-3.4604  1.40126e+22
-3.34309  1.42599e+22
-3.22579  1.44935e+22
-3.10849  1.47124e+22
-2.99118  1.49156e+22
-2.87387  1.51029e+22
-2.75657  1.52747e+22
-2.63926  1.54309e+22
-2.52196  1.55724e+22
-2.40465  1.56998e+22
-2.28735  1.58139e+22
-2.17005  1.59154e+22
-2.05274  1.60052e+22
-1.93544  1.60834e+22
-1.81813  1.61509e+22
-1.70083  1.62081e+22
-1.58352  1.62554e+22
-1.46622  1.62933e+22
-1.34891  1.63226e+22
-1.2316  1.63437e+22
-1.1143  1.63577e+22
-0.996995  1.6365e+22
-0.87969  1.63671e+22
-0.762385  1.6365e+22
-0.64508  1.636e+22
-0.527775  1.63532e+22
-0.41047  1.63459e+22
-0.293165  1.63392e+22
-0.17586  1.63342e+22
-0.058555  1.63313e+22
0.05875  1.63312e+22
0.176055  1.63338e+22
0.29336  1.63383e+22
0.410665  1.63447e+22
0.52797  1.63515e+22
0.645275  1.63579e+22
0.76258  1.63623e+22
0.879885  1.63639e+22
0.99719  1.63611e+22
1.1145  1.63529e+22
1.2318  1.63383e+22
1.3491  1.63165e+22
1.46641  1.62865e+22
1.58371  1.62476e+22
1.70102  1.61996e+22
1.81832  1.61417e+22
1.93563  1.60734e+22
2.05294  1.59944e+22
2.17024  1.59042e+22
2.28754  1.58022e+22
2.40485  1.56878e+22
2.52216  1.55601e+22
2.63946  1.54184e+22
2.75677  1.52621e+22
2.87407  1.50905e+22
2.99137  1.49031e+22
3.10868  1.47e+22
3.22599  1.4481e+22
3.34329  1.42474e+22
3.4606  1.40002e+22
3.5779  1.3741e+22
3.69521  1.34719e+22
3.81251  1.31954e+22
3.92982  1.29141e+22
4.04712  1.26309e+22
4.16443  1.23489e+22
4.28173  1.20702e+22
4.39903  1.17978e+22
4.51634  1.15338e+22
4.63364  1.12799e+22
4.75095  1.10371e+22
4.86825  1.08064e+22
4.98556  1.05881e+22
5.10286  1.03821e+22
5.22017  1.01877e+22
5.33748  1.00047e+22
5.45478  9.83207e+21
5.57209  9.66905e+21
5.68939  9.51463e+21
5.8067  9.36813e+21
5.924  9.22838e+21
6.0413  9.09477e+21
6.15861  8.96606e+21
6.27591  8.84103e+21
6.39322  8.71873e+21
6.51052  8.59745e+21
6.62783  8.47561e+21
6.74514  8.35166e+21
6.86244  8.22388e+21
6.97975  8.09024e+21
7.09705  7.94948e+21
7.21436  7.79998e+21
7.33166  7.64058e+21
7.44897  7.47112e+21
7.56627  7.29147e+21
7.68358  7.10213e+21
7.80088  6.90437e+21
7.91819  6.69968e+21
8.03549  6.49036e+21
8.1528  6.27855e+21
8.2701  6.06607e+21
8.38741  5.85547e+21
8.50471  5.6483e+21
8.62202  5.4457e+21
8.73932  5.24846e+21
8.85662  5.05704e+21
8.97393  4.87086e+21
9.09123  4.6892e+21
9.20854  4.51148e+21
9.32584  4.33644e+21
9.44315  4.16264e+21
9.56045  3.98952e+21
9.67776  3.8164e+21
9.79506  3.64299e+21
9.91237  3.46941e+21
10.0297  3.29682e+21
10.147  3.12625e+21
10.2643  2.95942e+21
10.3816  2.79806e+21
10.4989  2.64441e+21
10.6162  2.50022e+21
10.7335  2.3675e+21
10.8508  2.24758e+21
10.9681  2.1414e+21
11.0854  2.04978e+21
11.2027  1.97241e+21
11.32  1.90887e+21
11.4373  1.85838e+21
11.5546  1.81962e+21
11.6719  1.79094e+21
11.7893  1.77084e+21
11.9066  1.75719e+21
12.0239  1.74786e+21
12.1412  1.74141e+21
12.2585  1.73567e+21
12.3758  1.729e+21
12.4931  1.71985e+21
12.6104  1.70683e+21
12.7277  1.68886e+21
12.845  1.66515e+21
12.9623  1.63466e+21
13.0796  1.59749e+21
13.1969  1.55314e+21
13.3142  1.50206e+21
13.4315  1.44431e+21
13.5488  1.38088e+21
13.6661  1.31249e+21
13.7834  1.24043e+21
13.9007  1.16593e+21
14.018  1.09053e+21
14.1354  1.01558e+21
14.2527  9.42717e+20
14.37  8.73377e+20
14.4873  8.08721e+20
14.6046  7.50006e+20
14.7219  6.97997e+20
14.8392  6.53267e+20
14.9565  6.15906e+20
15.0738  5.85759e+20
15.1911  5.62302e+20
15.3084  5.44508e+20
15.4257  5.31192e+20
15.543  5.20935e+20
15.6603  5.12142e+20
15.7776  5.0329e+20
15.8949  4.92953e+20
16.0122  4.80063e+20
16.1295  4.63859e+20
16.2468  4.4403e+20
16.3641  4.20764e+20
16.4815  3.94538e+20
16.5988  3.66217e+20
16.7161  3.36714e+20
16.8334  3.0717e+20
16.9507  2.7851e+20
17.068  2.51669e+20
17.1853  2.27286e+20
17.3026  2.05844e+20
17.4199  1.87514e+20
17.5372  1.72357e+20
17.6545  1.60236e+20
17.7718  1.50795e+20
17.8891  1.43563e+20
18.0064  1.38061e+20
18.1237  1.33648e+20
18.241  1.29773e+20
18.3583  1.25941e+20
18.4756  1.218e+20
18.5929  1.17088e+20
18.7102  1.11694e+20
18.8275  1.05831e+20
18.9449  9.96219e+19
19.0622  9.33218e+19
19.1795  8.72726e+19
19.2968  8.16509e+19
19.4141  7.67199e+19
19.5314  7.2571e+19
19.6487  6.93252e+19
19.766  6.70912e+19
19.8833  6.582e+19
20.0006  6.56313e+19
20.1179  6.64691e+19
20.2352  6.82841e+19
20.3525  7.09069e+19
20.4698  7.41043e+19
20.5871  7.75832e+19
20.7044  8.10333e+19
20.8217  8.40891e+19
20.939  8.6498e+19
21.0563  8.80773e+19
21.1736  8.87652e+19
21.291  8.86501e+19
21.4083  8.78548e+19
21.5256  8.64443e+19
21.6429  8.454e+19
21.7602  8.21482e+19
21.8775  7.92009e+19
21.9948  7.55951e+19
22.1121  7.12202e+19
22.2294  6.60326e+19
22.3467  6.01727e+19
22.464  5.37559e+19
22.5813  4.71929e+19
22.6986  4.08774e+19
22.8159  3.53005e+19
22.9332  3.08761e+19
23.0505  2.7973e+19
23.1678  2.6802e+19
23.2851  2.74538e+19
23.4024  2.98703e+19
23.5198  3.38004e+19
23.6371  3.89493e+19
23.7544  4.48603e+19
23.8717  5.10326e+19
23.989  5.69724e+19
24.1063  6.2087e+19
24.2236  6.59427e+19
24.3409  6.81427e+19
24.4582  6.84234e+19
24.5755  6.67707e+19
24.6928  6.32579e+19
24.8101  5.81697e+19
24.9274  5.18985e+19
25.0447  4.49385e+19
25.162  3.7778e+19
25.2793  3.08575e+19
25.3966  2.45103e+19
25.5139  1.90376e+19
25.6312  1.45972e+19
25.7485  1.12556e+19
25.8658  8.98648e+18
25.9832  7.69112e+18
26.1005  7.22062e+18
26.2178  7.37234e+18
26.3351  7.90774e+18
26.4524  8.58597e+18
26.5697  9.1756e+18
26.687  9.50315e+18
26.8043  9.47691e+18
26.9216  9.09047e+18
27.0389  8.43861e+18
27.1562  7.69159e+18
27.2735  7.05652e+18
27.3908  6.72117e+18
27.5081  6.82347e+18
27.6254  7.41251e+18
27.7427  8.42773e+18
27.86  9.72536e+18
27.9773  1.10909e+19
28.0946  1.23043e+19
28.212  1.31589e+19
28.3293  1.35028e+19
28.4466  1.32692e+19
28.5639  1.24529e+19
28.6812  1.11533e+19
28.7985  9.49767e+18
28.9158  7.64859e+18
29.0331  5.78284e+18
29.1504  4.0528e+18
29.2677  2.597e+18
29.385  1.49739e+18
29.5023  7.9705e+17
29.6196  4.86226e+17
29.7369  5.11141e+17
29.8542  7.81498e+17
29.9715  1.19626e+18
30.0888  1.6567e+18
30.2061  2.09701e+18
30.3234  2.48582e+18
30.4407  2.83723e+18
30.558  3.21095e+18
30.6754  3.6763e+18
30.7927  4.29372e+18
30.91  5.09393e+18
31.0273  6.06811e+18
31.1446  7.15539e+18
31.2619  8.25113e+18
31.3792  9.25937e+18
31.4965  1.00937e+19
31.6138  1.0693e+19
31.7311  1.10526e+19
31.8484  1.12204e+19
31.9657  1.12931e+19
32.083  1.13425e+19
32.2003  1.14458e+19
32.3176  1.16644e+19
32.4349  1.19759e+19
32.5522  1.2352e+19
32.6695  1.2702e+19
32.7868  1.29143e+19
32.9042  1.28871e+19
33.0215  1.253e+19
33.1388  1.17886e+19
33.2561  1.06509e+19
33.3734  9.16622e+18
33.4907  7.46711e+18
33.608  5.74461e+18
33.7253  4.25678e+18
33.8426  3.27002e+18
33.9599  3.04807e+18
34.0772  3.79246e+18
34.1945  5.58298e+18
34.3118  8.35633e+18
34.4291  1.18869e+19
34.5464  1.5816e+19
34.6637  1.97135e+19
34.781  2.30959e+19
34.8983  2.55875e+19
35.0156  2.69221e+19
35.1329  2.70246e+19
35.2503  2.5963e+19
35.3676  2.39572e+19
35.4849  2.13574e+19
35.6022  1.84507e+19
35.7195  1.54949e+19
35.8368  1.26911e+19
35.9541  1.01504e+19
36.0714  7.89574e+18
36.1887  5.96335e+18
36.306  4.41186e+18
36.4233  3.31904e+18
36.5406  2.79881e+18
36.6579  2.95268e+18
36.7752  3.82102e+18
36.8925  5.33902e+18
37.0098  7.31293e+18
37.1271  9.4347e+18
37.2444  1.13655e+19
37.3617  1.27774e+19
37.479  1.34616e+19
37.5964  1.33923e+19
37.7137  1.27678e+19
37.831  1.19306e+19
37.9483  1.13078e+19
38.0656  1.13136e+19
38.1829  1.21953e+19
38.3002  1.39933e+19
38.4175  1.64952e+19
38.5348  1.92789e+19
38.6521  2.18216e+19
38.7694  2.35938e+19
38.8867  2.42163e+19
39.004  2.35491e+19
39.1213  2.16828e+19
39.2386  1.89366e+19
39.3559  1.57535e+19
39.4732  1.26078e+19
39.5905  9.90499e+18
39.7078  7.88546e+18
39.8251  6.59344e+18
39.9425  5.90515e+18
40.0598  5.5953e+18
40.1771  5.42878e+18
40.2944  5.2027e+18
40.4117  4.80511e+18
40.529  4.23939e+18
40.6463  3.60487e+18
40.7636  3.04445e+18
40.8809  2.70257e+18
40.9982  2.69737e+18
41.1155  3.07513e+18
41.2328  3.80692e+18
41.3501  4.80367e+18
41.4674  5.92584e+18
41.5847  7.02076e+18
41.702  7.9262e+18
41.8193  8.51701e+18
41.9366  8.71805e+18
42.0539  8.52344e+18
42.1712  8.01627e+18
42.2885  7.37329e+18
42.4059  6.85685e+18
42.5232  6.75732e+18
42.6405  7.32626e+18
42.7578  8.75648e+18
42.8751  1.1036e+19
42.9924  1.3982e+19
43.1097  1.72132e+19
43.227  2.02235e+19
43.3443  2.24542e+19
43.4616  2.34533e+19
43.5789  2.29611e+19
43.6962  2.10394e+19
43.8135  1.79989e+19
43.9308  1.44173e+19
44.0481  1.09637e+19
44.1654  8.27671e+18
44.2827  6.82299e+18
44.4  6.77174e+18
44.5173  7.97406e+18
44.6347  1.00348e+19
44.752  1.23833e+19
44.8693  1.44638e+19
44.9866  1.5812e+19
45.1039  1.6238e+19
45.2212  1.57347e+19
45.3385  1.45568e+19
45.4558  1.3065e+19
45.5731  1.16133e+19
45.6904  1.05082e+19
45.8077  9.88075e+18
45.925  9.73995e+18
46.0423  9.9627e+18
46.1596  1.03771e+19
46.2769  1.08024e+19
46.3942  1.1126e+19
46.5115  1.13126e+19
46.6288  1.13413e+19
46.7461  1.12626e+19
46.8634  1.10824e+19
46.9808  1.07715e+19
47.0981  1.03063e+19
47.2154  9.61587e+18
47.3327  8.70386e+18
47.45  7.58474e+18
47.5673  6.40515e+18
47.6846  5.35462e+18
47.8019  4.67045e+18
47.9192  4.56171e+18
48.0365  5.18145e+18
48.1538  6.56924e+18
48.2711  8.61235e+18
48.3884  1.11079e+19
48.5057  1.37203e+19
48.623  1.61396e+19
48.7403  1.80018e+19
48.8576  1.90232e+19
48.9749  1.90742e+19
49.0922  1.81331e+19
49.2095  1.62959e+19
49.3269  1.38109e+19
49.4442  1.10195e+19
49.5615  8.26811e+18
49.6788  5.9513e+18
49.7961  4.38851e+18
49.9134  3.79122e+18
50.0307  4.22605e+18
50.148  5.58716e+18
50.2653  7.64245e+18
50.3826  1.004e+19
50.4999  1.23569e+19
50.6172  1.42326e+19
50.7345  1.53677e+19
50.8518  1.56181e+19
50.9691  1.49571e+19
