#S 1 spectral density
#N 2
#UFWHM 13.1382
#L  abscissas [um]  spectral density
-58.5938  2.40651e+19
-58.4764  2.07116e+19
-58.3591  1.69683e+19
-58.2418  1.33608e+19
-58.1245  1.02622e+19
-58.0072  7.83448e+18
-57.8899  6.00393e+18
-57.7726  4.60168e+18
-57.6553  3.44008e+18
-57.538  2.38339e+18
-57.4207  1.41448e+18
-57.3034  6.53821e+17
-57.1861  2.87741e+17
-57.0688  5.35952e+17
-56.9515  1.57478e+18
-56.8342  3.48749e+18
-56.7169  6.26678e+18
-56.5996  9.78871e+18
-56.4823  1.38701e+19
-56.365  1.82586e+19
-56.2477  2.26885e+19
-56.1303  2.68478e+19
-56.013  3.04325e+19
-55.8957  3.30981e+19
-55.7784  3.45487e+19
-55.6611  3.45062e+19
-55.5438  3.27882e+19
-55.4265  2.94808e+19
-55.3092  2.47825e+19
-55.1919  1.91729e+19
-55.0746  1.32995e+19
-54.9573  7.90998e+18
-54.84  3.75308e+18
-54.7227  1.42367e+18
-54.6054  1.27767e+18
-54.4881  3.36797e+18
-54.3708  7.45323e+18
-54.2535  1.30139e+19
-54.1362  1.93645e+19
-54.0189  2.57905e+19
-53.9016  3.15951e+19
-53.7842  3.62021e+19
-53.6669  3.93074e+19
-53.5496  4.06995e+19
-53.4323  4.04349e+19
-53.315  3.86613e+19
-53.1977  3.56576e+19
-53.0804  3.17682e+19
-52.9631  2.73334e+19
-52.8458  2.2702e+19
-52.7285  1.81662e+19
-52.6112  1.39743e+19
-52.4939  1.02807e+19
-52.3766  7.20067e+18
-52.2593  4.78814e+18
-52.142  3.07188e+18
-52.0247  2.06023e+18
-51.9074  1.77411e+18
-51.7901  2.25124e+18
-51.6728  3.53058e+18
-51.5555  5.65082e+18
-51.4381  8.60219e+18
-51.3208  1.22992e+19
-51.2035  1.65854e+19
-51.0862  2.11965e+19
-50.9689  2.58175e+19
-50.8516  3.00968e+19
-50.7343  3.36772e+19
-50.617  3.62786e+19
-50.4997  3.7735e+19
-50.3824  3.79385e+19
-50.2651  3.69479e+19
-50.1478  3.48539e+19
-50.0305  3.18849e+19
-49.9132  2.82181e+19
-49.7959  2.41179e+19
-49.6786  1.98314e+19
-49.5613  1.561e+19
-49.444  1.16911e+19
-49.3267  8.27763e+18
-49.2094  5.52411e+18
-49.092  3.54375e+18
-48.9747  2.36136e+18
-48.8574  1.94412e+18
-48.7401  2.18976e+18
-48.6228  2.94535e+18
-48.5055  4.03678e+18
-48.3882  5.31047e+18
-48.2709  6.6146e+18
-48.1536  7.85503e+18
-48.0363  8.9665e+18
-47.919  9.92512e+18
-47.8017  1.07139e+19
-47.6844  1.13503e+19
-47.5671  1.18413e+19
-47.4498  1.22011e+19
-47.3325  1.24352e+19
-47.2152  1.25396e+19
-47.0979  1.24831e+19
-46.9806  1.21948e+19
-46.8633  1.15817e+19
-46.7459  1.05921e+19
-46.6286  9.14841e+18
-46.5113  7.31347e+18
-46.394  5.27182e+18
-46.2767  3.39978e+18
-46.1594  2.2268e+18
-46.0421  2.39366e+18
-45.9248  4.53267e+18
-45.8075  9.10977e+18
-45.6902  1.6303e+19
-45.5729  2.58274e+19
-45.4556  3.70088e+19
-45.3383  4.86767e+19
-45.221  5.94875e+19
-45.1037  6.80235e+19
-44.9864  7.3083e+19
-44.8691  7.39521e+19
-44.7518  7.05523e+19
-44.6345  6.33648e+19
-44.5172  5.34001e+19
-44.3998  4.2074e+19
-44.2825  3.08406e+19
-44.1652  2.10393e+19
-44.0479  1.35859e+19
-43.9306  8.95705e+18
-43.8133  7.10462e+18
-43.696  7.60014e+18
-43.5787  9.73624e+18
-43.4614  1.27086e+19
-43.3441  1.57845e+19
-43.2268  1.84137e+19
-43.1095  2.02524e+19
-42.9922  2.11943e+19
-42.8749  2.13413e+19
-42.7576  2.09103e+19
-42.6403  2.01773e+19
-42.523  1.94537e+19
-42.4057  1.897e+19
-42.2884  1.88692e+19
-42.171  1.91832e+19
-42.0537  1.98623e+19
-41.9364  2.06965e+19
-41.8191  2.14038e+19
-41.7018  2.1684e+19
-41.5845  2.12406e+19
-41.4672  1.99036e+19
-41.3499  1.76362e+19
-41.2326  1.46018e+19
-41.1153  1.11345e+19
-40.998  7.68751e+18
-40.8807  4.77543e+18
-40.7634  2.84215e+18
-40.6461  2.19479e+18
-40.5288  2.92278e+18
-40.4115  4.90877e+18
-40.2942  7.83818e+18
-40.1769  1.12638e+19
-40.0596  1.47275e+19
-39.9423  1.78043e+19
-39.825  2.01576e+19
-39.7076  2.16e+19
-39.5903  2.2092e+19
-39.473  2.16795e+19
-39.3557  2.04808e+19
-39.2384  1.86752e+19
-39.1211  1.64521e+19
-39.0038  1.40352e+19
-38.8865  1.16777e+19
-38.7692  9.64698e+18
-38.6519  8.20317e+18
-38.5346  7.54345e+18
-38.4173  7.75521e+18
-38.3  8.78984e+18
-38.1827  1.04134e+19
-38.0654  1.22431e+19
-37.9481  1.38112e+19
-37.8308  1.46472e+19
-37.7135  1.44278e+19
-37.5962  1.30357e+19
-37.4789  1.06352e+19
-37.3615  7.64463e+18
-37.2442  4.66383e+18
-37.1269  2.3714e+18
-37.0096  1.30988e+18
-36.8923  1.80414e+18
-36.775  3.84227e+18
-36.6577  7.0776e+18
-36.5404  1.08758e+19
-36.4231  1.44821e+19
-36.3058  1.71565e+19
-36.1885  1.83547e+19
-36.0712  1.783e+19
-35.9539  1.56925e+19
-35.8366  1.23582e+19
-35.7193  8.48212e+18
-35.602  4.83029e+18
-35.4847  2.07733e+18
-35.3674  7.61214e+17
-35.2501  1.18741e+18
-35.1328  3.41286e+18
-35.0154  7.28075e+18
-34.8981  1.25084e+19
-34.7808  1.87389e+19
-34.6635  2.55885e+19
-34.5462  3.27537e+19
-34.4289  3.99981e+19
-34.3116  4.70637e+19
-34.1943  5.37555e+19
-34.077  5.99067e+19
-33.9597  6.52717e+19
-33.8424  6.96257e+19
-33.7251  7.2702e+19
-33.6078  7.43013e+19
-33.4905  7.42416e+19
-33.3732  7.24047e+19
-33.2559  6.88032e+19
-33.1386  6.35583e+19
-33.0213  5.69233e+19
-32.904  4.93149e+19
-32.7867  4.12038e+19
-32.6693  3.31671e+19
-32.552  2.57911e+19
-32.4347  1.96651e+19
-32.3174  1.52869e+19
-32.2001  1.29897e+19
-32.0828  1.29179e+19
-31.9655  1.50182e+19
-31.8482  1.90312e+19
-31.7309  2.453e+19
-31.6136  3.09848e+19
-31.4963  3.78186e+19
-31.379  4.44751e+19
-31.2617  5.04969e+19
-31.1444  5.55261e+19
-31.0271  5.93287e+19
-30.9098  6.18798e+19
-30.7925  6.30994e+19
-30.6752  6.3117e+19
-30.5579  6.20677e+19
-30.4406  6.01075e+19
-30.3232  5.7482e+19
-30.2059  5.43444e+19
-30.0886  5.09339e+19
-29.9713  4.7484e+19
-29.854  4.41502e+19
-29.7367  4.10766e+19
-29.6194  3.84067e+19
-29.5021  3.62097e+19
-29.3848  3.4518e+19
-29.2675  3.33502e+19
-29.1502  3.26895e+19
-29.0329  3.25349e+19
-28.9156  3.28273e+19
-28.7983  3.34916e+19
-28.681  3.44498e+19
-28.5637  3.55589e+19
-28.4464  3.66851e+19
-28.3291  3.76544e+19
-28.2118  3.83057e+19
-28.0944  3.85348e+19
-27.9771  3.82946e+19
-27.8598  3.75812e+19
-27.7425  3.6504e+19
-27.6252  3.51418e+19
-27.5079  3.36809e+19
-27.3906  3.22538e+19
-27.2733  3.09956e+19
-27.156  3.00347e+19
-27.0387  2.94287e+19
-26.9214  2.92793e+19
-26.8041  2.966e+19
-26.6868  3.06444e+19
-26.5695  3.2264e+19
-26.4522  3.45331e+19
-26.3349  3.74309e+19
-26.2176  4.08395e+19
-26.1003  4.46035e+19
-25.983  4.84717e+19
-25.8657  5.21929e+19
-25.7483  5.55361e+19
-25.631  5.83562e+19
-25.5137  6.05891e+19
-25.3964  6.22527e+19
-25.2791  6.34813e+19
-25.1618  6.44635e+19
-25.0445  6.53902e+19
-24.9272  6.64695e+19
-24.8099  6.78047e+19
-24.6926  6.95181e+19
-24.5753  7.17095e+19
-24.458  7.437e+19
-24.3407  7.76327e+19
-24.2234  8.16419e+19
-24.1061  8.66134e+19
-23.9888  9.28506e+19
-23.8715  1.00701e+20
-23.7542  1.10565e+20
-23.6369  1.22825e+20
-23.5196  1.37786e+20
-23.4023  1.55581e+20
-23.2849  1.76165e+20
-23.1676  1.99218e+20
-23.0503  2.24046e+20
-22.933  2.49817e+20
-22.8157  2.75176e+20
-22.6984  2.98691e+20
-22.5811  3.18884e+20
-22.4638  3.34331e+20
-22.3465  3.43898e+20
-22.2292  3.46928e+20
-22.1119  3.43248e+20
-21.9946  3.3321e+20
-21.8773  3.17766e+20
-21.76  2.98236e+20
-21.6427  2.76094e+20
-21.5254  2.5286e+20
-21.4081  2.29986e+20
-21.2908  2.08634e+20
-21.1735  1.89602e+20
-21.0561  1.7342e+20
-20.9388  1.60213e+20
-20.8215  1.49974e+20
-20.7042  1.42555e+20
-20.5869  1.37761e+20
-20.4696  1.35383e+20
-20.3523  1.35335e+20
-20.235  1.37581e+20
-20.1177  1.42252e+20
-20.0004  1.49475e+20
-19.8831  1.59344e+20
-19.7658  1.72156e+20
-19.6485  1.87933e+20
-19.5312  2.06636e+20
-19.4139  2.27974e+20
-19.2966  2.51459e+20
-19.1793  2.76322e+20
-19.062  3.01576e+20
-18.9447  3.26107e+20
-18.8274  3.48826e+20
-18.71  3.68629e+20
-18.5927  3.848e+20
-18.4754  3.96912e+20
-18.3581  4.04783e+20
-18.2408  4.08875e+20
-18.1235  4.0968e+20
-18.0062  4.0812e+20
-17.8889  4.05157e+20
-17.7716  4.01627e+20
-17.6543  3.98697e+20
-17.537  3.97e+20
-17.4197  3.97468e+20
-17.3024  4.00674e+20
-17.1851  4.0729e+20
-17.0678  4.17851e+20
-16.9505  4.32749e+20
-16.8332  4.52288e+20
-16.7159  4.76626e+20
-16.5986  5.05659e+20
-16.4813  5.39053e+20
-16.364  5.76216e+20
-16.2466  6.16367e+20
-16.1293  6.58261e+20
-16.012  7.0111e+20
-15.8947  7.43645e+20
-15.7774  7.85003e+20
-15.6601  8.24409e+20
-15.5428  8.61449e+20
-15.4255  8.95886e+20
-15.3082  9.28194e+20
-15.1909  9.58638e+20
-15.0736  9.88302e+20
-14.9563  1.01807e+21
-14.839  1.04916e+21
-14.7217  1.08236e+21
-14.6044  1.11867e+21
-14.4871  1.15848e+21
-14.3698  1.20197e+21
-14.2525  1.24866e+21
-14.1352  1.29768e+21
-14.0178  1.34779e+21
-13.9005  1.39753e+21
-13.7832  1.44517e+21
-13.6659  1.48903e+21
-13.5486  1.52783e+21
-13.4313  1.56052e+21
-13.314  1.58642e+21
-13.1967  1.60541e+21
-13.0794  1.61814e+21
-12.9621  1.62532e+21
-12.8448  1.62831e+21
-12.7275  1.62851e+21
-12.6102  1.62771e+21
-12.4929  1.62742e+21
-12.3756  1.62904e+21
-12.2583  1.63392e+21
-12.141  1.64299e+21
-12.0237  1.65693e+21
-11.9064  1.67614e+21
-11.7891  1.70084e+21
-11.6718  1.73121e+21
-11.5544  1.76734e+21
-11.4371  1.80928e+21
-11.3198  1.8575e+21
-11.2025  1.91254e+21
-11.0852  1.97541e+21
-10.9679  2.04738e+21
-10.8506  2.13008e+21
-10.7333  2.22525e+21
-10.616  2.33485e+21
-10.4987  2.46084e+21
-10.3814  2.60455e+21
-10.2641  2.76697e+21
-10.1468  2.94887e+21
-10.0295  3.14945e+21
-9.91217  3.36723e+21
-9.79487  3.60009e+21
-9.67756  3.8445e+21
-9.56026  4.09622e+21
-9.44295  4.35026e+21
-9.32565  4.60191e+21
-9.20834  4.84573e+21
-9.09104  5.07706e+21
-8.97373  5.29181e+21
-8.85643  5.48735e+21
-8.73913  5.6616e+21
-8.62182  5.81425e+21
-8.50452  5.94613e+21
-8.38721  6.05981e+21
-8.26991  6.15782e+21
-8.1526  6.24441e+21
-8.03529  6.32331e+21
-7.91799  6.399e+21
-7.80069  6.47538e+21
-7.68338  6.55561e+21
-7.56608  6.64284e+21
-7.44877  6.73923e+21
-7.33146  6.84604e+21
-7.21416  6.96387e+21
-7.09685  7.09285e+21
-6.97955  7.23249e+21
-6.86224  7.38204e+21
-6.74494  7.54038e+21
-6.62763  7.70573e+21
-6.51033  7.87689e+21
-6.39302  8.05225e+21
-6.27572  8.23032e+21
-6.15842  8.40976e+21
-6.04111  8.58909e+21
-5.92381  8.76695e+21
-5.8065  8.9425e+21
-5.68919  9.11455e+21
-5.57189  9.28237e+21
-5.45458  9.44532e+21
-5.33728  9.60369e+21
-5.21997  9.75713e+21
-5.10267  9.90683e+21
-4.98536  1.00536e+22
-4.86806  1.01988e+22
-4.75075  1.03443e+22
-4.63345  1.04924e+22
-4.51614  1.06449e+22
-4.39884  1.08038e+22
-4.28154  1.09714e+22
-4.16423  1.11495e+22
-4.04692  1.13388e+22
-3.92962  1.15402e+22
-3.81231  1.17542e+22
-3.69501  1.198e+22
-3.5777  1.22164e+22
-3.4604  1.24614e+22
-3.34309  1.27123e+22
-3.22579  1.29659e+22
-3.10849  1.32192e+22
-2.99118  1.34681e+22
-2.87387  1.3709e+22
-2.75657  1.39388e+22
-2.63926  1.41546e+22
-2.52196  1.43537e+22
-2.40465  1.45347e+22
-2.28735  1.46958e+22
-2.17005  1.48373e+22
-2.05274  1.49593e+22
-1.93544  1.50619e+22
-1.81813  1.5147e+22
-1.70083  1.5216e+22
-1.58352  1.52707e+22
-1.46622  1.53131e+22
-1.34891  1.53449e+22
-1.2316  1.53681e+22
-1.1143  1.53842e+22
-0.996995  1.53949e+22
-0.87969  1.54016e+22
-0.762385  1.54044e+22
-0.64508  1.54054e+22
-0.527775  1.54049e+22
-0.41047  1.54035e+22
-0.293165  1.54016e+22
-0.17586  1.54003e+22
-0.058555  1.53994e+22
0.05875  1.53993e+22
0.176055  1.54e+22
0.29336  1.54011e+22
0.410665  1.54026e+22
0.52797  1.54035e+22
0.645275  1.54036e+22
0.76258  1.54019e+22
0.879885  1.53982e+22
0.99719  1.53908e+22
1.1145  1.53792e+22
1.2318  1.53619e+22
1.3491  1.53375e+22
1.46641  1.53044e+22
1.58371  1.52606e+22
1.70102  1.52045e+22
1.81832  1.5134e+22
1.93563  1.50473e+22
2.05294  1.4943e+22
2.17024  1.48199e+22
2.28754  1.46773e+22
2.40485  1.45145e+22
2.52216  1.43324e+22
2.63946  1.4132e+22
2.75677  1.39151e+22
2.87407  1.36841e+22
2.99137  1.3442e+22
3.10868  1.31921e+22
3.22599  1.2938e+22
3.34329  1.26834e+22
3.4606  1.24318e+22
3.5779  1.21862e+22
3.69521  1.19492e+22
3.81251  1.17231e+22
3.92982  1.15087e+22
4.04712  1.13068e+22
4.16443  1.11174e+22
4.28173  1.09394e+22
4.39903  1.07717e+22
4.51634  1.06127e+22
4.63364  1.04604e+22
4.75095  1.03125e+22
4.86825  1.01669e+22
4.98556  1.00216e+22
5.10286  9.87506e+21
5.22017  9.72507e+21
5.33748  9.57141e+21
5.45478  9.41289e+21
5.57209  9.24965e+21
5.68939  9.0814e+21
5.8067  8.90891e+21
5.924  8.73292e+21
6.0413  8.55469e+21
6.15861  8.37509e+21
6.27591  8.19524e+21
6.39322  8.01712e+21
6.51052  7.84171e+21
6.62783  7.67057e+21
6.74514  7.50534e+21
6.86244  7.34753e+21
6.97975  7.1984e+21
7.09705  7.05928e+21
7.21436  6.93087e+21
7.33166  6.81344e+21
7.44897  6.70725e+21
7.56627  6.61137e+21
7.68358  6.52444e+21
7.80088  6.44425e+21
7.91819  6.3679e+21
8.03549  6.29215e+21
8.1528  6.21302e+21
8.2701  6.12607e+21
8.38741  6.02753e+21
8.50471  5.91348e+21
8.62202  5.7813e+21
8.73932  5.62824e+21
8.85662  5.45394e+21
8.97393  5.25866e+21
9.09123  5.0441e+21
9.20854  4.81332e+21
9.32584  4.57037e+21
9.44315  4.31975e+21
9.56045  4.06664e+21
9.67776  3.8163e+21
9.79506  3.57321e+21
9.91237  3.34175e+21
10.0297  3.12527e+21
10.147  2.92611e+21
10.2643  2.74558e+21
10.3816  2.5842e+21
10.4989  2.44159e+21
10.6162  2.31663e+21
10.7335  2.2078e+21
10.8508  2.11337e+21
10.9681  2.03132e+21
11.0854  1.96004e+21
11.2027  1.89778e+21
11.32  1.84328e+21
11.4373  1.79562e+21
11.5546  1.75415e+21
11.6719  1.71851e+21
11.7893  1.68868e+21
11.9066  1.66443e+21
12.0239  1.64553e+21
12.1412  1.63208e+21
12.2585  1.62331e+21
12.3758  1.61877e+21
12.4931  1.61735e+21
12.6104  1.61788e+21
12.7277  1.61883e+21
12.845  1.61867e+21
12.9623  1.61571e+21
13.0796  1.60867e+21
13.1969  1.59595e+21
13.3142  1.57705e+21
13.4315  1.55122e+21
13.5488  1.51864e+21
13.6661  1.47999e+21
13.7834  1.43623e+21
13.9007  1.38883e+21
14.018  1.33931e+21
14.1354  1.28939e+21
14.2527  1.24065e+21
14.37  1.19427e+21
14.4873  1.15107e+21
14.6046  1.11143e+21
14.7219  1.07531e+21
14.8392  1.04229e+21
14.9565  1.01139e+21
15.0738  9.81824e+20
15.1911  9.52321e+20
15.3084  9.2198e+20
15.4257  8.89849e+20
15.543  8.5555e+20
15.6603  8.18735e+20
15.7776  7.79546e+20
15.8949  7.38415e+20
16.0122  6.96175e+20
16.1295  6.5362e+20
16.2468  6.11901e+20
16.3641  5.72115e+20
16.4815  5.3521e+20
16.5988  5.02079e+20
16.7161  4.73301e+20
16.8334  4.49218e+20
16.9507  4.29876e+20
17.068  4.15244e+20
17.1853  4.04931e+20
17.3026  3.98594e+20
17.4199  3.95578e+20
17.5372  3.95302e+20
17.6545  3.97198e+20
17.7718  4.00378e+20
17.8891  4.03973e+20
18.0064  4.07137e+20
18.1237  4.08827e+20
18.241  4.0803e+20
18.3583  4.03964e+20
18.4756  3.96072e+20
18.5929  3.83963e+20
18.7102  3.67682e+20
18.8275  3.47865e+20
18.9449  3.25165e+20
19.0622  3.00625e+20
19.1795  2.75453e+20
19.2968  2.5063e+20
19.4141  2.27255e+20
19.5314  2.06014e+20
19.6487  1.87412e+20
19.766  1.71767e+20
19.8833  1.59034e+20
20.0006  1.49219e+20
20.1179  1.42094e+20
20.2352  1.37513e+20
20.3525  1.35291e+20
20.4698  1.35361e+20
20.5871  1.37766e+20
20.7044  1.42632e+20
20.8217  1.50121e+20
20.939  1.60439e+20
21.0563  1.73725e+20
21.1736  1.90008e+20
21.291  2.09133e+20
21.4083  2.30607e+20
21.5256  2.53509e+20
21.6429  2.76783e+20
21.7602  2.98964e+20
21.8775  3.18473e+20
21.9948  3.33814e+20
22.1121  3.43709e+20
22.2294  3.47194e+20
22.3467  3.44055e+20
22.464  3.34256e+20
22.5813  3.18623e+20
22.6986  2.98328e+20
22.8159  2.74718e+20
22.9332  2.49329e+20
23.0505  2.23599e+20
23.1678  1.98767e+20
23.2851  1.75783e+20
23.4024  1.55272e+20
23.5198  1.37584e+20
23.6371  1.22698e+20
23.7544  1.10498e+20
23.8717  1.00672e+20
23.989  9.28406e+19
24.1063  8.65892e+19
24.2236  8.15805e+19
24.3409  7.75233e+19
24.4582  7.41987e+19
24.5755  7.14643e+19
24.6928  6.92353e+19
24.8101  6.74603e+19
24.9274  6.60665e+19
25.0447  6.49682e+19
25.162  6.40135e+19
25.2793  6.30298e+19
25.3966  6.17728e+19
25.5139  6.00903e+19
25.6312  5.78512e+19
25.7485  5.50367e+19
25.8658  5.17113e+19
25.9832  4.80074e+19
26.1005  4.41974e+19
26.2178  4.05087e+19
26.3351  3.7165e+19
26.4524  3.43388e+19
26.5697  3.21434e+19
26.687  3.06002e+19
26.8043  2.97051e+19
26.9216  2.93742e+19
27.0389  2.95646e+19
27.1562  3.02065e+19
27.2735  3.12038e+19
27.3908  3.24771e+19
27.5081  3.39321e+19
27.6254  3.54103e+19
27.7427  3.67836e+19
27.86  3.78817e+19
27.9773  3.86033e+19
28.0946  3.88534e+19
28.212  3.86035e+19
28.3293  3.79468e+19
28.4466  3.69492e+19
28.5639  3.57985e+19
28.6812  3.46574e+19
28.7985  3.36738e+19
28.9158  3.29767e+19
29.0331  3.26695e+19
29.1504  3.28135e+19
29.2677  3.34772e+19
29.385  3.46654e+19
29.5023  3.63954e+19
29.6196  3.8618e+19
29.7369  4.13278e+19
29.8542  4.44395e+19
29.9715  4.78138e+19
30.0888  5.13042e+19
30.2061  5.46965e+19
30.3234  5.78122e+19
30.4407  6.04364e+19
30.558  6.23403e+19
30.6754  6.33552e+19
30.7927  6.32617e+19
30.91  6.19562e+19
31.0273  5.93837e+19
31.1446  5.54754e+19
31.2619  5.03998e+19
31.3792  4.43361e+19
31.4965  3.76717e+19
31.6138  3.08637e+19
31.7311  2.44328e+19
31.8484  1.89683e+19
31.9657  1.50064e+19
32.083  1.29558e+19
32.2003  1.30737e+19
32.3176  1.54147e+19
32.4349  1.98133e+19
32.5522  2.59462e+19
32.6695  3.33057e+19
32.7868  4.13298e+19
32.9042  4.94072e+19
33.0215  5.69725e+19
33.1388  6.35608e+19
33.2561  6.87512e+19
33.3734  7.2314e+19
33.4907  7.40905e+19
33.608  7.41251e+19
33.7253  7.25175e+19
33.8426  6.93917e+19
33.9599  6.50298e+19
34.0772  5.9641e+19
34.1945  5.34817e+19
34.3118  4.67742e+19
34.4291  3.97097e+19
34.5464  3.24848e+19
34.6637  2.53173e+19
34.781  1.8486e+19
34.8983  1.23064e+19
35.0156  7.12847e+18
35.1329  3.3137e+18
35.2503  1.14928e+18
35.3676  7.79389e+17
35.4849  2.13558e+18
35.6022  4.91217e+18
35.7195  8.5686e+18
35.8368  1.23996e+19
35.9541  1.56923e+19
36.0714  1.77665e+19
36.1887  1.82223e+19
36.306  1.69733e+19
36.4233  1.42691e+19
36.5406  1.06583e+19
36.6579  6.8791e+18
36.7752  3.69982e+18
36.8925  1.73079e+18
37.0098  1.30997e+18
37.1271  2.43671e+18
37.2444  4.79075e+18
37.3617  7.80624e+18
37.479  1.08103e+19
37.5964  1.31982e+19
37.7137  1.45696e+19
37.831  1.47503e+19
37.9483  1.38744e+19
38.0656  1.22775e+19
38.1829  1.04322e+19
38.3002  8.80061e+18
38.4175  7.77779e+18
38.5348  7.5835e+18
38.6521  8.26406e+18
38.7694  9.73993e+18
38.8867  1.17911e+19
39.004  1.41598e+19
39.1213  1.65732e+19
39.2386  1.87863e+19
39.3559  2.05826e+19
39.4732  2.17553e+19
39.5905  2.21474e+19
39.7078  2.16228e+19
39.8251  2.01341e+19
39.9425  1.77513e+19
40.0598  1.4661e+19
40.1771  1.11938e+19
40.2944  7.76603e+18
40.4117  4.85958e+18
40.529  2.90397e+18
40.6463  2.21285e+18
40.7636  2.9024e+18
40.8809  4.86239e+18
40.9982  7.79938e+18
41.1155  1.12523e+19
41.2328  1.47183e+19
41.3501  1.77336e+19
41.4674  1.99805e+19
41.5847  2.12898e+19
41.702  2.17028e+19
41.8193  2.1411e+19
41.9366  2.06827e+19
42.0539  1.98466e+19
42.1712  1.91764e+19
42.2885  1.88646e+19
42.4059  1.89773e+19
42.5232  1.94692e+19
42.6405  2.02051e+19
42.7578  2.09222e+19
42.8751  2.13341e+19
42.9924  2.11849e+19
43.1097  2.02221e+19
43.227  1.83726e+19
43.3443  1.57389e+19
43.4616  1.26585e+19
43.5789  9.70117e+18
43.6962  7.60237e+18
43.8135  7.15524e+18
43.9308  9.05817e+18
44.0481  1.37483e+19
44.1654  2.12432e+19
44.2827  3.10748e+19
44.4  4.22901e+19
44.5173  5.35601e+19
44.6347  6.34284e+19
44.752  7.05382e+19
44.8693  7.38212e+19
44.9866  7.27854e+19
45.1039  6.76192e+19
45.2212  5.90046e+19
45.3385  4.81665e+19
45.4558  3.65234e+19
45.5731  2.54245e+19
45.6904  1.59704e+19
45.8077  8.89653e+18
45.925  4.41773e+18
46.0423  2.36744e+18
46.1596  2.26302e+18
46.2769  3.46695e+18
46.3942  5.34901e+18
46.5115  7.37232e+18
46.6288  9.18159e+18
46.7461  1.05929e+19
46.8634  1.15639e+19
46.9808  1.21389e+19
47.0981  1.24128e+19
47.2154  1.24576e+19
47.3327  1.23552e+19
47.45  1.21063e+19
47.5673  1.1738e+19
47.6846  1.12537e+19
47.8019  1.06205e+19
47.9192  9.8276e+18
48.0365  8.87303e+18
48.1538  7.75822e+18
48.2711  6.52467e+18
48.3884  5.22227e+18
48.5057  3.96399e+18
48.623  2.88307e+18
48.7403  2.15782e+18
48.8576  1.95172e+18
48.9749  2.4148e+18
49.0922  3.65076e+18
49.2095  5.68463e+18
49.3269  8.48243e+18
49.4442  1.19351e+19
49.5615  1.5872e+19
49.6788  2.00756e+19
49.7961  2.43406e+19
49.9134  2.8376e+19
50.0307  3.19788e+19
50.148  3.49223e+19
50.2653  3.69487e+19
50.3826  3.78933e+19
50.4999  3.76487e+19
50.6172  3.6182e+19
50.7345  3.3572e+19
50.8518  2.99864e+19
