#S 1 spectral density
#N 2
#UFWHM 12.6689
#L  abscissas [um]  spectral density
-58.5938  2.59883e+19
-58.4764  2.43471e+19
-58.3591  2.21406e+19
-58.2418  1.96904e+19
-58.1245  1.72349e+19
-58.0072  1.4853e+19
-57.8899  1.24849e+19
-57.7726  1.00643e+19
-57.6553  7.57491e+18
-57.538  5.10255e+18
-57.4207  2.86395e+18
-57.3034  1.18058e+18
-57.1861  3.8272e+17
-57.0688  7.37981e+17
-56.9515  2.3821e+18
-56.8342  5.26049e+18
-56.7169  9.15927e+18
-56.5996  1.37165e+19
-56.4823  1.85087e+19
-56.365  2.30887e+19
-56.2477  2.70905e+19
-56.1303  3.01781e+19
-56.013  3.21314e+19
-55.8957  3.27862e+19
-55.7784  3.20825e+19
-55.6611  3.00086e+19
-55.5438  2.66413e+19
-55.4265  2.22444e+19
-55.3092  1.71599e+19
-55.1919  1.1901e+19
-55.0746  7.05286e+18
-54.9573  3.24226e+18
-54.84  1.01694e+18
-54.7227  7.64727e+17
-54.6054  2.62472e+18
-54.4881  6.47115e+18
-54.3708  1.1929e+19
-54.2535  1.83903e+19
-54.1362  2.51458e+19
-54.0189  3.14948e+19
-53.9016  3.68001e+19
-53.7842  4.0561e+19
-53.6669  4.25573e+19
-53.5496  4.26556e+19
-53.4323  4.10033e+19
-53.315  3.78183e+19
-53.1977  3.34591e+19
-53.0804  2.83561e+19
-52.9631  2.29234e+19
-52.8458  1.75829e+19
-52.7285  1.26995e+19
-52.6112  8.55664e+18
-52.4939  5.32428e+18
-52.3766  3.08202e+18
-52.2593  1.80015e+18
-52.142  1.37754e+18
-52.0247  1.65575e+18
-51.9074  2.47516e+18
-51.7901  3.69802e+18
-51.6728  5.22078e+18
-51.5555  7.00535e+18
-51.4381  9.03933e+18
-51.3208  1.13206e+19
-51.2035  1.38626e+19
-51.0862  1.66274e+19
-50.9689  1.95668e+19
-50.8516  2.25913e+19
-50.7343  2.55635e+19
-50.617  2.83575e+19
-50.4997  3.08551e+19
-50.3824  3.28898e+19
-50.2651  3.43659e+19
-50.1478  3.51174e+19
-50.0305  3.5088e+19
-49.9132  3.41338e+19
-49.7959  3.22419e+19
-49.6786  2.94458e+19
-49.5613  2.58737e+19
-49.444  2.17366e+19
-49.3267  1.73325e+19
-49.2094  1.29819e+19
-49.092  9.03729e+18
-48.9747  5.7745e+18
-48.8574  3.42409e+18
-48.7401  2.09137e+18
-48.6228  1.77704e+18
-48.5055  2.37521e+18
-48.3882  3.72022e+18
-48.2709  5.58676e+18
-48.1536  7.74593e+18
-48.0363  9.97819e+18
-47.919  1.20959e+19
-47.8017  1.39405e+19
-47.6844  1.54273e+19
-47.5671  1.65094e+19
-47.4498  1.72009e+19
-47.3325  1.75378e+19
-47.2152  1.76011e+19
-47.0979  1.7434e+19
-46.9806  1.7056e+19
-46.8633  1.64287e+19
-46.7459  1.55296e+19
-46.6286  1.42647e+19
-46.5113  1.26302e+19
-46.394  1.07277e+19
-46.2767  8.80427e+18
-46.1594  7.27292e+18
-46.0421  6.67452e+18
-45.9248  7.56999e+18
-45.8075  1.04078e+19
-45.6902  1.54151e+19
-45.5729  2.24225e+19
-45.4556  3.09171e+19
-45.3383  3.99616e+19
-45.221  4.84238e+19
-45.1037  5.51286e+19
-44.9864  5.90787e+19
-44.8691  5.9685e+19
-44.7518  5.69208e+19
-44.6345  5.12495e+19
-44.5172  4.35566e+19
-44.3998  3.50628e+19
-44.2825  2.69811e+19
-44.1652  2.03815e+19
-44.0479  1.59269e+19
-43.9306  1.38787e+19
-43.8133  1.40342e+19
-43.696  1.59085e+19
-43.5787  1.88102e+19
-43.4614  2.20226e+19
-43.3441  2.49557e+19
-43.2268  2.72349e+19
-43.1095  2.86643e+19
-42.9922  2.92609e+19
-42.8749  2.91931e+19
-42.7576  2.86746e+19
-42.6403  2.79017e+19
-42.523  2.70812e+19
-42.4057  2.63003e+19
-42.2884  2.5579e+19
-42.171  2.48666e+19
-42.0537  2.4102e+19
-41.9364  2.31357e+19
-41.8191  2.18361e+19
-41.7018  2.0108e+19
-41.5845  1.79048e+19
-41.4672  1.52891e+19
-41.3499  1.24269e+19
-41.2326  9.59951e+18
-41.1153  7.15727e+18
-40.998  5.46031e+18
-40.8807  4.82154e+18
-40.7634  5.39553e+18
-40.6461  7.1709e+18
-40.5288  9.90326e+18
-40.4115  1.32036e+19
-40.2942  1.65664e+19
-40.1769  1.94582e+19
-40.0596  2.14661e+19
-39.9423  2.23298e+19
-39.825  2.19659e+19
-39.7076  2.05002e+19
-39.5903  1.82283e+19
-39.473  1.54985e+19
-39.3557  1.26771e+19
-39.2384  1.00997e+19
-39.1211  8.01545e+18
-39.0038  6.60815e+18
-38.8865  6.00172e+18
-38.7692  6.28023e+18
-38.6519  7.47199e+18
-38.5346  9.54706e+18
-38.4173  1.23752e+19
-38.3  1.57342e+19
-38.1827  1.92456e+19
-38.0654  2.24409e+19
-37.9481  2.4816e+19
-37.8308  2.58928e+19
-37.7135  2.53947e+19
-37.5962  2.32574e+19
-37.4789  1.97285e+19
-37.3615  1.53397e+19
-37.2442  1.08039e+19
-37.1269  6.93812e+18
-37.0096  4.41425e+18
-36.8923  3.69772e+18
-36.775  4.89377e+18
-36.6577  7.73758e+18
-36.5404  1.16442e+19
-36.4231  1.58425e+19
-36.3058  1.95155e+19
-36.1885  2.19903e+19
-36.0712  2.28495e+19
-35.9539  2.19992e+19
-35.8366  1.96595e+19
-35.7193  1.62959e+19
-35.602  1.25652e+19
-35.4847  9.09855e+18
-35.3674  6.46382e+18
-35.2501  5.08777e+18
-35.1328  5.21735e+18
-35.0154  6.9227e+18
-34.8981  1.01479e+19
-34.7808  1.47449e+19
-34.6635  2.04886e+19
-34.5462  2.71364e+19
-34.4289  3.44326e+19
-34.3116  4.20187e+19
-34.1943  4.95221e+19
-34.077  5.6566e+19
-33.9597  6.26845e+19
-33.8424  6.7473e+19
-33.7251  7.05247e+19
-33.6078  7.16054e+19
-33.4905  7.05642e+19
-33.3732  6.74075e+19
-33.2559  6.23286e+19
-33.1386  5.56671e+19
-33.0213  4.79011e+19
-32.904  3.96404e+19
-32.7867  3.14906e+19
-32.6693  2.41069e+19
-32.552  1.80721e+19
-32.4347  1.39015e+19
-32.3174  1.1955e+19
-32.2001  1.23922e+19
-32.0828  1.51692e+19
-31.9655  2.00318e+19
-31.8482  2.65464e+19
-31.7309  3.41386e+19
-31.6136  4.21677e+19
-31.4963  4.998e+19
-31.379  5.69755e+19
-31.2617  6.27013e+19
-31.1444  6.68239e+19
-31.0271  6.91588e+19
-30.9098  6.97719e+19
-30.7925  6.86838e+19
-30.6752  6.61675e+19
-30.5579  6.25039e+19
-30.4406  5.80203e+19
-30.3232  5.31212e+19
-30.2059  4.81132e+19
-30.0886  4.33529e+19
-29.9713  3.91417e+19
-29.854  3.56565e+19
-29.7367  3.2988e+19
-29.6194  3.11799e+19
-29.5021  3.01414e+19
-29.3848  2.97318e+19
-29.2675  2.97865e+19
-29.1502  3.01397e+19
-29.0329  3.06831e+19
-28.9156  3.13348e+19
-28.7983  3.20687e+19
-28.681  3.29296e+19
-28.5637  3.39679e+19
-28.4464  3.52683e+19
-28.3291  3.68788e+19
-28.2118  3.88164e+19
-28.0944  4.10927e+19
-27.9771  4.36696e+19
-27.8598  4.64491e+19
-27.7425  4.93399e+19
-27.6252  5.2108e+19
-27.5079  5.45934e+19
-27.3906  5.65377e+19
-27.2733  5.772e+19
-27.156  5.79778e+19
-27.0387  5.71584e+19
-26.9214  5.53062e+19
-26.8041  5.2555e+19
-26.6868  4.91744e+19
-26.5695  4.54807e+19
-26.4522  4.18661e+19
-26.3349  3.87205e+19
-26.2176  3.63108e+19
-26.1003  3.48335e+19
-25.983  3.42946e+19
-25.8657  3.4595e+19
-25.7483  3.55425e+19
-25.631  3.69135e+19
-25.5137  3.84714e+19
-25.3964  3.99973e+19
-25.2791  4.13617e+19
-25.1618  4.24834e+19
-25.0445  4.33396e+19
-24.9272  4.39934e+19
-24.8099  4.45108e+19
-24.6926  4.50669e+19
-24.5753  4.59128e+19
-24.458  4.72962e+19
-24.3407  4.96284e+19
-24.2234  5.33547e+19
-24.1061  5.89656e+19
-23.9888  6.69646e+19
-23.8715  7.78013e+19
-23.7542  9.18519e+19
-23.6369  1.09346e+20
-23.5196  1.30312e+20
-23.4023  1.54527e+20
-23.2849  1.81516e+20
-23.1676  2.1054e+20
-23.0503  2.40521e+20
-22.933  2.70311e+20
-22.8157  2.98391e+20
-22.6984  3.23278e+20
-22.5811  3.43585e+20
-22.4638  3.58126e+20
-22.3465  3.66062e+20
-22.2292  3.67119e+20
-22.1119  3.61477e+20
-21.9946  3.49823e+20
-21.8773  3.33333e+20
-21.76  3.13461e+20
-21.6427  2.91707e+20
-21.5254  2.69483e+20
-21.4081  2.48051e+20
-21.2908  2.28341e+20
-21.1735  2.10888e+20
-21.0561  1.9599e+20
-20.9388  1.8359e+20
-20.8215  1.73561e+20
-20.7042  1.65749e+20
-20.5869  1.60007e+20
-20.4696  1.56261e+20
-20.3523  1.54568e+20
-20.235  1.55073e+20
-20.1177  1.58054e+20
-20.0004  1.63752e+20
-19.8831  1.72316e+20
-19.7658  1.84053e+20
-19.6485  1.98926e+20
-19.5312  2.16802e+20
-19.4139  2.37275e+20
-19.2966  2.59727e+20
-19.1793  2.83272e+20
-19.062  3.06835e+20
-18.9447  3.29241e+20
-18.8274  3.49376e+20
-18.71  3.66152e+20
-18.5927  3.78904e+20
-18.4754  3.87297e+20
-18.3581  3.91267e+20
-18.2408  3.91436e+20
-18.1235  3.88487e+20
-18.0062  3.83567e+20
-17.8889  3.77864e+20
-17.7716  3.72483e+20
-17.6543  3.6882e+20
-17.537  3.67717e+20
-17.4197  3.70229e+20
-17.3024  3.77013e+20
-17.1851  3.88649e+20
-17.0678  4.05471e+20
-16.9505  4.27558e+20
-16.8332  4.54757e+20
-16.7159  4.86668e+20
-16.5986  5.22597e+20
-16.4813  5.61637e+20
-16.364  6.02654e+20
-16.2466  6.44472e+20
-16.1293  6.85619e+20
-16.012  7.25289e+20
-15.8947  7.62411e+20
-15.7774  7.96531e+20
-15.6601  8.27457e+20
-15.5428  8.55483e+20
-15.4255  8.81163e+20
-15.3082  9.05716e+20
-15.1909  9.30119e+20
-15.0736  9.55995e+20
-14.9563  9.8462e+20
-14.839  1.01734e+21
-14.7217  1.05491e+21
-14.6044  1.09808e+21
-14.4871  1.1468e+21
-14.3698  1.20071e+21
-14.2525  1.25866e+21
-14.1352  1.31915e+21
-14.0178  1.38027e+21
-13.9005  1.44e+21
-13.7832  1.49614e+21
-13.6659  1.54659e+21
-13.5486  1.58985e+21
-13.4313  1.62472e+21
-13.314  1.65048e+21
-13.1967  1.66707e+21
-13.0794  1.67524e+21
-12.9621  1.67582e+21
-12.8448  1.67038e+21
-12.7275  1.6605e+21
-12.6102  1.64813e+21
-12.4929  1.63501e+21
-12.3756  1.62277e+21
-12.2583  1.61302e+21
-12.141  1.60705e+21
-12.0237  1.60596e+21
-11.9064  1.6107e+21
-11.7891  1.62211e+21
-11.6718  1.64112e+21
-11.5544  1.66859e+21
-11.4371  1.70536e+21
-11.3198  1.7526e+21
-11.2025  1.81141e+21
-11.0852  1.88312e+21
-10.9679  1.969e+21
-10.8506  2.07025e+21
-10.7333  2.1878e+21
-10.616  2.32234e+21
-10.4987  2.47429e+21
-10.3814  2.64307e+21
-10.2641  2.82772e+21
-10.1468  3.02701e+21
-10.0295  3.23846e+21
-9.91217  3.45924e+21
-9.79487  3.68639e+21
-9.67756  3.91631e+21
-9.56026  4.14527e+21
-9.44295  4.36957e+21
-9.32565  4.58633e+21
-9.20834  4.79239e+21
-9.09104  4.9857e+21
-8.97373  5.16477e+21
-8.85643  5.32938e+21
-8.73913  5.47947e+21
-8.62182  5.61629e+21
-8.50452  5.74142e+21
-8.38721  5.85753e+21
-8.26991  5.96654e+21
-8.1526  6.07149e+21
-8.03529  6.17442e+21
-7.91799  6.27789e+21
-7.80069  6.38367e+21
-7.68338  6.49299e+21
-7.56608  6.60734e+21
-7.44877  6.72753e+21
-7.33146  6.85396e+21
-7.21416  6.9869e+21
-7.09685  7.12658e+21
-6.97955  7.27291e+21
-6.86224  7.42592e+21
-6.74494  7.58539e+21
-6.62763  7.75039e+21
-6.51033  7.92057e+21
-6.39302  8.09501e+21
-6.27572  8.27264e+21
-6.15842  8.45234e+21
-6.04111  8.63266e+21
-5.92381  8.81206e+21
-5.8065  8.98956e+21
-5.68919  9.16373e+21
-5.57189  9.33374e+21
-5.45458  9.499e+21
-5.33728  9.65994e+21
-5.21997  9.81659e+21
-5.10267  9.97066e+21
-4.98536  1.01234e+22
-4.86806  1.02768e+22
-4.75075  1.04329e+22
-4.63345  1.05942e+22
-4.51614  1.07621e+22
-4.39884  1.0938e+22
-4.28154  1.1123e+22
-4.16423  1.13174e+22
-4.04692  1.15198e+22
-3.92962  1.17292e+22
-3.81231  1.1944e+22
-3.69501  1.21613e+22
-3.5777  1.23786e+22
-3.4604  1.25926e+22
-3.34309  1.28007e+22
-3.22579  1.3e+22
-3.10849  1.31891e+22
-2.99118  1.33661e+22
-2.87387  1.35308e+22
-2.75657  1.36833e+22
-2.63926  1.38247e+22
-2.52196  1.39565e+22
-2.40465  1.40812e+22
-2.28735  1.42004e+22
-2.17005  1.43171e+22
-2.05274  1.44337e+22
-1.93544  1.45512e+22
-1.81813  1.46717e+22
-1.70083  1.47958e+22
-1.58352  1.49234e+22
-1.46622  1.50543e+22
-1.34891  1.51869e+22
-1.2316  1.53199e+22
-1.1143  1.54509e+22
-0.996995  1.55777e+22
-0.87969  1.56981e+22
-0.762385  1.58086e+22
-0.64508  1.59081e+22
-0.527775  1.59939e+22
-0.41047  1.60644e+22
-0.293165  1.6118e+22
-0.17586  1.61543e+22
-0.058555  1.61722e+22
0.05875  1.61715e+22
0.176055  1.61524e+22
0.29336  1.6115e+22
0.410665  1.60601e+22
0.52797  1.59884e+22
0.645275  1.59015e+22
0.76258  1.58009e+22
0.879885  1.56892e+22
0.99719  1.5568e+22
1.1145  1.54402e+22
1.2318  1.53082e+22
1.3491  1.51744e+22
1.46641  1.50407e+22
1.58371  1.4909e+22
1.70102  1.47804e+22
1.81832  1.46554e+22
1.93563  1.45339e+22
2.05294  1.44153e+22
2.17024  1.42982e+22
2.28754  1.41808e+22
2.40485  1.40604e+22
2.52216  1.39351e+22
2.63946  1.38025e+22
2.75677  1.36602e+22
2.87407  1.35069e+22
2.99137  1.33414e+22
3.10868  1.31634e+22
3.22599  1.29736e+22
3.34329  1.27733e+22
3.4606  1.25646e+22
3.5779  1.23499e+22
3.69521  1.2132e+22
3.81251  1.19141e+22
3.92982  1.16987e+22
4.04712  1.14885e+22
4.16443  1.12857e+22
4.28173  1.10912e+22
4.39903  1.09057e+22
4.51634  1.07296e+22
4.63364  1.05616e+22
4.75095  1.04003e+22
4.86825  1.0244e+22
4.98556  1.00905e+22
5.10286  9.93803e+21
5.22017  9.78381e+21
5.33748  9.62714e+21
5.45478  9.46629e+21
5.57209  9.30103e+21
5.68939  9.13089e+21
5.8067  8.95658e+21
5.924  8.77889e+21
6.0413  8.59932e+21
6.15861  8.41884e+21
6.27591  8.23878e+21
6.39322  8.06107e+21
6.51052  7.88645e+21
6.62783  7.71603e+21
6.74514  7.55086e+21
6.86244  7.39168e+21
6.97975  7.23875e+21
7.09705  7.09263e+21
7.21436  6.95332e+21
7.33166  6.82059e+21
7.44897  6.6947e+21
7.56627  6.57505e+21
7.68358  6.4611e+21
7.80088  6.35197e+21
7.91819  6.24647e+21
8.03549  6.14324e+21
8.1528  6.04041e+21
8.2701  5.93539e+21
8.38741  5.82611e+21
8.50471  5.70984e+21
8.62202  5.58454e+21
8.73932  5.44736e+21
8.85662  5.29712e+21
8.97393  5.13262e+21
9.09123  4.95354e+21
9.20854  4.76052e+21
9.32584  4.55501e+21
9.44315  4.33897e+21
9.56045  4.11532e+21
9.67776  3.88747e+21
9.79506  3.6587e+21
9.91237  3.43282e+21
10.0297  3.21333e+21
10.147  3.00338e+21
10.2643  2.80559e+21
10.3816  2.62217e+21
10.4989  2.45473e+21
10.6162  2.30406e+21
10.7335  2.17051e+21
10.8508  2.05397e+21
10.9681  1.95358e+21
11.0854  1.86858e+21
11.2027  1.79758e+21
11.32  1.73937e+21
11.4373  1.69271e+21
11.5546  1.6564e+21
11.6719  1.62937e+21
11.7893  1.61084e+21
11.9066  1.59979e+21
12.0239  1.59527e+21
12.1412  1.59677e+21
12.2585  1.60293e+21
12.3758  1.61292e+21
12.4931  1.62528e+21
12.6104  1.63856e+21
12.7277  1.65097e+21
12.845  1.66082e+21
12.9623  1.6662e+21
13.0796  1.66566e+21
13.1969  1.65742e+21
13.3142  1.64085e+21
13.4315  1.61509e+21
13.5488  1.58027e+21
13.6661  1.53712e+21
13.7834  1.48675e+21
13.9007  1.43087e+21
14.018  1.37141e+21
14.1354  1.31052e+21
14.2527  1.25039e+21
14.37  1.19282e+21
14.4873  1.13929e+21
14.6046  1.09083e+21
14.7219  1.04793e+21
14.8392  1.01059e+21
14.9565  9.78112e+20
15.0738  9.49714e+20
15.1911  9.2401e+20
15.3084  8.99693e+20
15.4257  8.75281e+20
15.543  8.49696e+20
15.6603  8.21852e+20
15.7776  7.911e+20
15.8949  7.57161e+20
16.0122  7.20304e+20
16.1295  6.80915e+20
16.2468  6.39942e+20
16.3641  5.98506e+20
16.4815  5.57783e+20
16.5988  5.19052e+20
16.7161  4.8341e+20
16.8334  4.51798e+20
16.9507  4.24842e+20
17.068  4.03044e+20
17.1853  3.86487e+20
17.3026  3.75131e+20
17.4199  3.68528e+20
17.5372  3.66187e+20
17.6545  3.67464e+20
17.7718  3.71354e+20
17.8891  3.76774e+20
18.0064  3.8265e+20
18.1237  3.87695e+20
18.241  3.90643e+20
18.3583  3.90506e+20
18.4756  3.86524e+20
18.5929  3.78158e+20
18.7102  3.65305e+20
18.8275  3.48531e+20
18.9449  3.28427e+20
19.0622  3.06029e+20
19.1795  2.82557e+20
19.2968  2.59058e+20
19.4141  2.36728e+20
19.5314  2.16375e+20
19.6487  1.98618e+20
19.766  1.83908e+20
19.8833  1.7228e+20
20.0006  1.63804e+20
20.1179  1.58232e+20
20.2352  1.55371e+20
20.3525  1.54906e+20
20.4698  1.5662e+20
20.5871  1.60373e+20
20.7044  1.6615e+20
20.8217  1.73986e+20
20.939  1.8402e+20
21.0563  1.96426e+20
21.1736  2.11338e+20
21.291  2.28803e+20
21.4083  2.48564e+20
21.5256  2.69962e+20
21.6429  2.92178e+20
21.7602  3.13945e+20
21.8775  3.33779e+20
21.9948  3.50165e+20
22.1121  3.61684e+20
22.2294  3.67135e+20
22.3467  3.65979e+20
22.464  3.57798e+20
22.5813  3.43066e+20
22.6986  3.2262e+20
22.8159  2.97615e+20
22.9332  2.69471e+20
23.0505  2.39685e+20
23.1678  2.09672e+20
23.2851  1.807e+20
23.4024  1.53779e+20
23.5198  1.29688e+20
23.6371  1.08826e+20
23.7544  9.14379e+19
23.8717  7.74857e+19
23.989  6.67296e+19
24.1063  5.87815e+19
24.2236  5.3194e+19
24.3409  4.94712e+19
24.4582  4.71149e+19
24.5755  4.56876e+19
24.6928  4.48091e+19
24.8101  4.41943e+19
24.9274  4.36172e+19
25.0447  4.2933e+19
25.162  4.20471e+19
25.2793  4.09231e+19
25.3966  3.95529e+19
25.5139  3.80349e+19
25.6312  3.65127e+19
25.7485  3.51954e+19
25.8658  3.4316e+19
25.9832  3.40855e+19
26.1005  3.47315e+19
26.2178  3.632e+19
26.3351  3.88099e+19
26.4524  4.20355e+19
26.5697  4.57032e+19
26.687  4.94329e+19
26.8043  5.28552e+19
26.9216  5.5583e+19
27.0389  5.74009e+19
27.1562  5.8178e+19
27.2735  5.78869e+19
27.3908  5.66528e+19
27.5081  5.46892e+19
27.6254  5.21881e+19
27.7427  4.94154e+19
27.86  4.65527e+19
27.9773  4.37972e+19
28.0946  4.12584e+19
28.212  3.89965e+19
28.3293  3.70893e+19
28.4466  3.54872e+19
28.5639  3.41923e+19
28.6812  3.31407e+19
28.7985  3.22601e+19
28.9158  3.1495e+19
29.0331  3.08182e+19
29.1504  3.02491e+19
29.2677  2.98812e+19
29.385  2.98312e+19
29.5023  3.02638e+19
29.6196  3.13258e+19
29.7369  3.31759e+19
29.8542  3.5888e+19
29.9715  3.94323e+19
30.0888  4.37023e+19
30.2061  4.84695e+19
30.3234  5.34814e+19
30.4407  5.83999e+19
30.558  6.28403e+19
30.6754  6.64774e+19
30.7927  6.89149e+19
30.91  6.99054e+19
31.0273  6.92562e+19
31.1446  6.67894e+19
31.2619  6.25948e+19
31.3792  5.68009e+19
31.4965  4.97678e+19
31.6138  4.1962e+19
31.7311  3.39388e+19
31.8484  2.63704e+19
31.9657  1.99071e+19
32.083  1.5099e+19
32.2003  1.23832e+19
32.3176  1.20013e+19
32.4349  1.39861e+19
32.5522  1.81773e+19
32.6695  2.42087e+19
32.7868  3.15841e+19
32.9042  3.96981e+19
33.0215  4.7916e+19
33.1388  5.56174e+19
33.2561  6.22083e+19
33.3734  6.72216e+19
33.4907  7.0301e+19
33.608  7.13007e+19
33.7253  7.01984e+19
33.8426  6.70957e+19
33.9599  6.23075e+19
34.0772  5.61838e+19
34.1945  4.91613e+19
34.3118  4.16766e+19
34.4291  3.41303e+19
34.5464  2.68889e+19
34.6637  2.02772e+19
34.781  1.45852e+19
34.8983  1.00576e+19
35.0156  6.89452e+18
35.1329  5.25e+18
35.2503  5.17598e+18
35.3676  6.59822e+18
35.4849  9.25188e+18
35.6022  1.27255e+19
35.7195  1.64413e+19
35.8368  1.97439e+19
35.9541  2.20335e+19
36.0714  2.28054e+19
36.1887  2.18832e+19
36.306  1.93529e+19
36.4233  1.56435e+19
36.5406  1.14412e+19
36.6579  7.55824e+18
36.7752  4.76656e+18
36.8925  3.63823e+18
37.0098  4.42485e+18
37.1271  7.00774e+18
37.2444  1.09345e+19
37.3617  1.55058e+19
37.479  1.99105e+19
37.5964  2.34239e+19
37.7137  2.55477e+19
37.831  2.60036e+19
37.9483  2.48878e+19
38.0656  2.2474e+19
38.1829  1.92538e+19
38.3002  1.5719e+19
38.4175  1.23605e+19
38.5348  9.53365e+18
38.6521  7.4692e+18
38.7694  6.30309e+18
38.8867  6.04903e+18
39.004  6.67737e+18
39.1213  8.10316e+18
39.2386  1.02075e+19
39.3559  1.28061e+19
39.4732  1.5634e+19
39.5905  1.83723e+19
39.7078  2.06378e+19
39.8251  2.20704e+19
39.9425  2.24074e+19
40.0598  2.15166e+19
40.1771  1.94814e+19
40.2944  1.65574e+19
40.4117  1.31866e+19
40.529  9.88226e+18
40.6463  7.15805e+18
40.7636  5.41354e+18
40.8809  4.85747e+18
40.9982  5.53448e+18
41.1155  7.26072e+18
41.2328  9.73028e+18
41.3501  1.25718e+19
41.4674  1.54465e+19
41.5847  1.80624e+19
41.702  2.02553e+19
41.8193  2.19771e+19
41.9366  2.32512e+19
42.0539  2.41988e+19
42.1712  2.49502e+19
42.2885  2.56388e+19
42.4059  2.63435e+19
42.5232  2.71083e+19
42.6405  2.79225e+19
42.7578  2.86692e+19
42.8751  2.91704e+19
42.9924  2.92413e+19
43.1097  2.86235e+19
43.227  2.71963e+19
43.3443  2.49205e+19
43.4616  2.19762e+19
43.5789  1.87659e+19
43.6962  1.58911e+19
43.8135  1.40441e+19
43.9308  1.39149e+19
44.0481  1.6006e+19
44.1654  2.04891e+19
44.2827  2.71102e+19
44.4  3.51766e+19
44.5173  4.36267e+19
44.6347  5.1249e+19
44.752  5.68692e+19
44.8693  5.9548e+19
44.9866  5.88075e+19
45.1039  5.47925e+19
45.2212  4.80279e+19
45.3385  3.95467e+19
45.4558  3.05432e+19
45.5731  2.21247e+19
45.6904  1.51808e+19
45.8077  1.02801e+19
45.925  7.52318e+18
46.0423  6.70178e+18
46.1596  7.35106e+18
46.2769  8.89876e+18
46.3942  1.08335e+19
46.5115  1.27152e+19
46.6288  1.43251e+19
46.7461  1.55578e+19
46.8634  1.64376e+19
46.9808  1.70283e+19
47.0981  1.73866e+19
47.2154  1.75278e+19
47.3327  1.74548e+19
47.45  1.70841e+19
47.5673  1.63717e+19
47.6846  1.52862e+19
47.8019  1.37932e+19
47.9192  1.19448e+19
48.0365  9.83829e+18
48.1538  7.61813e+18
48.2711  5.4828e+18
48.3884  3.64463e+18
48.5057  2.33672e+18
48.623  1.77955e+18
48.7403  2.14759e+18
48.8576  3.53478e+18
48.9749  5.94217e+18
49.0922  9.25687e+18
49.2095  1.32447e+19
49.3269  1.76282e+19
49.4442  2.2052e+19
49.5615  2.61825e+19
49.6788  2.9711e+19
49.7961  3.24653e+19
49.9134  3.42677e+19
50.0307  3.51443e+19
50.148  3.51441e+19
50.2653  3.43215e+19
50.3826  3.28109e+19
50.4999  3.07418e+19
50.6172  2.8247e+19
50.7345  2.54588e+19
50.8518  2.24964e+19
