#S 1 spectral density
#N 2
#UFWHM 10.5575
#L  abscissas [um]  spectral density
-58.5938  1.04574e+19
-58.4764  1.498e+19
-58.3591  2.07152e+19
-58.2418  2.74751e+19
-58.1245  3.5061e+19
-58.0072  4.32405e+19
-57.8899  5.18763e+19
-57.7726  6.08532e+19
-57.6553  7.01391e+19
-57.538  7.97446e+19
-57.4207  8.9762e+19
-57.3034  1.00053e+20
-57.1861  1.10493e+20
-57.0688  1.20707e+20
-56.9515  1.30319e+20
-56.8342  1.38749e+20
-56.7169  1.45534e+20
-56.5996  1.50247e+20
-56.4823  1.52689e+20
-56.365  1.52994e+20
-56.2477  1.51368e+20
-56.1303  1.48291e+20
-56.013  1.44282e+20
-55.8957  1.39794e+20
-55.7784  1.35294e+20
-55.6611  1.30956e+20
-55.5438  1.26871e+20
-55.4265  1.23092e+20
-55.3092  1.1948e+20
-55.1919  1.16006e+20
-55.0746  1.1267e+20
-54.9573  1.09426e+20
-54.84  1.06475e+20
-54.7227  1.03879e+20
-54.6054  1.0173e+20
-54.4881  1.00045e+20
-54.3708  9.87487e+19
-54.2535  9.76933e+19
-54.1362  9.65858e+19
-54.0189  9.51686e+19
-53.9016  9.31932e+19
-53.7842  9.03664e+19
-53.6669  8.66453e+19
-53.5496  8.19531e+19
-53.4323  7.65103e+19
-53.315  7.05851e+19
-53.1977  6.46e+19
-53.0804  5.898e+19
-52.9631  5.41483e+19
-52.8458  5.04341e+19
-52.7285  4.80619e+19
-52.6112  4.70511e+19
-52.4939  4.72656e+19
-52.3766  4.83986e+19
-52.2593  5.00738e+19
-52.142  5.18581e+19
-52.0247  5.34641e+19
-51.9074  5.46091e+19
-51.7901  5.52377e+19
-51.6728  5.54281e+19
-51.5555  5.53345e+19
-51.4381  5.52871e+19
-51.3208  5.56114e+19
-51.2035  5.66835e+19
-51.0862  5.88035e+19
-50.9689  6.22943e+19
-50.8516  6.74197e+19
-50.7343  7.43135e+19
-50.617  8.29686e+19
-50.4997  9.32469e+19
-50.3824  1.04738e+20
-50.2651  1.16916e+20
-50.1478  1.28942e+20
-50.0305  1.39929e+20
-49.9132  1.48974e+20
-49.7959  1.55249e+20
-49.6786  1.5817e+20
-49.5613  1.5751e+20
-49.444  1.53438e+20
-49.3267  1.46326e+20
-49.2094  1.36898e+20
-49.092  1.2603e+20
-48.9747  1.14618e+20
-48.8574  1.03515e+20
-48.7401  9.32887e+19
-48.6228  8.44718e+19
-48.5055  7.72882e+19
-48.3882  7.18801e+19
-48.2709  6.82718e+19
-48.1536  6.63231e+19
-48.0363  6.57911e+19
-47.919  6.64511e+19
-47.8017  6.78695e+19
-47.6844  6.96994e+19
-47.5671  7.14653e+19
-47.4498  7.27544e+19
-47.3325  7.32647e+19
-47.2152  7.28793e+19
-47.0979  7.15503e+19
-46.9806  6.94624e+19
-46.8633  6.69226e+19
-46.7459  6.43472e+19
-46.6286  6.21131e+19
-46.5113  6.05836e+19
-46.394  6.00773e+19
-46.2767  6.07645e+19
-46.1594  6.27754e+19
-46.0421  6.60599e+19
-45.9248  7.05267e+19
-45.8075  7.59348e+19
-45.6902  8.19302e+19
-45.5729  8.80462e+19
-45.4556  9.37705e+19
-45.3383  9.84759e+19
-45.221  1.01582e+20
-45.1037  1.0263e+20
-44.9864  1.01284e+20
-44.8691  9.76493e+19
-44.7518  9.18699e+19
-44.6345  8.45007e+19
-44.5172  7.62204e+19
-44.3998  6.77116e+19
-44.2825  5.96749e+19
-44.1652  5.25916e+19
-44.0479  4.6799e+19
-43.9306  4.24686e+19
-43.8133  3.96565e+19
-43.696  3.82989e+19
-43.5787  3.82898e+19
-43.4614  3.95144e+19
-43.3441  4.18246e+19
-43.2268  4.50684e+19
-43.1095  4.89612e+19
-42.9922  5.30889e+19
-42.8749  5.70167e+19
-42.7576  6.02331e+19
-42.6403  6.23171e+19
-42.523  6.30002e+19
-42.4057  6.2242e+19
-42.2884  6.02698e+19
-42.171  5.75474e+19
-42.0537  5.47015e+19
-41.9364  5.2337e+19
-41.8191  5.09924e+19
-41.7018  5.09876e+19
-41.5845  5.23571e+19
-41.4672  5.49691e+19
-41.3499  5.84964e+19
-41.2326  6.25566e+19
-41.1153  6.68232e+19
-40.998  7.10967e+19
-40.8807  7.52946e+19
-40.7634  7.95297e+19
-40.6461  8.39583e+19
-40.5288  8.88019e+19
-40.4115  9.42945e+19
-40.2942  1.00654e+20
-40.1769  1.08094e+20
-40.0596  1.16804e+20
-39.9423  1.27018e+20
-39.825  1.38967e+20
-39.7076  1.52843e+20
-39.5903  1.68768e+20
-39.473  1.86605e+20
-39.3557  2.06074e+20
-39.2384  2.26563e+20
-39.1211  2.47268e+20
-39.0038  2.67267e+20
-38.8865  2.85614e+20
-38.7692  3.0144e+20
-38.6519  3.14272e+20
-38.5346  3.23732e+20
-38.4173  3.29992e+20
-38.3  3.33273e+20
-38.1827  3.34062e+20
-38.0654  3.32913e+20
-37.9481  3.3031e+20
-37.8308  3.26566e+20
-37.7135  3.22015e+20
-37.5962  3.16764e+20
-37.4789  3.1098e+20
-37.3615  3.04702e+20
-37.2442  2.98122e+20
-37.1269  2.91368e+20
-37.0096  2.84674e+20
-36.8923  2.78229e+20
-36.775  2.72073e+20
-36.6577  2.66196e+20
-36.5404  2.6074e+20
-36.4231  2.55528e+20
-36.3058  2.50437e+20
-36.1885  2.4546e+20
-36.0712  2.40368e+20
-35.9539  2.35223e+20
-35.8366  2.29898e+20
-35.7193  2.24247e+20
-35.602  2.18211e+20
-35.4847  2.11617e+20
-35.3674  2.04311e+20
-35.2501  1.96195e+20
-35.1328  1.8727e+20
-35.0154  1.7764e+20
-34.8981  1.6743e+20
-34.7808  1.56975e+20
-34.6635  1.46689e+20
-34.5462  1.36746e+20
-34.4289  1.27497e+20
-34.3116  1.19059e+20
-34.1943  1.11546e+20
-34.077  1.04915e+20
-33.9597  9.90847e+19
-33.8424  9.39143e+19
-33.7251  8.93719e+19
-33.6078  8.53932e+19
-33.4905  8.18483e+19
-33.3732  7.87629e+19
-33.2559  7.60619e+19
-33.1386  7.36619e+19
-33.0213  7.1601e+19
-32.904  6.98682e+19
-32.7867  6.85779e+19
-32.6693  6.78476e+19
-32.552  6.79278e+19
-32.4347  6.89753e+19
-32.3174  7.12421e+19
-32.2001  7.4831e+19
-32.0828  7.96978e+19
-31.9655  8.5733e+19
-31.8482  9.26379e+19
-31.7309  1.00015e+20
-31.6136  1.07511e+20
-31.4963  1.14712e+20
-31.379  1.21325e+20
-31.2617  1.27178e+20
-31.1444  1.32232e+20
-31.0271  1.36561e+20
-30.9098  1.40326e+20
-30.7925  1.43768e+20
-30.6752  1.47184e+20
-30.5579  1.50788e+20
-30.4406  1.54885e+20
-30.3232  1.59698e+20
-30.2059  1.65276e+20
-30.0886  1.71682e+20
-29.9713  1.78796e+20
-29.854  1.86408e+20
-29.7367  1.94154e+20
-29.6194  2.01624e+20
-29.5021  2.08514e+20
-29.3848  2.14433e+20
-29.2675  2.19014e+20
-29.1502  2.22162e+20
-29.0329  2.2383e+20
-28.9156  2.24005e+20
-28.7983  2.22836e+20
-28.681  2.20507e+20
-28.5637  2.17323e+20
-28.4464  2.1354e+20
-28.3291  2.09706e+20
-28.2118  2.0626e+20
-28.0944  2.03772e+20
-27.9771  2.02931e+20
-27.8598  2.04208e+20
-27.7425  2.07878e+20
-27.6252  2.14083e+20
-27.5079  2.22455e+20
-27.3906  2.3238e+20
-27.2733  2.4317e+20
-27.156  2.53764e+20
-27.0387  2.63263e+20
-26.9214  2.71047e+20
-26.8041  2.76614e+20
-26.6868  2.80025e+20
-26.5695  2.81484e+20
-26.4522  2.8163e+20
-26.3349  2.81105e+20
-26.2176  2.8067e+20
-26.1003  2.81059e+20
-25.983  2.82883e+20
-25.8657  2.86686e+20
-25.7483  2.92959e+20
-25.631  3.01948e+20
-25.5137  3.13924e+20
-25.3964  3.28799e+20
-25.2791  3.46408e+20
-25.1618  3.66256e+20
-25.0445  3.87592e+20
-24.9272  4.0948e+20
-24.8099  4.31113e+20
-24.6926  4.51548e+20
-24.5753  4.70118e+20
-24.458  4.86591e+20
-24.3407  5.00944e+20
-24.2234  5.13479e+20
-24.1061  5.24624e+20
-23.9888  5.34857e+20
-23.8715  5.44689e+20
-23.7542  5.53947e+20
-23.6369  5.62808e+20
-23.5196  5.70861e+20
-23.4023  5.77605e+20
-23.2849  5.82791e+20
-23.1676  5.86021e+20
-23.0503  5.87231e+20
-22.933  5.86626e+20
-22.8157  5.8443e+20
-22.6984  5.81342e+20
-22.5811  5.78132e+20
-22.4638  5.75667e+20
-22.3465  5.75007e+20
-22.2292  5.77108e+20
-22.1119  5.82816e+20
-21.9946  5.92875e+20
-21.8773  6.07601e+20
-21.76  6.26717e+20
-21.6427  6.49228e+20
-21.5254  6.7376e+20
-21.4081  6.97991e+20
-21.2908  7.19595e+20
-21.1735  7.36142e+20
-21.0561  7.45591e+20
-20.9388  7.46521e+20
-20.8215  7.388e+20
-20.7042  7.22655e+20
-20.5869  6.99599e+20
-20.4696  6.71902e+20
-20.3523  6.41928e+20
-20.235  6.12121e+20
-20.1177  5.84833e+20
-20.0004  5.61771e+20
-19.8831  5.44567e+20
-19.7658  5.33777e+20
-19.6485  5.29728e+20
-19.5312  5.32277e+20
-19.4139  5.40812e+20
-19.2966  5.54375e+20
-19.1793  5.71618e+20
-19.062  5.90772e+20
-18.9447  6.10099e+20
-18.8274  6.27656e+20
-18.71  6.41838e+20
-18.5927  6.51357e+20
-18.4754  6.55454e+20
-18.3581  6.54473e+20
-18.2408  6.48728e+20
-18.1235  6.39921e+20
-18.0062  6.2952e+20
-17.8889  6.19411e+20
-17.7716  6.11268e+20
-17.6543  6.06155e+20
-17.537  6.05043e+20
-17.4197  6.08272e+20
-17.3024  6.15816e+20
-17.1851  6.27504e+20
-17.0678  6.43005e+20
-16.9505  6.61937e+20
-16.8332  6.84139e+20
-16.7159  7.09136e+20
-16.5986  7.36918e+20
-16.4813  7.67025e+20
-16.364  7.99138e+20
-16.2466  8.32893e+20
-16.1293  8.68071e+20
-16.012  9.04291e+20
-15.8947  9.41451e+20
-15.7774  9.79626e+20
-15.6601  1.01885e+21
-15.5428  1.05953e+21
-15.4255  1.10222e+21
-15.3082  1.14727e+21
-15.1909  1.19537e+21
-15.0736  1.24683e+21
-14.9563  1.30237e+21
-14.839  1.36213e+21
-14.7217  1.42674e+21
-14.6044  1.49636e+21
-14.4871  1.571e+21
-14.3698  1.65077e+21
-14.2525  1.73559e+21
-14.1352  1.82508e+21
-14.0178  1.91882e+21
-13.9005  2.01639e+21
-13.7832  2.11726e+21
-13.6659  2.22115e+21
-13.5486  2.32737e+21
-13.4313  2.43619e+21
-13.314  2.54719e+21
-13.1967  2.66057e+21
-13.0794  2.77628e+21
-12.9621  2.89442e+21
-12.8448  3.01499e+21
-12.7275  3.13836e+21
-12.6102  3.26426e+21
-12.4929  3.3928e+21
-12.3756  3.52426e+21
-12.2583  3.65839e+21
-12.141  3.79579e+21
-12.0237  3.93614e+21
-11.9064  4.08013e+21
-11.7891  4.22752e+21
-11.6718  4.37914e+21
-11.5544  4.53488e+21
-11.4371  4.69523e+21
-11.3198  4.86057e+21
-11.2025  5.03126e+21
-11.0852  5.20755e+21
-10.9679  5.38982e+21
-10.8506  5.57828e+21
-10.7333  5.77311e+21
-10.616  5.97426e+21
-10.4987  6.18208e+21
-10.3814  6.3965e+21
-10.2641  6.61804e+21
-10.1468  6.84809e+21
-10.0295  7.08745e+21
-9.91217  7.3381e+21
-9.79487  7.60202e+21
-9.67756  7.88174e+21
-9.56026  8.17965e+21
-9.44295  8.49803e+21
-9.32565  8.83921e+21
-9.20834  9.20457e+21
-9.09104  9.5952e+21
-8.97373  1.00117e+22
-8.85643  1.04536e+22
-8.73913  1.09208e+22
-8.62182  1.14114e+22
-8.50452  1.19239e+22
-8.38721  1.24567e+22
-8.26991  1.3008e+22
-8.1526  1.35764e+22
-8.03529  1.4161e+22
-7.91799  1.47609e+22
-7.80069  1.5377e+22
-7.68338  1.60099e+22
-7.56608  1.66612e+22
-7.44877  1.73331e+22
-7.33146  1.80273e+22
-7.21416  1.87463e+22
-7.09685  1.94915e+22
-6.97955  2.0264e+22
-6.86224  2.10639e+22
-6.74494  2.189e+22
-6.62763  2.27412e+22
-6.51033  2.36143e+22
-6.39302  2.45062e+22
-6.27572  2.5413e+22
-6.15842  2.63306e+22
-6.04111  2.72549e+22
-5.92381  2.81831e+22
-5.8065  2.91115e+22
-5.68919  3.00381e+22
-5.57189  3.0963e+22
-5.45458  3.1886e+22
-5.33728  3.28086e+22
-5.21997  3.37341e+22
-5.10267  3.46653e+22
-4.98536  3.56063e+22
-4.86806  3.65606e+22
-4.75075  3.75315e+22
-4.63345  3.85218e+22
-4.51614  3.9533e+22
-4.39884  4.05656e+22
-4.28154  4.16184e+22
-4.16423  4.26905e+22
-4.04692  4.37776e+22
-3.92962  4.48756e+22
-3.81231  4.59792e+22
-3.69501  4.70811e+22
-3.5777  4.81756e+22
-3.4604  4.92545e+22
-3.34309  5.03107e+22
-3.22579  5.13375e+22
-3.10849  5.23304e+22
-2.99118  5.32836e+22
-2.87387  5.41961e+22
-2.75657  5.50664e+22
-2.63926  5.58948e+22
-2.52196  5.6683e+22
-2.40465  5.74339e+22
-2.28735  5.81499e+22
-2.17005  5.88344e+22
-2.05274  5.949e+22
-1.93544  6.01186e+22
-1.81813  6.07226e+22
-1.70083  6.1303e+22
-1.58352  6.18606e+22
-1.46622  6.23948e+22
-1.34891  6.29039e+22
-1.2316  6.33866e+22
-1.1143  6.38402e+22
-0.996995  6.42614e+22
-0.87969  6.46466e+22
-0.762385  6.49918e+22
-0.64508  6.52942e+22
-0.527775  6.55508e+22
-0.41047  6.57594e+22
-0.293165  6.59178e+22
-0.17586  6.60258e+22
-0.058555  6.60825e+22
0.05875  6.60877e+22
0.176055  6.60409e+22
0.29336  6.59435e+22
0.410665  6.57947e+22
0.52797  6.55962e+22
0.645275  6.53491e+22
0.76258  6.50565e+22
0.879885  6.47204e+22
0.99719  6.43448e+22
1.1145  6.39332e+22
1.2318  6.3489e+22
1.3491  6.30154e+22
1.46641  6.25158e+22
1.58371  6.19913e+22
1.70102  6.14435e+22
1.81832  6.08727e+22
1.93563  6.02785e+22
2.05294  5.96594e+22
2.17024  5.90138e+22
2.28754  5.8339e+22
2.40485  5.7632e+22
2.52216  5.68903e+22
2.63946  5.61101e+22
2.75677  5.52894e+22
2.87407  5.44265e+22
2.99137  5.35207e+22
3.10868  5.25726e+22
3.22599  5.15853e+22
3.34329  5.05631e+22
3.4606  4.95108e+22
3.5779  4.84355e+22
3.69521  4.73448e+22
3.81251  4.62454e+22
3.92982  4.51446e+22
4.04712  4.40494e+22
4.16443  4.29644e+22
4.28173  4.18948e+22
4.39903  4.08436e+22
4.51634  3.98128e+22
4.63364  3.8803e+22
4.75095  3.78138e+22
4.86825  3.68434e+22
4.98556  3.58894e+22
5.10286  3.49482e+22
5.22017  3.40155e+22
5.33748  3.30881e+22
5.45478  3.21628e+22
5.57209  3.12364e+22
5.68939  3.03079e+22
5.8067  2.93761e+22
5.924  2.84426e+22
6.0413  2.75092e+22
6.15861  2.65791e+22
6.27591  2.56552e+22
6.39322  2.47426e+22
6.51052  2.38447e+22
6.62783  2.29654e+22
6.74514  2.21081e+22
6.86244  2.12759e+22
6.97975  2.047e+22
7.09705  1.96917e+22
7.21436  1.89405e+22
7.33166  1.82153e+22
7.44897  1.7515e+22
7.56627  1.6837e+22
7.68358  1.61793e+22
7.80088  1.55398e+22
7.91819  1.49171e+22
8.03549  1.43105e+22
8.1528  1.37193e+22
8.2701  1.31442e+22
8.38741  1.25865e+22
8.50471  1.20472e+22
8.62202  1.15291e+22
8.73932  1.10329e+22
8.85662  1.05606e+22
8.97393  1.01134e+22
9.09123  9.69264e+21
9.20854  9.2976e+21
9.32584  8.92808e+21
9.44315  8.5833e+21
9.56045  8.26125e+21
9.67776  7.95963e+21
9.79506  7.67651e+21
9.91237  7.40927e+21
10.0297  7.15545e+21
10.147  6.91275e+21
10.2643  6.67959e+21
10.3816  6.45484e+21
10.4989  6.2373e+21
10.6162  6.02679e+21
10.7335  5.8231e+21
10.8508  5.62581e+21
10.9681  5.43512e+21
11.0854  5.25076e+21
11.2027  5.07265e+21
11.32  4.90019e+21
11.4373  4.73338e+21
11.5546  4.57157e+21
11.6719  4.41464e+21
11.7893  4.26198e+21
11.9066  4.11339e+21
12.0239  3.96858e+21
12.1412  3.8273e+21
12.2585  3.68918e+21
12.3758  3.5541e+21
12.4931  3.4219e+21
12.6104  3.29255e+21
12.7277  3.16586e+21
12.845  3.04193e+21
12.9623  2.92048e+21
13.0796  2.80156e+21
13.1969  2.68517e+21
13.3142  2.57107e+21
13.4315  2.45937e+21
13.5488  2.34978e+21
13.6661  2.24268e+21
13.7834  2.13819e+21
13.9007  2.03647e+21
14.018  1.93815e+21
14.1354  1.84362e+21
14.2527  1.75344e+21
14.37  1.66783e+21
14.4873  1.5873e+21
14.6046  1.5121e+21
14.7219  1.44187e+21
14.8392  1.3767e+21
14.9565  1.31636e+21
15.0738  1.26038e+21
15.1911  1.20839e+21
15.3084  1.15992e+21
15.4257  1.11446e+21
15.543  1.07137e+21
15.6603  1.03022e+21
15.7776  9.9055e+20
15.8949  9.52029e+20
16.0122  9.1427e+20
16.1295  8.77568e+20
16.2468  8.41951e+20
16.3641  8.07715e+20
16.4815  7.75147e+20
16.5988  7.44633e+20
16.7161  7.16564e+20
16.8334  6.91183e+20
16.9507  6.68782e+20
17.068  6.49547e+20
17.1853  6.33877e+20
17.3026  6.22062e+20
17.4199  6.14428e+20
17.5372  6.11247e+20
17.6545  6.12264e+20
17.7718  6.17267e+20
17.8891  6.25501e+20
18.0064  6.35449e+20
18.1237  6.45512e+20
18.241  6.54143e+20
18.3583  6.59409e+20
18.4756  6.6012e+20
18.5929  6.55515e+20
18.7102  6.45713e+20
18.8275  6.31063e+20
18.9449  6.13186e+20
19.0622  5.93561e+20
19.1795  5.74153e+20
19.2968  5.56912e+20
19.4141  5.43352e+20
19.5314  5.34873e+20
19.6487  5.3251e+20
19.766  5.36708e+20
19.8833  5.47782e+20
20.0006  5.65283e+20
20.1179  5.8847e+20
20.2352  6.15888e+20
20.3525  6.45771e+20
20.4698  6.7588e+20
20.5871  7.03577e+20
20.7044  7.26325e+20
20.8217  7.42312e+20
20.939  7.49916e+20
21.0563  7.48614e+20
21.1736  7.38965e+20
21.291  7.22341e+20
21.4083  7.00634e+20
21.5256  6.7643e+20
21.6429  6.52087e+20
21.7602  6.29685e+20
21.8775  6.10793e+20
21.9948  5.96242e+20
22.1121  5.86316e+20
22.2294  5.80782e+20
22.3467  5.78807e+20
22.464  5.79525e+20
22.5813  5.8202e+20
22.6986  5.8519e+20
22.8159  5.88082e+20
22.9332  5.90125e+20
23.0505  5.9062e+20
23.1678  5.89146e+20
23.2851  5.85757e+20
23.4024  5.80331e+20
23.5198  5.73316e+20
23.6371  5.65103e+20
23.7544  5.56055e+20
23.8717  5.46509e+20
23.989  5.3654e+20
24.1063  5.26133e+20
24.2236  5.14709e+20
24.3409  5.01937e+20
24.4582  4.87439e+20
24.5755  4.70672e+20
24.6928  4.51906e+20
24.8101  4.31283e+20
24.9274  4.0953e+20
25.0447  3.87458e+20
25.162  3.66044e+20
25.2793  3.46183e+20
25.3966  3.28573e+20
25.5139  3.1378e+20
25.6312  3.01908e+20
25.7485  2.92936e+20
25.8658  2.86759e+20
25.9832  2.82994e+20
26.1005  2.81259e+20
26.2178  2.80914e+20
26.3351  2.81412e+20
26.4524  2.81983e+20
26.5697  2.81871e+20
26.687  2.80337e+20
26.8043  2.76903e+20
26.9216  2.71289e+20
27.0389  2.63542e+20
27.1562  2.53948e+20
27.2735  2.43368e+20
27.3908  2.32666e+20
27.5081  2.22696e+20
27.6254  2.14384e+20
27.7427  2.08359e+20
27.86  2.04728e+20
27.9773  2.03598e+20
28.0946  2.04526e+20
28.212  2.07028e+20
28.3293  2.10556e+20
28.4466  2.14469e+20
28.5639  2.18232e+20
28.6812  2.21472e+20
28.7985  2.23806e+20
28.9158  2.24917e+20
29.0331  2.24677e+20
29.1504  2.23022e+20
29.2677  2.19777e+20
29.385  2.15151e+20
29.5023  2.09217e+20
29.6196  2.02296e+20
29.7369  1.94732e+20
29.8542  1.8695e+20
29.9715  1.79348e+20
30.0888  1.72212e+20
30.2061  1.65789e+20
30.3234  1.60204e+20
30.4407  1.55389e+20
30.558  1.51276e+20
30.6754  1.47637e+20
30.7927  1.44224e+20
30.91  1.40725e+20
31.0273  1.36945e+20
31.1446  1.32557e+20
31.2619  1.27469e+20
31.3792  1.21534e+20
31.4965  1.14878e+20
31.6138  1.07651e+20
31.7311  1.00165e+20
31.8484  9.27617e+19
31.9657  8.58849e+19
32.083  7.99218e+19
32.2003  7.50844e+19
32.3176  7.15761e+19
32.4349  6.93914e+19
32.5522  6.83944e+19
32.6695  6.84007e+19
32.7868  6.91768e+19
32.9042  7.05173e+19
33.0215  7.22712e+19
33.1388  7.43763e+19
33.2561  7.67805e+19
33.3734  7.95433e+19
33.4907  8.2655e+19
33.608  8.61708e+19
33.7253  9.02213e+19
33.8426  9.47499e+19
33.9599  9.99322e+19
34.0772  1.05831e+20
34.1945  1.12513e+20
34.3118  1.2008e+20
34.4291  1.28533e+20
34.5464  1.37817e+20
34.6637  1.47726e+20
34.781  1.58108e+20
34.8983  1.68479e+20
35.0156  1.78599e+20
35.1329  1.88228e+20
35.2503  1.97069e+20
35.3676  2.05094e+20
35.4849  2.12317e+20
35.6022  2.18833e+20
35.7195  2.24797e+20
35.8368  2.30385e+20
35.9541  2.35678e+20
36.0714  2.40813e+20
36.1887  2.45852e+20
36.306  2.50842e+20
36.4233  2.55908e+20
36.5406  2.6116e+20
36.6579  2.66677e+20
36.7752  2.72464e+20
36.8925  2.78705e+20
37.0098  2.85208e+20
37.1271  2.91921e+20
37.2444  2.98633e+20
37.3617  3.05197e+20
37.479  3.11462e+20
37.5964  3.17263e+20
37.7137  3.22453e+20
37.831  3.26995e+20
37.9483  3.30725e+20
38.0656  3.33299e+20
38.1829  3.34363e+20
38.3002  3.33505e+20
38.4175  3.30177e+20
38.5348  3.23815e+20
38.6521  3.14226e+20
38.7694  3.01319e+20
38.8867  2.85366e+20
39.004  2.66967e+20
39.1213  2.46924e+20
39.2386  2.2618e+20
39.3559  2.05694e+20
39.4732  1.86283e+20
39.5905  1.685e+20
39.7078  1.52629e+20
39.8251  1.38834e+20
39.9425  1.26923e+20
40.0598  1.16727e+20
40.1771  1.08066e+20
40.2944  1.00675e+20
40.4117  9.43079e+19
40.529  8.88315e+19
40.6463  8.40001e+19
40.7636  7.95892e+19
40.8809  7.53262e+19
40.9982  7.11217e+19
41.1155  6.68439e+19
41.2328  6.25969e+19
41.3501  5.85585e+19
41.4674  5.50763e+19
41.5847  5.25174e+19
41.702  5.12179e+19
41.8193  5.13135e+19
41.9366  5.27251e+19
42.0539  5.51324e+19
42.1712  5.80046e+19
42.2885  6.07151e+19
42.4059  6.26524e+19
42.5232  6.33552e+19
42.6405  6.25996e+19
42.7578  6.04668e+19
42.8751  5.71853e+19
42.9924  5.32169e+19
43.1097  4.90478e+19
43.227  4.51495e+19
43.3443  4.19172e+19
43.4616  3.95967e+19
43.5789  3.83947e+19
43.6962  3.84419e+19
43.8135  3.98564e+19
43.9308  4.27e+19
44.0481  4.70557e+19
44.1654  5.28463e+19
44.2827  5.99644e+19
44.4  6.80436e+19
44.5173  7.65097e+19
44.6347  8.47717e+19
44.752  9.20671e+19
44.8693  9.77394e+19
44.9866  1.01323e+20
45.1039  1.02516e+20
45.2212  1.01402e+20
45.3385  9.82395e+19
45.4558  9.34726e+19
45.5731  8.77449e+19
45.6904  8.16265e+19
45.8077  7.56344e+19
45.925  7.02778e+19
46.0423  6.58642e+19
46.1596  6.26595e+19
46.2769  6.07022e+19
46.3942  6.00742e+19
46.5115  6.0623e+19
46.6288  6.22051e+19
46.7461  6.44904e+19
46.8634  6.71093e+19
46.9808  6.96434e+19
47.0981  7.17546e+19
47.2154  7.30555e+19
47.3327  7.34358e+19
47.45  7.28994e+19
47.5673  7.1587e+19
47.6846  6.98304e+19
47.8019  6.80221e+19
47.9192  6.65987e+19
48.0365  6.59768e+19
48.1538  6.65321e+19
48.2711  6.85315e+19
48.3884  7.22016e+19
48.5057  7.76602e+19
48.623  8.49048e+19
48.7403  9.38062e+19
48.8576  1.04052e+20
48.9749  1.15259e+20
49.0922  1.26665e+20
49.2095  1.375e+20
49.3269  1.46863e+20
49.4442  1.53911e+20
49.5615  1.57908e+20
49.6788  1.58434e+20
49.7961  1.55397e+20
49.9134  1.49005e+20
50.0307  1.3987e+20
50.148  1.2883e+20
50.2653  1.16738e+20
50.3826  1.04583e+20
50.4999  9.30705e+19
50.6172  8.28186e+19
50.7345  7.42241e+19
50.8518  6.73916e+19
