#S 1 spectral density
#N 2
#UFWHM 45.749
#L  abscissas [um]  spectral density
-58.5938  4.35598e+20
-58.4764  4.22738e+20
-58.3591  4.11221e+20
-58.2418  4.01771e+20
-58.1245  3.94861e+20
-58.0072  3.91126e+20
-57.8899  3.90545e+20
-57.7726  3.93279e+20
-57.6553  3.99135e+20
-57.538  4.07982e+20
-57.4207  4.19417e+20
-57.3034  4.32754e+20
-57.1861  4.47208e+20
-57.0688  4.61934e+20
-56.9515  4.75693e+20
-56.8342  4.87464e+20
-56.7169  4.96358e+20
-56.5996  5.01577e+20
-56.4823  5.03054e+20
-56.365  5.00815e+20
-56.2477  4.95584e+20
-56.1303  4.88195e+20
-56.013  4.79831e+20
-55.8957  4.71847e+20
-55.7784  4.65037e+20
-55.6611  4.60467e+20
-55.5438  4.58615e+20
-55.4265  4.59686e+20
-55.3092  4.63632e+20
-55.1919  4.70117e+20
-55.0746  4.78753e+20
-54.9573  4.88967e+20
-54.84  5.00114e+20
-54.7227  5.11487e+20
-54.6054  5.22434e+20
-54.4881  5.32458e+20
-54.3708  5.40942e+20
-54.2535  5.47521e+20
-54.1362  5.51942e+20
-54.0189  5.54192e+20
-53.9016  5.54282e+20
-53.7842  5.52548e+20
-53.6669  5.49535e+20
-53.5496  5.45741e+20
-53.4323  5.41603e+20
-53.315  5.3785e+20
-53.1977  5.34722e+20
-53.0804  5.32586e+20
-52.9631  5.31391e+20
-52.8458  5.31166e+20
-52.7285  5.31534e+20
-52.6112  5.32077e+20
-52.4939  5.32184e+20
-52.3766  5.31626e+20
-52.2593  5.299e+20
-52.142  5.26975e+20
-52.0247  5.23e+20
-51.9074  5.18415e+20
-51.7901  5.13939e+20
-51.6728  5.10163e+20
-51.5555  5.07946e+20
-51.4381  5.07993e+20
-51.3208  5.10683e+20
-51.2035  5.16481e+20
-51.0862  5.25044e+20
-50.9689  5.36392e+20
-50.8516  5.50013e+20
-50.7343  5.65329e+20
-50.617  5.81624e+20
-50.4997  5.98111e+20
-50.3824  6.14004e+20
-50.2651  6.28479e+20
-50.1478  6.40567e+20
-50.0305  6.49586e+20
-49.9132  6.54628e+20
-49.7959  6.55669e+20
-49.6786  6.52603e+20
-49.5613  6.45765e+20
-49.444  6.35978e+20
-49.3267  6.24458e+20
-49.2094  6.12313e+20
-49.092  6.01113e+20
-48.9747  5.92078e+20
-48.8574  5.86212e+20
-48.7401  5.84219e+20
-48.6228  5.86523e+20
-48.5055  5.93112e+20
-48.3882  6.03659e+20
-48.2709  6.17643e+20
-48.1536  6.34391e+20
-48.0363  6.52944e+20
-47.919  6.72337e+20
-47.8017  6.9152e+20
-47.6844  7.09441e+20
-47.5671  7.25043e+20
-47.4498  7.37645e+20
-47.3325  7.46715e+20
-47.2152  7.52159e+20
-47.0979  7.5423e+20
-46.9806  7.53423e+20
-46.8633  7.50612e+20
-46.7459  7.46937e+20
-46.6286  7.43354e+20
-46.5113  7.40925e+20
-46.394  7.4022e+20
-46.2767  7.42023e+20
-46.1594  7.46553e+20
-46.0421  7.53813e+20
-45.9248  7.63594e+20
-45.8075  7.75528e+20
-45.6902  7.89008e+20
-45.5729  8.03444e+20
-45.4556  8.17916e+20
-45.3383  8.31848e+20
-45.221  8.44329e+20
-45.1037  8.55202e+20
-44.9864  8.64341e+20
-44.8691  8.71809e+20
-44.7518  8.78038e+20
-44.6345  8.83754e+20
-44.5172  8.89646e+20
-44.3998  8.9639e+20
-44.2825  9.04583e+20
-44.1652  9.14324e+20
-44.0479  9.258e+20
-43.9306  9.38628e+20
-43.8133  9.52585e+20
-43.696  9.67347e+20
-43.5787  9.8266e+20
-43.4614  9.98418e+20
-43.3441  1.01464e+21
-43.2268  1.03144e+21
-43.1095  1.0489e+21
-42.9922  1.06694e+21
-42.8749  1.08546e+21
-42.7576  1.10424e+21
-42.6403  1.12311e+21
-42.523  1.14189e+21
-42.4057  1.16059e+21
-42.2884  1.17938e+21
-42.171  1.19838e+21
-42.0537  1.21833e+21
-41.9364  1.23932e+21
-41.8191  1.26175e+21
-41.7018  1.2855e+21
-41.5845  1.3104e+21
-41.4672  1.33612e+21
-41.3499  1.36207e+21
-41.2326  1.38765e+21
-41.1153  1.41258e+21
-40.998  1.43642e+21
-40.8807  1.45918e+21
-40.7634  1.48066e+21
-40.6461  1.50108e+21
-40.5288  1.52044e+21
-40.4115  1.53889e+21
-40.2942  1.55667e+21
-40.1769  1.57376e+21
-40.0596  1.59035e+21
-39.9423  1.60672e+21
-39.825  1.62346e+21
-39.7076  1.64085e+21
-39.5903  1.65967e+21
-39.473  1.67996e+21
-39.3557  1.70214e+21
-39.2384  1.72588e+21
-39.1211  1.75078e+21
-39.0038  1.77642e+21
-38.8865  1.80208e+21
-38.7692  1.8272e+21
-38.6519  1.85152e+21
-38.5346  1.87495e+21
-38.4173  1.89789e+21
-38.3  1.92071e+21
-38.1827  1.94439e+21
-38.0654  1.96952e+21
-37.9481  1.9969e+21
-37.8308  2.02687e+21
-37.7135  2.05977e+21
-37.5962  2.09565e+21
-37.4789  2.13407e+21
-37.3615  2.17489e+21
-37.2442  2.21746e+21
-37.1269  2.26115e+21
-37.0096  2.30524e+21
-36.8923  2.34868e+21
-36.775  2.39083e+21
-36.6577  2.43084e+21
-36.5404  2.46786e+21
-36.4231  2.50159e+21
-36.3058  2.53184e+21
-36.1885  2.55884e+21
-36.0712  2.58325e+21
-35.9539  2.60597e+21
-35.8366  2.62843e+21
-35.7193  2.65193e+21
-35.602  2.67787e+21
-35.4847  2.70742e+21
-35.3674  2.7415e+21
-35.2501  2.78051e+21
-35.1328  2.82478e+21
-35.0154  2.87382e+21
-34.8981  2.92737e+21
-34.7808  2.98381e+21
-34.6635  3.04229e+21
-34.5462  3.10099e+21
-34.4289  3.15846e+21
-34.3116  3.21331e+21
-34.1943  3.26427e+21
-34.077  3.31034e+21
-33.9597  3.35142e+21
-33.8424  3.3875e+21
-33.7251  3.41962e+21
-33.6078  3.44873e+21
-33.4905  3.47704e+21
-33.3732  3.50605e+21
-33.2559  3.53789e+21
-33.1386  3.57404e+21
-33.0213  3.61589e+21
-32.904  3.66438e+21
-32.7867  3.71979e+21
-32.6693  3.78191e+21
-32.552  3.8501e+21
-32.4347  3.92324e+21
-32.3174  3.99994e+21
-32.2001  4.07806e+21
-32.0828  4.15584e+21
-31.9655  4.23169e+21
-31.8482  4.3037e+21
-31.7309  4.37062e+21
-31.6136  4.43197e+21
-31.4963  4.48721e+21
-31.379  4.53712e+21
-31.2617  4.58257e+21
-31.1444  4.6253e+21
-31.0271  4.66697e+21
-30.9098  4.7094e+21
-30.7925  4.75438e+21
-30.6752  4.80322e+21
-30.5579  4.85664e+21
-30.4406  4.91486e+21
-30.3232  4.97738e+21
-30.2059  5.04345e+21
-30.0886  5.11066e+21
-29.9713  5.17758e+21
-29.854  5.2416e+21
-29.7367  5.30073e+21
-29.6194  5.35332e+21
-29.5021  5.39816e+21
-29.3848  5.43461e+21
-29.2675  5.4638e+21
-29.1502  5.48666e+21
-29.0329  5.50595e+21
-28.9156  5.52434e+21
-28.7983  5.54579e+21
-28.681  5.57327e+21
-28.5637  5.6103e+21
-28.4464  5.65933e+21
-28.3291  5.72232e+21
-28.2118  5.8002e+21
-28.0944  5.89297e+21
-27.9771  5.99889e+21
-27.8598  6.11587e+21
-27.7425  6.24029e+21
-27.6252  6.36814e+21
-27.5079  6.49419e+21
-27.3906  6.61346e+21
-27.2733  6.72167e+21
-27.156  6.81494e+21
-27.0387  6.89031e+21
-26.9214  6.94728e+21
-26.8041  6.98592e+21
-26.6868  7.00895e+21
-26.5695  7.0199e+21
-26.4522  7.0235e+21
-26.3349  7.0253e+21
-26.2176  7.03035e+21
-26.1003  7.04393e+21
-25.983  7.07001e+21
-25.8657  7.11154e+21
-25.7483  7.1701e+21
-25.631  7.24592e+21
-25.5137  7.33801e+21
-25.3964  7.44326e+21
-25.2791  7.55829e+21
-25.1618  7.67831e+21
-25.0445  7.79841e+21
-24.9272  7.91329e+21
-24.8099  8.0184e+21
-24.6926  8.10973e+21
-24.5753  8.18568e+21
-24.458  8.24463e+21
-24.3407  8.28828e+21
-24.2234  8.31917e+21
-24.1061  8.34163e+21
-23.9888  8.36048e+21
-23.8715  8.38104e+21
-23.7542  8.40854e+21
-23.6369  8.44748e+21
-23.5196  8.50105e+21
-23.4023  8.57186e+21
-23.2849  8.65961e+21
-23.1676  8.7636e+21
-23.0503  8.88096e+21
-22.933  9.00793e+21
-22.8157  9.13906e+21
-22.6984  9.26836e+21
-22.5811  9.39037e+21
-22.4638  9.49994e+21
-22.3465  9.59219e+21
-22.2292  9.66519e+21
-22.1119  9.71764e+21
-21.9946  9.75137e+21
-21.8773  9.76953e+21
-21.76  9.77684e+21
-21.6427  9.77977e+21
-21.5254  9.78443e+21
-21.4081  9.79773e+21
-21.2908  9.8253e+21
-21.1735  9.87185e+21
-21.0561  9.94027e+21
-20.9388  1.00324e+22
-20.8215  1.01481e+22
-20.7042  1.02844e+22
-20.5869  1.04378e+22
-20.4696  1.06026e+22
-20.3523  1.07721e+22
-20.235  1.09383e+22
-20.1177  1.10938e+22
-20.0004  1.12311e+22
-19.8831  1.13448e+22
-19.7658  1.14303e+22
-19.6485  1.14865e+22
-19.5312  1.15142e+22
-19.4139  1.15169e+22
-19.2966  1.15001e+22
-19.1793  1.14707e+22
-19.062  1.14367e+22
-18.9447  1.14054e+22
-18.8274  1.13838e+22
-18.71  1.13784e+22
-18.5927  1.1393e+22
-18.4754  1.14303e+22
-18.3581  1.14915e+22
-18.2408  1.15756e+22
-18.1235  1.16803e+22
-18.0062  1.18017e+22
-17.8889  1.19349e+22
-17.7716  1.20748e+22
-17.6543  1.22149e+22
-17.537  1.23501e+22
-17.4197  1.24751e+22
-17.3024  1.25865e+22
-17.1851  1.26817e+22
-17.0678  1.276e+22
-16.9505  1.28227e+22
-16.8332  1.2872e+22
-16.7159  1.29119e+22
-16.5986  1.29461e+22
-16.4813  1.29789e+22
-16.364  1.3014e+22
-16.2466  1.30547e+22
-16.1293  1.31032e+22
-16.012  1.31602e+22
-15.8947  1.32256e+22
-15.7774  1.32986e+22
-15.6601  1.33772e+22
-15.5428  1.34586e+22
-15.4255  1.35399e+22
-15.3082  1.36179e+22
-15.1909  1.36905e+22
-15.0736  1.3755e+22
-14.9563  1.38101e+22
-14.839  1.38555e+22
-14.7217  1.38919e+22
-14.6044  1.39207e+22
-14.4871  1.39445e+22
-14.3698  1.39664e+22
-14.2525  1.39894e+22
-14.1352  1.40164e+22
-14.0178  1.40509e+22
-13.9005  1.40944e+22
-13.7832  1.4148e+22
-13.6659  1.42123e+22
-13.5486  1.42864e+22
-13.4313  1.43686e+22
-13.314  1.44565e+22
-13.1967  1.45468e+22
-13.0794  1.46368e+22
-12.9621  1.47223e+22
-12.8448  1.48009e+22
-12.7275  1.48698e+22
-12.6102  1.49273e+22
-12.4929  1.49729e+22
-12.3756  1.50064e+22
-12.2583  1.50295e+22
-12.141  1.50445e+22
-12.0237  1.50541e+22
-11.9064  1.50616e+22
-11.7891  1.50703e+22
-11.6718  1.50833e+22
-11.5544  1.51036e+22
-11.4371  1.51334e+22
-11.3198  1.51744e+22
-11.2025  1.52269e+22
-11.0852  1.52914e+22
-10.9679  1.53668e+22
-10.8506  1.54516e+22
-10.7333  1.55434e+22
-10.616  1.56399e+22
-10.4987  1.57385e+22
-10.3814  1.58359e+22
-10.2641  1.59299e+22
-10.1468  1.60183e+22
-10.0295  1.60996e+22
-9.91217  1.61729e+22
-9.79487  1.62379e+22
-9.67756  1.62951e+22
-9.56026  1.63452e+22
-9.44295  1.6389e+22
-9.32565  1.64284e+22
-9.20834  1.64641e+22
-9.09104  1.64972e+22
-8.97373  1.65292e+22
-8.85643  1.65603e+22
-8.73913  1.65914e+22
-8.62182  1.66228e+22
-8.50452  1.66543e+22
-8.38721  1.66864e+22
-8.26991  1.6718e+22
-8.1526  1.67493e+22
-8.03529  1.67795e+22
-7.91799  1.68083e+22
-7.80069  1.68354e+22
-7.68338  1.68604e+22
-7.56608  1.68838e+22
-7.44877  1.69058e+22
-7.33146  1.69267e+22
-7.21416  1.69468e+22
-7.09685  1.69666e+22
-6.97955  1.69862e+22
-6.86224  1.70058e+22
-6.74494  1.70254e+22
-6.62763  1.7045e+22
-6.51033  1.7064e+22
-6.39302  1.70828e+22
-6.27572  1.71006e+22
-6.15842  1.71175e+22
-6.04111  1.7133e+22
-5.92381  1.71474e+22
-5.8065  1.71606e+22
-5.68919  1.71728e+22
-5.57189  1.71844e+22
-5.45458  1.71963e+22
-5.33728  1.72091e+22
-5.21997  1.72237e+22
-5.10267  1.72412e+22
-4.98536  1.72622e+22
-4.86806  1.7287e+22
-4.75075  1.73158e+22
-4.63345  1.73483e+22
-4.51614  1.73838e+22
-4.39884  1.74214e+22
-4.28154  1.74605e+22
-4.16423  1.74994e+22
-4.04692  1.75381e+22
-3.92962  1.75755e+22
-3.81231  1.7611e+22
-3.69501  1.76439e+22
-3.5777  1.76734e+22
-3.4604  1.76988e+22
-3.34309  1.77195e+22
-3.22579  1.77349e+22
-3.10849  1.77449e+22
-2.99118  1.77495e+22
-2.87387  1.77496e+22
-2.75657  1.77469e+22
-2.63926  1.77421e+22
-2.52196  1.77372e+22
-2.40465  1.77337e+22
-2.28735  1.77328e+22
-2.17005  1.77354e+22
-2.05274  1.77418e+22
-1.93544  1.77526e+22
-1.81813  1.77677e+22
-1.70083  1.77873e+22
-1.58352  1.78107e+22
-1.46622  1.78384e+22
-1.34891  1.78693e+22
-1.2316  1.79032e+22
-1.1143  1.7939e+22
-0.996995  1.79756e+22
-0.87969  1.80111e+22
-0.762385  1.80448e+22
-0.64508  1.80747e+22
-0.527775  1.81001e+22
-0.41047  1.81206e+22
-0.293165  1.81357e+22
-0.17586  1.81457e+22
-0.058555  1.81506e+22
0.05875  1.81504e+22
0.176055  1.81456e+22
0.29336  1.81357e+22
0.410665  1.81208e+22
0.52797  1.81004e+22
0.645275  1.80754e+22
0.76258  1.80461e+22
0.879885  1.80134e+22
0.99719  1.79786e+22
1.1145  1.79433e+22
1.2318  1.79087e+22
1.3491  1.78762e+22
1.46641  1.78464e+22
1.58371  1.78202e+22
1.70102  1.77978e+22
1.81832  1.77794e+22
1.93563  1.77656e+22
2.05294  1.77556e+22
2.17024  1.77498e+22
2.28754  1.77479e+22
2.40485  1.77495e+22
2.52216  1.77535e+22
2.63946  1.77587e+22
2.75677  1.7764e+22
2.87407  1.77674e+22
2.99137  1.77676e+22
3.10868  1.77635e+22
3.22599  1.77542e+22
3.34329  1.77394e+22
3.4606  1.77196e+22
3.5779  1.76949e+22
3.69521  1.76664e+22
3.81251  1.76343e+22
3.92982  1.75998e+22
4.04712  1.75632e+22
4.16443  1.75252e+22
4.28173  1.74868e+22
4.39903  1.74486e+22
4.51634  1.74116e+22
4.63364  1.73767e+22
4.75095  1.73446e+22
4.86825  1.73164e+22
4.98556  1.7292e+22
5.10286  1.72717e+22
5.22017  1.72547e+22
5.33748  1.72406e+22
5.45478  1.72287e+22
5.57209  1.72177e+22
5.68939  1.72067e+22
5.8067  1.71954e+22
5.924  1.71831e+22
6.0413  1.71696e+22
6.15861  1.71547e+22
6.27591  1.71387e+22
6.39322  1.71217e+22
6.51052  1.71038e+22
6.62783  1.70854e+22
6.74514  1.70665e+22
6.86244  1.70473e+22
6.97975  1.7028e+22
7.09705  1.70088e+22
7.21436  1.69894e+22
7.33166  1.69696e+22
7.44897  1.69492e+22
7.56627  1.69277e+22
7.68358  1.69048e+22
7.80088  1.68802e+22
7.91819  1.68539e+22
8.03549  1.68259e+22
8.1528  1.67967e+22
8.2701  1.67662e+22
8.38741  1.67356e+22
8.50471  1.67047e+22
8.62202  1.66741e+22
8.73932  1.66436e+22
8.85662  1.66134e+22
8.97393  1.6583e+22
9.09123  1.65518e+22
9.20854  1.65191e+22
9.32584  1.64841e+22
9.44315  1.6445e+22
9.56045  1.64011e+22
9.67776  1.63514e+22
9.79506  1.62942e+22
9.91237  1.62292e+22
10.0297  1.6156e+22
10.147  1.6075e+22
10.2643  1.5987e+22
10.3816  1.58933e+22
10.4989  1.57966e+22
10.6162  1.56988e+22
10.7335  1.56031e+22
10.8508  1.55121e+22
10.9681  1.54284e+22
11.0854  1.53544e+22
11.2027  1.52912e+22
11.32  1.52397e+22
11.4373  1.51999e+22
11.5546  1.51711e+22
11.6719  1.51516e+22
11.7893  1.51394e+22
11.9066  1.51314e+22
12.0239  1.51245e+22
12.1412  1.51153e+22
12.2585  1.51007e+22
12.3758  1.50776e+22
12.4931  1.5044e+22
12.6104  1.49986e+22
12.7277  1.49413e+22
12.845  1.48727e+22
12.9623  1.47942e+22
13.0796  1.47089e+22
13.1969  1.46195e+22
13.3142  1.45295e+22
13.4315  1.44421e+22
13.5488  1.43606e+22
13.6661  1.42872e+22
13.7834  1.42235e+22
13.9007  1.41705e+22
14.018  1.41279e+22
14.1354  1.40939e+22
14.2527  1.40673e+22
14.37  1.40449e+22
14.4873  1.40234e+22
14.6046  1.4e+22
14.7219  1.39714e+22
14.8392  1.39353e+22
14.9565  1.38903e+22
15.0738  1.38353e+22
15.1911  1.37713e+22
15.3084  1.36992e+22
15.4257  1.36215e+22
15.543  1.35407e+22
15.6603  1.34599e+22
15.7776  1.33821e+22
15.8949  1.33099e+22
16.0122  1.32448e+22
16.1295  1.31884e+22
16.2468  1.31405e+22
16.3641  1.31e+22
16.4815  1.30652e+22
16.5988  1.30325e+22
16.7161  1.29982e+22
16.8334  1.29582e+22
16.9507  1.29085e+22
17.068  1.28453e+22
17.1853  1.27663e+22
17.3026  1.26707e+22
17.4199  1.25593e+22
17.5372  1.24342e+22
17.6545  1.22989e+22
17.7718  1.21589e+22
17.8891  1.20198e+22
18.0064  1.1887e+22
18.1237  1.17664e+22
18.241  1.16629e+22
18.3583  1.15799e+22
18.4756  1.15199e+22
18.5929  1.14836e+22
18.7102  1.14704e+22
18.8275  1.14769e+22
18.9449  1.1499e+22
19.0622  1.1531e+22
19.1795  1.15653e+22
19.2968  1.15948e+22
19.4141  1.16113e+22
19.5314  1.16081e+22
19.6487  1.15799e+22
19.766  1.15229e+22
19.8833  1.14367e+22
20.0006  1.13225e+22
20.1179  1.11845e+22
20.2352  1.10288e+22
20.3525  1.08623e+22
20.4698  1.06933e+22
20.5871  1.05289e+22
20.7044  1.03759e+22
20.8217  1.02403e+22
20.939  1.01258e+22
21.0563  1.00344e+22
21.1736  9.96685e+21
21.291  9.92128e+21
21.4083  9.89441e+21
21.5256  9.88157e+21
21.6429  9.87719e+21
21.7602  9.87424e+21
21.8775  9.86649e+21
21.9948  9.84782e+21
22.1121  9.81358e+21
22.2294  9.76018e+21
22.3467  9.68637e+21
22.464  9.59293e+21
22.5813  9.4828e+21
22.6986  9.35977e+21
22.8159  9.22974e+21
22.9332  9.09847e+21
23.0505  8.97148e+21
23.1678  8.85402e+21
23.2851  8.75015e+21
23.4024  8.66277e+21
23.5198  8.59264e+21
23.6371  8.53922e+21
23.7544  8.50076e+21
23.8717  8.47342e+21
23.989  8.4532e+21
24.1063  8.43444e+21
24.2236  8.41176e+21
24.3409  8.38059e+21
24.4582  8.33639e+21
24.5755  8.27675e+21
24.6928  8.2004e+21
24.8101  8.10822e+21
24.9274  8.00256e+21
25.0447  7.88692e+21
25.162  7.76661e+21
25.2793  7.64628e+21
25.3966  7.53092e+21
25.5139  7.42558e+21
25.6312  7.33389e+21
25.7485  7.25811e+21
25.8658  7.19993e+21
25.9832  7.15877e+21
26.1005  7.133e+21
26.2178  7.11962e+21
26.3351  7.11462e+21
26.4524  7.11285e+21
26.5697  7.1089e+21
26.687  7.09739e+21
26.8043  7.07386e+21
26.9216  7.03435e+21
27.0389  6.97665e+21
27.1562  6.90003e+21
27.2735  6.80593e+21
27.3908  6.69657e+21
27.5081  6.57636e+21
27.6254  6.44978e+21
27.7427  6.32155e+21
27.86  6.19674e+21
27.9773  6.07953e+21
28.0946  5.9735e+21
28.212  5.8811e+21
28.3293  5.8033e+21
28.4466  5.74056e+21
28.5639  5.69175e+21
28.6812  5.65511e+21
28.7985  5.62782e+21
28.9158  5.60648e+21
29.0331  5.58792e+21
29.1504  5.56842e+21
29.2677  5.54506e+21
29.385  5.51551e+21
29.5023  5.47824e+21
29.6196  5.4328e+21
29.7369  5.37933e+21
29.8542  5.31938e+21
29.9715  5.25455e+21
30.0888  5.18672e+21
30.2061  5.11854e+21
30.3234  5.05212e+21
30.4407  4.98894e+21
30.558  4.93019e+21
30.6754  4.87635e+21
30.7927  4.8272e+21
30.91  4.78186e+21
31.0273  4.73907e+21
31.1446  4.69709e+21
31.2619  4.65408e+21
31.3792  4.60802e+21
31.4965  4.55775e+21
31.6138  4.50195e+21
31.7311  4.44021e+21
31.8484  4.37246e+21
31.9657  4.29981e+21
32.083  4.22329e+21
32.2003  4.14473e+21
32.3176  4.066e+21
32.4349  3.9888e+21
32.5522  3.91506e+21
32.6695  3.84625e+21
32.7868  3.78356e+21
32.9042  3.72783e+21
33.0215  3.67879e+21
33.1388  3.63647e+21
33.2561  3.59987e+21
33.3734  3.56759e+21
33.4907  3.53812e+21
33.608  3.50928e+21
33.7253  3.47939e+21
33.8426  3.4467e+21
33.9599  3.40978e+21
34.0772  3.36802e+21
34.1945  3.32116e+21
34.3118  3.26943e+21
34.4291  3.21386e+21
34.5464  3.15556e+21
34.6637  3.09618e+21
34.781  3.03708e+21
34.8983  2.97996e+21
35.0156  2.92613e+21
35.1329  2.87669e+21
35.2503  2.8321e+21
35.3676  2.79272e+21
35.4849  2.75839e+21
35.6022  2.72858e+21
35.7195  2.70239e+21
35.8368  2.6786e+21
35.9541  2.65584e+21
36.0714  2.63253e+21
36.1887  2.60771e+21
36.306  2.58016e+21
36.4233  2.54931e+21
36.5406  2.51482e+21
36.6579  2.477e+21
36.7752  2.43634e+21
36.8925  2.39339e+21
37.0098  2.34918e+21
37.1271  2.30441e+21
37.2444  2.25997e+21
37.3617  2.21675e+21
37.479  2.17531e+21
37.5964  2.13629e+21
37.7137  2.09995e+21
37.831  2.06653e+21
37.9483  2.03616e+21
38.0656  2.00836e+21
38.1829  1.98288e+21
38.3002  1.95882e+21
38.4175  1.93548e+21
38.5348  1.91219e+21
38.6521  1.88821e+21
38.7694  1.8634e+21
38.8867  1.83784e+21
39.004  1.81168e+21
39.1213  1.78562e+21
39.2386  1.76009e+21
39.3559  1.7359e+21
39.4732  1.71334e+21
39.5905  1.69253e+21
39.7078  1.67331e+21
39.8251  1.65549e+21
39.9425  1.6383e+21
40.0598  1.62138e+21
40.1771  1.60435e+21
40.2944  1.58686e+21
40.4117  1.56866e+21
40.529  1.54968e+21
40.6463  1.52987e+21
40.7636  1.5089e+21
40.8809  1.48685e+21
40.9982  1.46367e+21
41.1155  1.43928e+21
41.2328  1.41379e+21
41.3501  1.38761e+21
41.4674  1.36116e+21
41.5847  1.33491e+21
41.702  1.3095e+21
41.8193  1.28526e+21
41.9366  1.2624e+21
42.0539  1.24094e+21
42.1712  1.22064e+21
42.2885  1.20107e+21
42.4059  1.18196e+21
42.5232  1.16281e+21
42.6405  1.14373e+21
42.7578  1.1244e+21
42.8751  1.10525e+21
42.9924  1.08643e+21
43.1097  1.06803e+21
43.227  1.05026e+21
43.3443  1.03311e+21
43.4616  1.01651e+21
43.5789  1.00045e+21
43.6962  9.84763e+20
43.8135  9.69715e+20
43.9308  9.55377e+20
44.0481  9.42161e+20
44.1654  9.30439e+20
44.2827  9.20355e+20
44.4  9.11916e+20
44.5173  9.04862e+20
44.6347  8.98665e+20
44.752  8.92538e+20
44.8693  8.85982e+20
44.9866  8.78147e+20
45.1039  8.68652e+20
45.2212  8.57295e+20
45.3385  8.44373e+20
45.4558  8.30109e+20
45.5731  8.15234e+20
45.6904  8.00565e+20
45.8077  7.86733e+20
45.925  7.74555e+20
46.0423  7.64568e+20
46.1596  7.57121e+20
46.2769  7.52489e+20
46.3942  7.50488e+20
46.5115  7.51009e+20
46.6288  7.5334e+20
46.7461  7.56765e+20
46.8634  7.60328e+20
46.9808  7.62798e+20
47.0981  7.63435e+20
47.2154  7.61083e+20
47.3327  7.55394e+20
47.45  7.45922e+20
47.5673  7.32965e+20
47.6846  7.17055e+20
47.8019  6.98848e+20
47.9192  6.79367e+20
48.0365  6.59706e+20
48.1538  6.40927e+20
48.2711  6.24074e+20
48.3884  6.09896e+20
48.5057  5.99236e+20
48.623  5.92621e+20
48.7403  5.90286e+20
48.8576  5.92238e+20
48.9749  5.98129e+20
49.0922  6.07177e+20
49.2095  6.18285e+20
49.3269  6.30399e+20
49.4442  6.4177e+20
49.5615  6.51457e+20
49.6788  6.58123e+20
49.7961  6.61038e+20
49.9134  6.59785e+20
50.0307  6.5438e+20
50.148  6.45228e+20
50.2653  6.32892e+20
50.3826  6.18216e+20
50.4999  6.02096e+20
50.6172  5.85429e+20
50.7345  5.68964e+20
50.8518  5.53545e+20
