#S 1 spectral density
#N 2
#UFWHM 29.4436
#L  abscissas [um]  spectral density
-58.5938  8.49132e+19
-58.4764  8.78217e+19
-58.3591  9.23388e+19
-58.2418  9.75713e+19
-58.1245  1.02619e+20
-58.0072  1.06896e+20
-57.8899  1.10029e+20
-57.7726  1.12202e+20
-57.6553  1.14057e+20
-57.538  1.16551e+20
-57.4207  1.20756e+20
-57.3034  1.27638e+20
-57.1861  1.37777e+20
-57.0688  1.51128e+20
-56.9515  1.67105e+20
-56.8342  1.8449e+20
-56.7169  2.0176e+20
-56.5996  2.17228e+20
-56.4823  2.29484e+20
-56.365  2.37561e+20
-56.2477  2.41008e+20
-56.1303  2.3988e+20
-56.013  2.34967e+20
-55.8957  2.27145e+20
-55.7784  2.17653e+20
-55.6611  2.07431e+20
-55.5438  1.97429e+20
-55.4265  1.88266e+20
-55.3092  1.80366e+20
-55.1919  1.73809e+20
-55.0746  1.68695e+20
-54.9573  1.6484e+20
-54.84  1.62257e+20
-54.7227  1.60694e+20
-54.6054  1.60085e+20
-54.4881  1.60176e+20
-54.3708  1.60774e+20
-54.2535  1.61664e+20
-54.1362  1.62629e+20
-54.0189  1.63548e+20
-53.9016  1.64291e+20
-53.7842  1.6486e+20
-53.6669  1.65342e+20
-53.5496  1.65992e+20
-53.4323  1.67073e+20
-53.315  1.68934e+20
-53.1977  1.71813e+20
-53.0804  1.76031e+20
-52.9631  1.81657e+20
-52.8458  1.88553e+20
-52.7285  1.96489e+20
-52.6112  2.05012e+20
-52.4939  2.13507e+20
-52.3766  2.2132e+20
-52.2593  2.27891e+20
-52.142  2.32875e+20
-52.0247  2.35949e+20
-51.9074  2.37396e+20
-51.7901  2.37391e+20
-51.6728  2.36656e+20
-51.5555  2.35829e+20
-51.4381  2.35545e+20
-51.3208  2.36346e+20
-51.2035  2.38385e+20
-51.0862  2.41829e+20
-50.9689  2.46283e+20
-50.8516  2.51258e+20
-50.7343  2.56046e+20
-50.617  2.59902e+20
-50.4997  2.62039e+20
-50.3824  2.61774e+20
-50.2651  2.58698e+20
-50.1478  2.52747e+20
-50.0305  2.44196e+20
-49.9132  2.33803e+20
-49.7959  2.22563e+20
-49.6786  2.11946e+20
-49.5613  2.03411e+20
-49.444  1.98374e+20
-49.3267  1.97907e+20
-49.2094  2.02517e+20
-49.092  2.12079e+20
-48.9747  2.25675e+20
-48.8574  2.4185e+20
-48.7401  2.58874e+20
-48.6228  2.74772e+20
-48.5055  2.87952e+20
-48.3882  2.97407e+20
-48.2709  3.02565e+20
-48.1536  3.03642e+20
-48.0363  3.01532e+20
-47.919  2.97401e+20
-47.8017  2.92582e+20
-47.6844  2.88298e+20
-47.5671  2.85502e+20
-47.4498  2.84774e+20
-47.3325  2.86139e+20
-47.2152  2.8937e+20
-47.0979  2.93867e+20
-46.9806  2.98747e+20
-46.8633  3.03144e+20
-46.7459  3.06282e+20
-46.6286  3.07395e+20
-46.5113  3.06035e+20
-46.394  3.0195e+20
-46.2767  2.95405e+20
-46.1594  2.8694e+20
-46.0421  2.77359e+20
-45.9248  2.67667e+20
-45.8075  2.58945e+20
-45.6902  2.5202e+20
-45.5729  2.47575e+20
-45.4556  2.45642e+20
-45.3383  2.46093e+20
-45.221  2.48219e+20
-45.1037  2.51256e+20
-44.9864  2.54469e+20
-44.8691  2.57045e+20
-44.7518  2.58557e+20
-44.6345  2.58897e+20
-44.5172  2.58241e+20
-44.3998  2.56866e+20
-44.2825  2.55269e+20
-44.1652  2.5375e+20
-44.0479  2.52762e+20
-43.9306  2.52619e+20
-43.8133  2.53685e+20
-43.696  2.56484e+20
-43.5787  2.61494e+20
-43.4614  2.69317e+20
-43.3441  2.8061e+20
-43.2268  2.9568e+20
-43.1095  3.1463e+20
-42.9922  3.37002e+20
-42.8749  3.61999e+20
-42.7576  3.88224e+20
-42.6403  4.14353e+20
-42.523  4.38759e+20
-42.4057  4.60237e+20
-42.2884  4.77766e+20
-42.171  4.90963e+20
-42.0537  4.99978e+20
-41.9364  5.05267e+20
-41.8191  5.07611e+20
-41.7018  5.07624e+20
-41.5845  5.06262e+20
-41.4672  5.04007e+20
-41.3499  5.01267e+20
-41.2326  4.98247e+20
-41.1153  4.95026e+20
-40.998  4.91674e+20
-40.8807  4.88164e+20
-40.7634  4.84461e+20
-40.6461  4.80814e+20
-40.5288  4.77214e+20
-40.4115  4.74119e+20
-40.2942  4.72104e+20
-40.1769  4.71555e+20
-40.0596  4.73305e+20
-39.9423  4.78206e+20
-39.825  4.86738e+20
-39.7076  4.99345e+20
-39.5903  5.15953e+20
-39.473  5.35885e+20
-39.3557  5.57876e+20
-39.2384  5.80142e+20
-39.1211  6.00507e+20
-39.0038  6.16762e+20
-38.8865  6.27106e+20
-38.7692  6.30385e+20
-38.6519  6.26467e+20
-38.5346  6.16017e+20
-38.4173  6.00873e+20
-38.3  5.83457e+20
-38.1827  5.66552e+20
-38.0654  5.5298e+20
-37.9481  5.45021e+20
-37.8308  5.44424e+20
-37.7135  5.51873e+20
-37.5962  5.67241e+20
-37.4789  5.89761e+20
-37.3615  6.17637e+20
-37.2442  6.48988e+20
-37.1269  6.81702e+20
-37.0096  7.134e+20
-36.8923  7.42367e+20
-36.775  7.66856e+20
-36.6577  7.85988e+20
-36.5404  7.99128e+20
-36.4231  8.06299e+20
-36.3058  8.08306e+20
-36.1885  8.06026e+20
-36.0712  8.00886e+20
-35.9539  7.94177e+20
-35.8366  7.87194e+20
-35.7193  7.80978e+20
-35.602  7.76026e+20
-35.4847  7.72253e+20
-35.3674  7.69403e+20
-35.2501  7.66508e+20
-35.1328  7.62517e+20
-35.0154  7.56708e+20
-34.8981  7.48183e+20
-34.7808  7.36539e+20
-34.6635  7.21828e+20
-34.5462  7.04615e+20
-34.4289  6.85622e+20
-34.3116  6.66311e+20
-34.1943  6.482e+20
-34.077  6.33103e+20
-33.9597  6.22919e+20
-33.8424  6.19135e+20
-33.7251  6.23177e+20
-33.6078  6.35885e+20
-33.4905  6.57336e+20
-33.3732  6.86979e+20
-33.2559  7.23151e+20
-33.1386  7.63921e+20
-33.0213  8.06463e+20
-32.904  8.47837e+20
-32.7867  8.85602e+20
-32.6693  9.17201e+20
-32.552  9.41335e+20
-32.4347  9.57473e+20
-32.3174  9.65872e+20
-32.2001  9.68004e+20
-32.0828  9.65613e+20
-31.9655  9.61093e+20
-31.8482  9.56783e+20
-31.7309  9.54452e+20
-31.6136  9.55863e+20
-31.4963  9.61723e+20
-31.379  9.72166e+20
-31.2617  9.86324e+20
-31.1444  1.00324e+21
-31.0271  1.0214e+21
-30.9098  1.03919e+21
-30.7925  1.05535e+21
-30.6752  1.06888e+21
-30.5579  1.0792e+21
-30.4406  1.08672e+21
-30.3232  1.0923e+21
-30.2059  1.09725e+21
-30.0886  1.10287e+21
-29.9713  1.11072e+21
-29.854  1.12196e+21
-29.7367  1.13721e+21
-29.6194  1.15668e+21
-29.5021  1.1798e+21
-29.3848  1.20563e+21
-29.2675  1.23297e+21
-29.1502  1.26027e+21
-29.0329  1.28621e+21
-28.9156  1.30985e+21
-28.7983  1.33045e+21
-28.681  1.34797e+21
-28.5637  1.36282e+21
-28.4464  1.37607e+21
-28.3291  1.38903e+21
-28.2118  1.40332e+21
-28.0944  1.42068e+21
-27.9771  1.44259e+21
-27.8598  1.47015e+21
-27.7425  1.50396e+21
-27.6252  1.54376e+21
-27.5079  1.58882e+21
-27.3906  1.63765e+21
-27.2733  1.68858e+21
-27.156  1.74004e+21
-27.0387  1.79039e+21
-26.9214  1.83884e+21
-26.8041  1.8851e+21
-26.6868  1.92935e+21
-26.5695  1.97227e+21
-26.4522  2.01473e+21
-26.3349  2.05798e+21
-26.2176  2.10271e+21
-26.1003  2.14991e+21
-25.983  2.19971e+21
-25.8657  2.2525e+21
-25.7483  2.30859e+21
-25.631  2.36774e+21
-25.5137  2.4302e+21
-25.3964  2.4957e+21
-25.2791  2.56389e+21
-25.1618  2.6344e+21
-25.0445  2.7067e+21
-24.9272  2.77995e+21
-24.8099  2.85348e+21
-24.6926  2.92707e+21
-24.5753  3.00075e+21
-24.458  3.07491e+21
-24.3407  3.15036e+21
-24.2234  3.22862e+21
-24.1061  3.31048e+21
-23.9888  3.39678e+21
-23.8715  3.48788e+21
-23.7542  3.58325e+21
-23.6369  3.6816e+21
-23.5196  3.78126e+21
-23.4023  3.88015e+21
-23.2849  3.97616e+21
-23.1676  4.0675e+21
-23.0503  4.15293e+21
-22.933  4.23239e+21
-22.8157  4.30602e+21
-22.6984  4.37523e+21
-22.5811  4.44176e+21
-22.4638  4.5087e+21
-22.3465  4.57892e+21
-22.2292  4.65599e+21
-22.1119  4.74282e+21
-21.9946  4.84214e+21
-21.8773  4.9555e+21
-21.76  5.08266e+21
-21.6427  5.22207e+21
-21.5254  5.36996e+21
-21.4081  5.52171e+21
-21.2908  5.67084e+21
-21.1735  5.81122e+21
-21.0561  5.93723e+21
-20.9388  6.04424e+21
-20.8215  6.13019e+21
-20.7042  6.1952e+21
-20.5869  6.24172e+21
-20.4696  6.27483e+21
-20.3523  6.30115e+21
-20.235  6.32797e+21
-20.1177  6.36296e+21
-20.0004  6.41363e+21
-19.8831  6.48618e+21
-19.7658  6.58519e+21
-19.6485  6.71353e+21
-19.5312  6.87234e+21
-19.4139  7.06013e+21
-19.2966  7.27339e+21
-19.1793  7.50735e+21
-19.062  7.75466e+21
-18.9447  8.00742e+21
-18.8274  8.25721e+21
-18.71  8.4961e+21
-18.5927  8.71701e+21
-18.4754  8.91478e+21
-18.3581  9.08633e+21
-18.2408  9.23227e+21
-18.1235  9.35381e+21
-18.0062  9.45553e+21
-17.8889  9.54284e+21
-17.7716  9.6224e+21
-17.6543  9.70022e+21
-17.537  9.7825e+21
-17.4197  9.87327e+21
-17.3024  9.97632e+21
-17.1851  1.00935e+22
-17.0678  1.02249e+22
-16.9505  1.03701e+22
-16.8332  1.05272e+22
-16.7159  1.06942e+22
-16.5986  1.08685e+22
-16.4813  1.10481e+22
-16.364  1.12314e+22
-16.2466  1.14177e+22
-16.1293  1.16072e+22
-16.012  1.18009e+22
-15.8947  1.20004e+22
-15.7774  1.22081e+22
-15.6601  1.2426e+22
-15.5428  1.26556e+22
-15.4255  1.28974e+22
-15.3082  1.31504e+22
-15.1909  1.34126e+22
-15.0736  1.36798e+22
-14.9563  1.39473e+22
-14.839  1.42097e+22
-14.7217  1.4461e+22
-14.6044  1.46956e+22
-14.4871  1.49098e+22
-14.3698  1.50999e+22
-14.2525  1.52646e+22
-14.1352  1.54041e+22
-14.0178  1.55211e+22
-13.9005  1.56186e+22
-13.7832  1.57016e+22
-13.6659  1.57754e+22
-13.5486  1.58465e+22
-13.4313  1.59193e+22
-13.314  1.59991e+22
-13.1967  1.60894e+22
-13.0794  1.61929e+22
-12.9621  1.63099e+22
-12.8448  1.64406e+22
-12.7275  1.65828e+22
-12.6102  1.67351e+22
-12.4929  1.6895e+22
-12.3756  1.70599e+22
-12.2583  1.72283e+22
-12.141  1.73991e+22
-12.0237  1.75719e+22
-11.9064  1.77472e+22
-11.7891  1.79265e+22
-11.6718  1.81117e+22
-11.5544  1.83051e+22
-11.4371  1.85098e+22
-11.3198  1.87271e+22
-11.2025  1.89591e+22
-11.0852  1.92064e+22
-10.9679  1.94684e+22
-10.8506  1.97432e+22
-10.7333  2.00275e+22
-10.616  2.03162e+22
-10.4987  2.06043e+22
-10.3814  2.08853e+22
-10.2641  2.11529e+22
-10.1468  2.14018e+22
-10.0295  2.16278e+22
-9.91217  2.18277e+22
-9.79487  2.20012e+22
-9.67756  2.2149e+22
-9.56026  2.2274e+22
-9.44295  2.23804e+22
-9.32565  2.24739e+22
-9.20834  2.25601e+22
-9.09104  2.26444e+22
-8.97373  2.27323e+22
-8.85643  2.2828e+22
-8.73913  2.29336e+22
-8.62182  2.3051e+22
-8.50452  2.318e+22
-8.38721  2.33193e+22
-8.26991  2.34664e+22
-8.1526  2.36183e+22
-8.03529  2.37715e+22
-7.91799  2.39231e+22
-7.80069  2.4071e+22
-7.68338  2.42132e+22
-7.56608  2.43494e+22
-7.44877  2.44802e+22
-7.33146  2.46061e+22
-7.21416  2.47287e+22
-7.09685  2.48496e+22
-6.97955  2.49696e+22
-6.86224  2.50897e+22
-6.74494  2.52105e+22
-6.62763  2.53302e+22
-6.51033  2.54483e+22
-6.39302  2.55628e+22
-6.27572  2.56714e+22
-6.15842  2.57722e+22
-6.04111  2.58632e+22
-5.92381  2.59428e+22
-5.8065  2.60113e+22
-5.68919  2.60686e+22
-5.57189  2.61166e+22
-5.45458  2.61576e+22
-5.33728  2.6196e+22
-5.21997  2.62356e+22
-5.10267  2.62813e+22
-4.98536  2.63375e+22
-4.86806  2.6408e+22
-4.75075  2.64959e+22
-4.63345  2.66029e+22
-4.51614  2.67293e+22
-4.39884  2.68734e+22
-4.28154  2.70335e+22
-4.16423  2.72053e+22
-4.04692  2.7384e+22
-3.92962  2.75646e+22
-3.81231  2.77412e+22
-3.69501  2.79078e+22
-3.5777  2.80591e+22
-3.4604  2.81902e+22
-3.34309  2.82977e+22
-3.22579  2.8379e+22
-3.10849  2.84344e+22
-2.99118  2.8465e+22
-2.87387  2.84741e+22
-2.75657  2.84662e+22
-2.63926  2.84457e+22
-2.52196  2.84178e+22
-2.40465  2.83867e+22
-2.28735  2.83548e+22
-2.17005  2.8324e+22
-2.05274  2.82951e+22
-1.93544  2.82663e+22
-1.81813  2.82368e+22
-1.70083  2.82043e+22
-1.58352  2.81669e+22
-1.46622  2.81231e+22
-1.34891  2.80717e+22
-1.2316  2.8012e+22
-1.1143  2.79444e+22
-0.996995  2.78694e+22
-0.87969  2.77893e+22
-0.762385  2.77054e+22
-0.64508  2.76223e+22
-0.527775  2.75432e+22
-0.41047  2.74722e+22
-0.293165  2.74143e+22
-0.17586  2.73729e+22
-0.058555  2.73514e+22
0.05875  2.7351e+22
0.176055  2.73718e+22
0.29336  2.74121e+22
0.410665  2.74694e+22
0.52797  2.75391e+22
0.645275  2.76173e+22
0.76258  2.76994e+22
0.879885  2.77819e+22
0.99719  2.78608e+22
1.1145  2.79342e+22
1.2318  2.80004e+22
1.3491  2.80586e+22
1.46641  2.81082e+22
1.58371  2.81503e+22
1.70102  2.81857e+22
1.81832  2.82162e+22
1.93563  2.82434e+22
2.05294  2.82696e+22
2.17024  2.82965e+22
2.28754  2.8325e+22
2.40485  2.83543e+22
2.52216  2.83831e+22
2.63946  2.84084e+22
2.75677  2.8426e+22
2.87407  2.84314e+22
2.99137  2.84194e+22
3.10868  2.83859e+22
3.22599  2.8328e+22
3.34329  2.82441e+22
3.4606  2.81346e+22
3.5779  2.80013e+22
3.69521  2.7848e+22
3.81251  2.768e+22
3.92982  2.75016e+22
4.04712  2.73197e+22
4.16443  2.71399e+22
4.28173  2.6967e+22
4.39903  2.6806e+22
4.51634  2.66606e+22
4.63364  2.65335e+22
4.75095  2.64253e+22
4.86825  2.6336e+22
4.98556  2.62641e+22
5.10286  2.62065e+22
5.22017  2.6159e+22
5.33748  2.61177e+22
5.45478  2.60776e+22
5.57209  2.60347e+22
5.68939  2.59848e+22
5.8067  2.59256e+22
5.924  2.58554e+22
6.0413  2.57739e+22
6.15861  2.56813e+22
6.27591  2.5579e+22
6.39322  2.54692e+22
6.51052  2.53537e+22
6.62783  2.52344e+22
6.74514  2.51135e+22
6.86244  2.49923e+22
6.97975  2.48714e+22
7.09705  2.47505e+22
7.21436  2.4629e+22
7.33166  2.45054e+22
7.44897  2.43787e+22
7.56627  2.42471e+22
7.68358  2.41096e+22
7.80088  2.39659e+22
7.91819  2.38166e+22
8.03549  2.36633e+22
8.1528  2.35088e+22
8.2701  2.33552e+22
8.38741  2.32064e+22
8.50471  2.30655e+22
8.62202  2.29347e+22
8.73932  2.28151e+22
8.85662  2.27078e+22
8.97393  2.26104e+22
9.09123  2.25205e+22
9.20854  2.24342e+22
9.32584  2.23461e+22
9.44315  2.22504e+22
9.56045  2.21417e+22
9.67776  2.20146e+22
9.79506  2.18647e+22
9.91237  2.16891e+22
10.0297  2.14873e+22
10.147  2.12597e+22
10.2643  2.10093e+22
10.3816  2.07402e+22
10.4989  2.04582e+22
10.6162  2.01692e+22
10.7335  1.98797e+22
10.8508  1.95951e+22
10.9681  1.93197e+22
11.0854  1.90577e+22
11.2027  1.88104e+22
11.32  1.85783e+22
11.4373  1.8361e+22
11.5546  1.8157e+22
11.6719  1.79635e+22
11.7893  1.77787e+22
11.9066  1.76001e+22
12.0239  1.7425e+22
12.1412  1.72528e+22
12.2585  1.70827e+22
12.3758  1.69148e+22
12.4931  1.67504e+22
12.6104  1.6591e+22
12.7277  1.64391e+22
12.845  1.62973e+22
12.9623  1.6167e+22
13.0796  1.60502e+22
13.1969  1.5947e+22
13.3142  1.58569e+22
13.4315  1.57767e+22
13.5488  1.57039e+22
13.6661  1.5633e+22
13.7834  1.55587e+22
13.9007  1.54756e+22
14.018  1.53778e+22
14.1354  1.52606e+22
14.2527  1.51205e+22
14.37  1.49556e+22
14.4873  1.47652e+22
14.6046  1.45507e+22
14.7219  1.43158e+22
14.8392  1.40644e+22
14.9565  1.38021e+22
15.0738  1.35345e+22
15.1911  1.32673e+22
15.3084  1.30052e+22
15.4257  1.27522e+22
15.543  1.25107e+22
15.6603  1.22811e+22
15.7776  1.20636e+22
15.8949  1.18561e+22
16.0122  1.16568e+22
16.1295  1.14637e+22
16.2468  1.12749e+22
16.3641  1.10892e+22
16.4815  1.09069e+22
16.5988  1.07285e+22
16.7161  1.05552e+22
16.8334  1.03897e+22
16.9507  1.02341e+22
17.068  1.00904e+22
17.1853  9.9604e+21
17.3026  9.84463e+21
17.4199  9.74282e+21
17.5372  9.65296e+21
17.6545  9.57167e+21
17.7718  9.4945e+21
17.8891  9.41543e+21
18.0064  9.32855e+21
18.1237  9.22713e+21
18.241  9.10583e+21
18.3583  8.96053e+21
18.4756  8.78916e+21
18.5929  8.59222e+21
18.7102  8.37236e+21
18.8275  8.13489e+21
18.9449  7.88653e+21
19.0622  7.63579e+21
19.1795  7.39057e+21
19.2968  7.15896e+21
19.4141  6.9479e+21
19.5314  6.76255e+21
19.6487  6.60596e+21
19.766  6.47975e+21
19.8833  6.38254e+21
20.0006  6.31154e+21
20.1179  6.26208e+21
20.2352  6.22806e+21
20.3525  6.2019e+21
20.4698  6.17615e+21
20.5871  6.14322e+21
20.7044  6.09678e+21
20.8217  6.03193e+21
20.939  5.94611e+21
21.0563  5.83915e+21
21.1736  5.71378e+21
21.291  5.574e+21
21.4083  5.42567e+21
21.5256  5.27529e+21
21.6429  5.12867e+21
21.7602  4.99089e+21
21.8775  4.86543e+21
21.9948  4.75388e+21
22.1121  4.6563e+21
22.2294  4.57091e+21
22.3467  4.49555e+21
22.464  4.42682e+21
22.5813  4.36127e+21
22.6986  4.29601e+21
22.8159  4.22826e+21
22.9332  4.15583e+21
23.0505  4.07768e+21
23.1678  3.99333e+21
23.2851  3.90328e+21
23.4024  3.80855e+21
23.5198  3.71096e+21
23.6371  3.61264e+21
23.7544  3.51564e+21
23.8717  3.4217e+21
23.989  3.33194e+21
24.1063  3.24696e+21
24.2236  3.16653e+21
24.3409  3.08965e+21
24.4582  3.01545e+21
24.5755  2.94257e+21
24.6928  2.87023e+21
24.8101  2.79795e+21
24.9274  2.72576e+21
25.0447  2.65393e+21
25.162  2.58309e+21
25.2793  2.51397e+21
25.3966  2.44712e+21
25.5139  2.38307e+21
25.6312  2.32197e+21
25.7485  2.26398e+21
25.8658  2.20929e+21
25.9832  2.15749e+21
26.1005  2.10885e+21
26.2178  2.06293e+21
26.3351  2.01916e+21
26.4524  1.97703e+21
26.5697  1.93561e+21
26.687  1.89369e+21
26.8043  1.85057e+21
26.9216  1.80535e+21
27.0389  1.75791e+21
27.1562  1.70859e+21
27.2735  1.6582e+21
27.3908  1.60837e+21
27.5081  1.56068e+21
27.6254  1.51671e+21
27.7427  1.47799e+21
27.86  1.44522e+21
27.9773  1.41862e+21
28.0946  1.39766e+21
28.212  1.38113e+21
28.3293  1.36764e+21
28.4466  1.35532e+21
28.5639  1.34272e+21
28.6812  1.32846e+21
28.7985  1.31144e+21
28.9158  1.29142e+21
29.0331  1.26837e+21
29.1504  1.24298e+21
29.2677  1.21628e+21
29.385  1.18964e+21
29.5023  1.16445e+21
29.6196  1.14198e+21
29.7369  1.12323e+21
29.8542  1.10861e+21
29.9715  1.09808e+21
30.0888  1.09072e+21
30.2061  1.08554e+21
30.3234  1.08107e+21
30.4407  1.07588e+21
30.558  1.06872e+21
30.6754  1.0586e+21
30.7927  1.04553e+21
30.91  1.02983e+21
31.0273  1.01239e+21
31.1446  9.94657e+20
31.2619  9.78195e+20
31.3792  9.64402e+20
31.4965  9.54616e+20
31.6138  9.49306e+20
31.7311  9.48281e+20
31.8484  9.50877e+20
31.9657  9.55517e+20
32.083  9.60162e+20
32.2003  9.62614e+20
32.3176  9.60563e+20
32.4349  9.52076e+20
32.5522  9.35919e+20
32.6695  9.11682e+20
32.7868  8.80094e+20
32.9042  8.42518e+20
33.0215  8.01217e+20
33.1388  7.58979e+20
33.2561  7.18501e+20
33.3734  6.82743e+20
33.4907  6.53571e+20
33.608  6.32493e+20
33.7253  6.20213e+20
33.8426  6.16435e+20
33.9599  6.2052e+20
34.0772  6.30955e+20
34.1945  6.46148e+20
34.3118  6.64252e+20
34.4291  6.83509e+20
34.5464  7.02508e+20
34.6637  7.19807e+20
34.781  7.34403e+20
34.8983  7.45921e+20
35.0156  7.54386e+20
35.1329  7.60182e+20
35.2503  7.64075e+20
35.3676  7.67062e+20
35.4849  7.7002e+20
35.6022  7.73791e+20
35.7195  7.78855e+20
35.8368  7.85036e+20
35.9541  7.91931e+20
36.0714  7.98589e+20
36.1887  8.03728e+20
36.306  8.05872e+20
36.4233  8.03718e+20
36.5406  7.96317e+20
36.6579  7.82989e+20
36.7752  7.63646e+20
36.8925  7.38987e+20
37.0098  7.09948e+20
37.1271  6.78135e+20
37.2444  6.45529e+20
37.3617  6.14201e+20
37.479  5.86485e+20
37.5964  5.64136e+20
37.7137  5.48963e+20
37.831  5.41727e+20
37.9483  5.42538e+20
38.0656  5.50636e+20
38.1829  5.64284e+20
38.3002  5.81166e+20
38.4175  5.98531e+20
38.5348  6.13432e+20
38.6521  6.23663e+20
38.7694  6.27321e+20
38.8867  6.23782e+20
39.004  6.13144e+20
39.1213  5.96699e+20
39.2386  5.76277e+20
39.3559  5.54008e+20
39.4732  5.32097e+20
39.5905  5.12241e+20
39.7078  4.95741e+20
39.8251  4.83256e+20
39.9425  4.74838e+20
40.0598  4.70108e+20
40.1771  4.68397e+20
40.2944  4.68954e+20
40.4117  4.71136e+20
40.529  4.74178e+20
40.6463  4.77715e+20
40.7636  4.81454e+20
40.8809  4.85083e+20
40.9982  4.88663e+20
41.1155  4.91976e+20
41.2328  4.95148e+20
41.3501  4.98109e+20
41.4674  5.00795e+20
41.5847  5.02988e+20
41.702  5.04238e+20
41.8193  5.04104e+20
41.9366  5.01674e+20
42.0539  4.96264e+20
42.1712  4.87159e+20
42.2885  4.73785e+20
42.4059  4.56188e+20
42.5232  4.34715e+20
42.6405  4.10385e+20
42.7578  3.84326e+20
42.8751  3.58191e+20
42.9924  3.33444e+20
43.1097  3.11339e+20
43.227  2.92607e+20
43.3443  2.77785e+20
43.4616  2.66714e+20
43.5789  2.59065e+20
43.6962  2.54172e+20
43.8135  2.51539e+20
43.9308  2.50528e+20
44.0481  2.50733e+20
44.1654  2.51799e+20
44.2827  2.53332e+20
44.4  2.55001e+20
44.5173  2.56413e+20
44.6347  2.57122e+20
44.752  2.56772e+20
44.8693  2.55223e+20
44.9866  2.5271e+20
45.1039  2.49578e+20
45.2212  2.46575e+20
45.3385  2.44516e+20
45.4558  2.44192e+20
45.5731  2.46193e+20
45.6904  2.5083e+20
45.8077  2.57786e+20
45.925  2.6659e+20
46.0423  2.76285e+20
46.1596  2.85884e+20
46.2769  2.94303e+20
46.3942  3.00762e+20
46.5115  3.04758e+20
46.6288  3.06031e+20
46.7461  3.04844e+20
46.8634  3.01678e+20
46.9808  2.97237e+20
47.0981  2.92371e+20
47.2154  2.87939e+20
47.3327  2.84789e+20
47.45  2.83462e+20
47.5673  2.84305e+20
47.6846  2.87194e+20
47.8019  2.91551e+20
47.9192  2.96393e+20
48.0365  3.00527e+20
48.1538  3.02598e+20
48.2711  3.01394e+20
48.3884  2.96131e+20
48.5057  2.8663e+20
48.623  2.73347e+20
48.7403  2.57424e+20
48.8576  2.40372e+20
48.9749  2.24235e+20
49.0922  2.10792e+20
49.2095  2.01437e+20
49.3269  1.96985e+20
49.4442  1.97645e+20
49.5615  2.02775e+20
49.6788  2.11431e+20
49.7961  2.22098e+20
49.9134  2.33322e+20
50.0307  2.43725e+20
50.148  2.52163e+20
50.2653  2.58038e+20
50.3826  2.60997e+20
50.4999  2.61173e+20
50.6172  2.58998e+20
50.7345  2.55153e+20
