#S 1 spectral density
#N 2
#UFWHM 23.9302
#L  abscissas [um]  spectral density
-58.5938  1.16249e+20
-58.4764  1.07549e+20
-58.3591  9.89258e+19
-58.2418  9.06774e+19
-58.1245  8.3095e+19
-58.0072  7.66051e+19
-57.8899  7.16717e+19
-57.7726  6.87989e+19
-57.6553  6.85483e+19
-57.538  7.13859e+19
-57.4207  7.75252e+19
-57.3034  8.68813e+19
-57.1861  9.90288e+19
-57.0688  1.13093e+20
-56.9515  1.28032e+20
-56.8342  1.42533e+20
-56.7169  1.55537e+20
-56.5996  1.6619e+20
-56.4823  1.74181e+20
-56.365  1.79582e+20
-56.2477  1.83031e+20
-56.1303  1.85219e+20
-56.013  1.87087e+20
-55.8957  1.89209e+20
-55.7784  1.91928e+20
-55.6611  1.94982e+20
-55.5438  1.97785e+20
-55.4265  1.99647e+20
-55.3092  1.99687e+20
-55.1919  1.97282e+20
-55.0746  1.92283e+20
-54.9573  1.84799e+20
-54.84  1.75599e+20
-54.7227  1.65602e+20
-54.6054  1.55992e+20
-54.4881  1.47847e+20
-54.3708  1.41929e+20
-54.2535  1.3874e+20
-54.1362  1.38288e+20
-54.0189  1.40186e+20
-53.9016  1.43689e+20
-53.7842  1.47909e+20
-53.6669  1.51961e+20
-53.5496  1.5505e+20
-53.4323  1.56615e+20
-53.315  1.56424e+20
-53.1977  1.54534e+20
-53.0804  1.51249e+20
-52.9631  1.47098e+20
-52.8458  1.42672e+20
-52.7285  1.38516e+20
-52.6112  1.35093e+20
-52.4939  1.32644e+20
-52.3766  1.31347e+20
-52.2593  1.31202e+20
-52.142  1.32193e+20
-52.0247  1.34261e+20
-51.9074  1.3743e+20
-51.7901  1.41742e+20
-51.6728  1.4744e+20
-51.5555  1.54623e+20
-51.4381  1.63378e+20
-51.3208  1.73706e+20
-51.2035  1.8535e+20
-51.0862  1.97993e+20
-50.9689  2.10976e+20
-50.8516  2.23622e+20
-50.7343  2.35088e+20
-50.617  2.44567e+20
-50.4997  2.51296e+20
-50.3824  2.54609e+20
-50.2651  2.54019e+20
-50.1478  2.49393e+20
-50.0305  2.40691e+20
-49.9132  2.28417e+20
-49.7959  2.13091e+20
-49.6786  1.95641e+20
-49.5613  1.77061e+20
-49.444  1.58432e+20
-49.3267  1.40667e+20
-49.2094  1.24581e+20
-49.092  1.10708e+20
-48.9747  9.93464e+19
-48.8574  9.06392e+19
-48.7401  8.45398e+19
-48.6228  8.09964e+19
-48.5055  7.99862e+19
-48.3882  8.14922e+19
-48.2709  8.54892e+19
-48.1536  9.18844e+19
-48.0363  1.00335e+20
-47.919  1.10377e+20
-47.8017  1.21245e+20
-47.6844  1.32096e+20
-47.5671  1.41968e+20
-47.4498  1.50232e+20
-47.3325  1.56452e+20
-47.2152  1.60686e+20
-47.0979  1.63447e+20
-46.9806  1.65561e+20
-46.8633  1.68058e+20
-46.7459  1.71922e+20
-46.6286  1.77919e+20
-46.5113  1.86335e+20
-46.394  1.97158e+20
-46.2767  2.09821e+20
-46.1594  2.23486e+20
-46.0421  2.37027e+20
-45.9248  2.49403e+20
-45.8075  2.59545e+20
-45.6902  2.66461e+20
-45.5729  2.69639e+20
-45.4556  2.68633e+20
-45.3383  2.63532e+20
-45.221  2.5464e+20
-45.1037  2.42668e+20
-44.9864  2.28796e+20
-44.8691  2.14414e+20
-44.7518  2.00938e+20
-44.6345  1.89812e+20
-44.5172  1.82082e+20
-44.3998  1.78296e+20
-44.2825  1.78125e+20
-44.1652  1.80888e+20
-44.0479  1.85329e+20
-43.9306  1.89907e+20
-43.8133  1.93268e+20
-43.696  1.9446e+20
-43.5787  1.9323e+20
-43.4614  1.89858e+20
-43.3441  1.85451e+20
-43.2268  1.81334e+20
-43.1095  1.79035e+20
-42.9922  1.79678e+20
-42.8749  1.84069e+20
-42.7576  1.92298e+20
-42.6403  2.03994e+20
-42.523  2.18287e+20
-42.4057  2.34126e+20
-42.2884  2.50403e+20
-42.171  2.6615e+20
-42.0537  2.80687e+20
-41.9364  2.93554e+20
-41.8191  3.04328e+20
-41.7018  3.12822e+20
-41.5845  3.1887e+20
-41.4672  3.22281e+20
-41.3499  3.23125e+20
-41.2326  3.21305e+20
-41.1153  3.17151e+20
-40.998  3.11047e+20
-40.8807  3.03484e+20
-40.7634  2.95109e+20
-40.6461  2.86479e+20
-40.5288  2.77916e+20
-40.4115  2.69561e+20
-40.2942  2.61501e+20
-40.1769  2.53342e+20
-40.0596  2.44906e+20
-39.9423  2.35989e+20
-39.825  2.2659e+20
-39.7076  2.16972e+20
-39.5903  2.07536e+20
-39.473  1.98908e+20
-39.3557  1.91874e+20
-39.2384  1.8709e+20
-39.1211  1.85063e+20
-39.0038  1.86371e+20
-38.8865  1.91239e+20
-38.7692  1.99808e+20
-38.6519  2.12198e+20
-38.5346  2.28258e+20
-38.4173  2.47736e+20
-38.3  2.70163e+20
-38.1827  2.94898e+20
-38.0654  3.21031e+20
-37.9481  3.47512e+20
-37.8308  3.73204e+20
-37.7135  3.97032e+20
-37.5962  4.18087e+20
-37.4789  4.35806e+20
-37.3615  4.5009e+20
-37.2442  4.61066e+20
-37.1269  4.694e+20
-37.0096  4.75478e+20
-36.8923  4.80075e+20
-36.775  4.83621e+20
-36.6577  4.86362e+20
-36.5404  4.88143e+20
-36.4231  4.88621e+20
-36.3058  4.87474e+20
-36.1885  4.84265e+20
-36.0712  4.78819e+20
-35.9539  4.71073e+20
-35.8366  4.61454e+20
-35.7193  4.50632e+20
-35.602  4.39464e+20
-35.4847  4.28846e+20
-35.3674  4.19853e+20
-35.2501  4.13301e+20
-35.1328  4.09798e+20
-35.0154  4.09751e+20
-34.8981  4.1317e+20
-34.7808  4.19656e+20
-34.6635  4.28318e+20
-34.5462  4.38243e+20
-34.4289  4.48063e+20
-34.3116  4.56612e+20
-34.1943  4.62793e+20
-34.077  4.66143e+20
-33.9597  4.66603e+20
-33.8424  4.64823e+20
-33.7251  4.61879e+20
-33.6078  4.5949e+20
-33.4905  4.59418e+20
-33.3732  4.63346e+20
-33.2559  4.72599e+20
-33.1386  4.87991e+20
-33.0213  5.09479e+20
-32.904  5.36264e+20
-32.7867  5.67193e+20
-32.6693  6.00317e+20
-32.552  6.33484e+20
-32.4347  6.64904e+20
-32.3174  6.92243e+20
-32.2001  7.14252e+20
-32.0828  7.29646e+20
-31.9655  7.37749e+20
-31.8482  7.38603e+20
-31.7309  7.3238e+20
-31.6136  7.20084e+20
-31.4963  7.02866e+20
-31.379  6.82329e+20
-31.2617  6.60002e+20
-31.1444  6.37518e+20
-31.0271  6.16465e+20
-30.9098  5.9792e+20
-30.7925  5.82901e+20
-30.6752  5.71814e+20
-30.5579  5.64679e+20
-30.4406  5.61277e+20
-30.3232  5.61291e+20
-30.2059  5.64261e+20
-30.0886  5.6954e+20
-29.9713  5.76697e+20
-29.854  5.8543e+20
-29.7367  5.95601e+20
-29.6194  6.07037e+20
-29.5021  6.19567e+20
-29.3848  6.33147e+20
-29.2675  6.47764e+20
-29.1502  6.62782e+20
-29.0329  6.7785e+20
-28.9156  6.92193e+20
-28.7983  7.04938e+20
-28.681  7.15166e+20
-28.5637  7.21927e+20
-28.4464  7.24713e+20
-28.3291  7.23147e+20
-28.2118  7.1744e+20
-28.0944  7.08655e+20
-27.9771  6.97824e+20
-27.8598  6.86761e+20
-27.7425  6.776e+20
-27.6252  6.72242e+20
-27.5079  6.72808e+20
-27.3906  6.80776e+20
-27.2733  6.97482e+20
-27.156  7.23877e+20
-27.0387  7.5991e+20
-26.9214  8.05449e+20
-26.8041  8.59559e+20
-26.6868  9.20823e+20
-26.5695  9.87095e+20
-26.4522  1.05597e+21
-26.3349  1.12489e+21
-26.2176  1.19108e+21
-26.1003  1.25231e+21
-25.983  1.30656e+21
-25.8657  1.35272e+21
-25.7483  1.39063e+21
-25.631  1.4208e+21
-25.5137  1.44453e+21
-25.3964  1.46276e+21
-25.2791  1.4772e+21
-25.1618  1.48845e+21
-25.0445  1.49704e+21
-24.9272  1.50274e+21
-24.8099  1.50502e+21
-24.6926  1.50314e+21
-24.5753  1.49714e+21
-24.458  1.48669e+21
-24.3407  1.47304e+21
-24.2234  1.45759e+21
-24.1061  1.44247e+21
-23.9888  1.43012e+21
-23.8715  1.42282e+21
-23.7542  1.42278e+21
-23.6369  1.43167e+21
-23.5196  1.45054e+21
-23.4023  1.47998e+21
-23.2849  1.51971e+21
-23.1676  1.56915e+21
-23.0503  1.62705e+21
-22.933  1.69169e+21
-22.8157  1.76112e+21
-22.6984  1.833e+21
-22.5811  1.90542e+21
-22.4638  1.97703e+21
-22.3465  2.04691e+21
-22.2292  2.11576e+21
-22.1119  2.18504e+21
-21.9946  2.25707e+21
-21.8773  2.33498e+21
-21.76  2.42171e+21
-21.6427  2.51978e+21
-21.5254  2.63034e+21
-21.4081  2.75341e+21
-21.2908  2.88704e+21
-21.1735  3.02811e+21
-21.0561  3.17265e+21
-20.9388  3.31587e+21
-20.8215  3.45367e+21
-20.7042  3.58222e+21
-20.5869  3.69902e+21
-20.4696  3.8025e+21
-20.3523  3.89283e+21
-20.235  3.97079e+21
-20.1177  4.03881e+21
-20.0004  4.10008e+21
-19.8831  4.15853e+21
-19.7658  4.21855e+21
-19.6485  4.28523e+21
-19.5312  4.36364e+21
-19.4139  4.45783e+21
-19.2966  4.57108e+21
-19.1793  4.70534e+21
-19.062  4.86015e+21
-18.9447  5.03332e+21
-18.8274  5.22071e+21
-18.71  5.41677e+21
-18.5927  5.61511e+21
-18.4754  5.80971e+21
-18.3581  5.99496e+21
-18.2408  6.16782e+21
-18.1235  6.32623e+21
-18.0062  6.47064e+21
-17.8889  6.60346e+21
-17.7716  6.72873e+21
-17.6543  6.85141e+21
-17.537  6.97673e+21
-17.4197  7.10969e+21
-17.3024  7.25436e+21
-17.1851  7.41401e+21
-17.0678  7.58992e+21
-16.9505  7.7824e+21
-16.8332  7.98998e+21
-16.7159  8.21041e+21
-16.5986  8.44036e+21
-16.4813  8.67662e+21
-16.364  8.91598e+21
-16.2466  9.15545e+21
-16.1293  9.39354e+21
-16.012  9.62967e+21
-15.8947  9.86446e+21
-15.7774  1.00996e+22
-15.6601  1.03377e+22
-15.5428  1.0581e+22
-15.4255  1.08321e+22
-15.3082  1.10925e+22
-15.1909  1.13624e+22
-15.0736  1.16407e+22
-14.9563  1.1925e+22
-14.839  1.22121e+22
-14.7217  1.24972e+22
-14.6044  1.27754e+22
-14.4871  1.30426e+22
-14.3698  1.32943e+22
-14.2525  1.35277e+22
-14.1352  1.37415e+22
-14.0178  1.39359e+22
-13.9005  1.41123e+22
-13.7832  1.42743e+22
-13.6659  1.44258e+22
-13.5486  1.45731e+22
-13.4313  1.472e+22
-13.314  1.48722e+22
-13.1967  1.50336e+22
-13.0794  1.52074e+22
-12.9621  1.53952e+22
-12.8448  1.55976e+22
-12.7275  1.5813e+22
-12.6102  1.60402e+22
-12.4929  1.62769e+22
-12.3756  1.652e+22
-12.2583  1.67679e+22
-12.141  1.70185e+22
-12.0237  1.72709e+22
-11.9064  1.75247e+22
-11.7891  1.77813e+22
-11.6718  1.80418e+22
-11.5544  1.83081e+22
-11.4371  1.85826e+22
-11.3198  1.88669e+22
-11.2025  1.91624e+22
-11.0852  1.94698e+22
-10.9679  1.97879e+22
-10.8506  2.01145e+22
-10.7333  2.04456e+22
-10.616  2.07765e+22
-10.4987  2.11013e+22
-10.3814  2.14143e+22
-10.2641  2.17093e+22
-10.1468  2.19823e+22
-10.0295  2.22301e+22
-9.91217  2.24514e+22
-9.79487  2.26478e+22
-9.67756  2.28221e+22
-9.56026  2.29785e+22
-9.44295  2.31232e+22
-9.32565  2.32625e+22
-9.20834  2.34025e+22
-9.09104  2.35483e+22
-8.97373  2.3704e+22
-8.85643  2.38734e+22
-8.73913  2.40559e+22
-8.62182  2.4252e+22
-8.50452  2.44595e+22
-8.38721  2.46751e+22
-8.26991  2.48953e+22
-8.1526  2.51161e+22
-8.03529  2.5333e+22
-7.91799  2.55432e+22
-7.80069  2.57449e+22
-7.68338  2.59364e+22
-7.56608  2.61183e+22
-7.44877  2.62922e+22
-7.33146  2.64601e+22
-7.21416  2.66248e+22
-7.09685  2.67898e+22
-6.97955  2.69573e+22
-6.86224  2.71301e+22
-6.74494  2.73094e+22
-6.62763  2.74948e+22
-6.51033  2.76858e+22
-6.39302  2.78803e+22
-6.27572  2.80752e+22
-6.15842  2.82676e+22
-6.04111  2.84534e+22
-5.92381  2.86295e+22
-5.8065  2.87935e+22
-5.68919  2.89443e+22
-5.57189  2.90822e+22
-5.45458  2.92084e+22
-5.33728  2.9327e+22
-5.21997  2.94422e+22
-5.10267  2.95598e+22
-4.98536  2.96856e+22
-4.86806  2.98258e+22
-4.75075  2.99857e+22
-4.63345  3.01694e+22
-4.51614  3.03802e+22
-4.39884  3.06187e+22
-4.28154  3.08846e+22
-4.16423  3.11755e+22
-4.04692  3.14865e+22
-3.92962  3.18123e+22
-3.81231  3.21455e+22
-3.69501  3.24777e+22
-3.5777  3.28002e+22
-3.4604  3.31042e+22
-3.34309  3.33817e+22
-3.22579  3.36258e+22
-3.10849  3.38327e+22
-2.99118  3.39993e+22
-2.87387  3.41254e+22
-2.75657  3.4213e+22
-2.63926  3.42648e+22
-2.52196  3.42855e+22
-2.40465  3.42794e+22
-2.28735  3.42508e+22
-2.17005  3.4204e+22
-2.05274  3.41433e+22
-1.93544  3.4071e+22
-1.81813  3.39907e+22
-1.70083  3.39046e+22
-1.58352  3.38153e+22
-1.46622  3.37249e+22
-1.34891  3.36351e+22
-1.2316  3.35472e+22
-1.1143  3.34621e+22
-0.996995  3.33804e+22
-0.87969  3.33027e+22
-0.762385  3.32285e+22
-0.64508  3.31598e+22
-0.527775  3.30976e+22
-0.41047  3.30435e+22
-0.293165  3.3e+22
-0.17586  3.29692e+22
-0.058555  3.2953e+22
0.05875  3.2952e+22
0.176055  3.29667e+22
0.29336  3.29956e+22
0.410665  3.30376e+22
0.52797  3.30895e+22
0.645275  3.31499e+22
0.76258  3.32165e+22
0.879885  3.32885e+22
0.99719  3.33643e+22
1.1145  3.34441e+22
1.2318  3.35269e+22
1.3491  3.36126e+22
1.46641  3.36999e+22
1.58371  3.37877e+22
1.70102  3.38743e+22
1.81832  3.39574e+22
1.93563  3.40347e+22
2.05294  3.41035e+22
2.17024  3.41612e+22
2.28754  3.42045e+22
2.40485  3.42295e+22
2.52216  3.42319e+22
2.63946  3.42076e+22
2.75677  3.41517e+22
2.87407  3.40605e+22
2.99137  3.39305e+22
3.10868  3.37601e+22
3.22599  3.35498e+22
3.34329  3.33019e+22
3.4606  3.30214e+22
3.5779  3.27146e+22
3.69521  3.23896e+22
3.81251  3.20554e+22
3.92982  3.17201e+22
4.04712  3.13924e+22
4.16443  3.10798e+22
4.28173  3.07875e+22
4.39903  3.052e+22
4.51634  3.028e+22
4.63364  3.00681e+22
4.75095  2.98826e+22
4.86825  2.9721e+22
4.98556  2.95788e+22
5.10286  2.94514e+22
5.22017  2.93315e+22
5.33748  2.92142e+22
5.45478  2.90935e+22
5.57209  2.89649e+22
5.68939  2.88249e+22
5.8067  2.8672e+22
5.924  2.85057e+22
6.0413  2.83279e+22
6.15861  2.81405e+22
6.27591  2.79467e+22
6.39322  2.77505e+22
6.51052  2.75549e+22
6.62783  2.7363e+22
6.74514  2.71767e+22
6.86244  2.6997e+22
6.97975  2.68238e+22
7.09705  2.66556e+22
7.21436  2.64903e+22
7.33166  2.63247e+22
7.44897  2.61562e+22
7.56627  2.59817e+22
7.68358  2.57987e+22
7.80088  2.56061e+22
7.91819  2.54033e+22
8.03549  2.51915e+22
8.1528  2.49731e+22
8.2701  2.47509e+22
8.38741  2.45292e+22
8.50471  2.43119e+22
8.62202  2.41028e+22
8.73932  2.39048e+22
8.85662  2.37206e+22
8.97393  2.35498e+22
9.09123  2.33919e+22
9.20854  2.32444e+22
9.32584  2.31027e+22
9.44315  2.29615e+22
9.56045  2.28147e+22
9.67776  2.26563e+22
9.79506  2.24803e+22
9.91237  2.22818e+22
10.0297  2.20587e+22
10.147  2.18095e+22
10.2643  2.15349e+22
10.3816  2.12386e+22
10.4989  2.09245e+22
10.6162  2.05986e+22
10.7335  2.0267e+22
10.8508  1.99355e+22
10.9681  1.96085e+22
11.0854  1.92904e+22
11.2027  1.89831e+22
11.32  1.86876e+22
11.4373  1.84036e+22
11.5546  1.81297e+22
11.6719  1.78636e+22
11.7893  1.76038e+22
11.9066  1.73482e+22
12.0239  1.70947e+22
12.1412  1.68433e+22
12.2585  1.65936e+22
12.3758  1.63468e+22
12.4931  1.61045e+22
12.6104  1.58689e+22
12.7277  1.56426e+22
12.845  1.54279e+22
12.9623  1.52266e+22
13.0796  1.50395e+22
13.1969  1.48662e+22
13.3142  1.47054e+22
13.4315  1.45537e+22
13.5488  1.44072e+22
13.6661  1.42607e+22
13.7834  1.41094e+22
13.9007  1.3948e+22
14.018  1.37717e+22
14.1354  1.3578e+22
14.2527  1.33647e+22
14.37  1.31321e+22
14.4873  1.28813e+22
14.6046  1.26149e+22
14.7219  1.23379e+22
14.8392  1.20541e+22
14.9565  1.17682e+22
15.0738  1.14853e+22
15.1911  1.1208e+22
15.3084  1.09394e+22
15.4257  1.06804e+22
15.543  1.04308e+22
15.6603  1.01886e+22
15.7776  9.95195e+21
15.8949  9.7181e+21
16.0122  9.48477e+21
16.1295  9.25032e+21
16.2468  9.01409e+21
16.3641  8.77625e+21
16.4815  8.53918e+21
16.5988  8.30518e+21
16.7161  8.07737e+21
16.8334  7.85944e+21
16.9507  7.6544e+21
17.068  7.46452e+21
17.1853  7.29103e+21
17.3026  7.13376e+21
17.4199  6.99118e+21
17.5372  6.86006e+21
17.6545  6.73655e+21
17.7718  6.61544e+21
17.8891  6.49125e+21
18.0064  6.35979e+21
18.1237  6.21663e+21
18.241  6.05938e+21
18.3583  5.88792e+21
18.4756  5.70397e+21
18.5929  5.51112e+21
18.7102  5.31455e+21
18.8275  5.12069e+21
18.9449  4.93555e+21
19.0622  4.76481e+21
19.1795  4.61248e+21
19.2968  4.4807e+21
19.4141  4.36981e+21
19.5314  4.27789e+21
19.6487  4.20161e+21
19.766  4.13691e+21
19.8833  4.07851e+21
20.0006  4.02191e+21
20.1179  3.96234e+21
20.2352  3.89603e+21
20.3525  3.81959e+21
20.4698  3.73102e+21
20.5871  3.62921e+21
20.7044  3.51419e+21
20.8217  3.38755e+21
20.939  3.25176e+21
21.0563  3.11045e+21
21.1736  2.96818e+21
21.291  2.82925e+21
21.4083  2.69791e+21
21.5256  2.57716e+21
21.6429  2.46878e+21
21.7602  2.37285e+21
21.8775  2.28811e+21
21.9948  2.21202e+21
22.1121  2.14172e+21
22.2294  2.07409e+21
22.3467  2.0068e+21
22.464  1.93826e+21
22.5813  1.86809e+21
22.6986  1.79706e+21
22.8159  1.72671e+21
22.9332  1.65877e+21
23.0505  1.59567e+21
23.1678  1.53921e+21
23.2851  1.49118e+21
23.4024  1.45287e+21
23.5198  1.42484e+21
23.6371  1.40722e+21
23.7544  1.39955e+21
23.8717  1.40064e+21
23.989  1.40899e+21
24.1063  1.42223e+21
24.2236  1.43813e+21
24.3409  1.4543e+21
24.4582  1.46857e+21
24.5755  1.47951e+21
24.6928  1.48622e+21
24.8101  1.48858e+21
24.9274  1.48686e+21
25.0447  1.48175e+21
25.162  1.47379e+21
25.2793  1.46312e+21
25.3966  1.44924e+21
25.5139  1.43131e+21
25.6312  1.40812e+21
25.7485  1.37834e+21
25.8658  1.3408e+21
25.9832  1.29487e+21
26.1005  1.24102e+21
26.2178  1.18025e+21
26.3351  1.11446e+21
26.4524  1.04607e+21
26.5697  9.77752e+20
26.687  9.12064e+20
26.8043  8.51693e+20
26.9216  7.98358e+20
27.0389  7.53457e+20
27.1562  7.18068e+20
27.2735  6.92446e+20
27.3908  6.76186e+20
27.5081  6.68697e+20
27.6254  6.68617e+20
27.7427  6.74278e+20
27.86  6.83693e+20
27.9773  6.94799e+20
28.0946  7.05775e+20
28.212  7.14615e+20
28.3293  7.20175e+20
28.4466  7.21716e+20
28.5639  7.18817e+20
28.6812  7.12084e+20
28.7985  7.01772e+20
28.9158  6.89003e+20
29.0331  6.74799e+20
29.1504  6.5965e+20
29.2677  6.44758e+20
29.385  6.30304e+20
29.5023  6.16755e+20
29.6196  6.04252e+20
29.7369  5.92988e+20
29.8542  5.83023e+20
29.9715  5.74406e+20
30.0888  5.6731e+20
30.2061  5.62138e+20
30.3234  5.59334e+20
30.4407  5.59409e+20
30.558  5.62913e+20
30.6754  5.70155e+20
30.7927  5.81352e+20
30.91  5.96443e+20
31.0273  6.149e+20
31.1446  6.35926e+20
31.2619  6.58188e+20
31.3792  6.80365e+20
31.4965  7.00755e+20
31.6138  7.17777e+20
31.7311  7.2971e+20
31.8484  7.35665e+20
31.9657  7.34677e+20
32.083  7.26252e+20
32.2003  7.10668e+20
32.3176  6.88596e+20
32.4349  6.61059e+20
32.5522  6.29759e+20
32.6695  5.96584e+20
32.7868  5.63663e+20
32.9042  5.32853e+20
33.0215  5.06247e+20
33.1388  4.84975e+20
33.2561  4.69783e+20
33.3734  4.60676e+20
33.4907  4.56812e+20
33.608  4.5694e+20
33.7253  4.59392e+20
33.8426  4.62162e+20
33.9599  4.63895e+20
34.0772  4.63274e+20
34.1945  4.5982e+20
34.3118  4.53442e+20
34.4291  4.44805e+20
34.5464  4.3495e+20
34.6637  4.2509e+20
34.781  4.1643e+20
34.8983  4.10054e+20
35.0156  4.0672e+20
35.1329  4.06841e+20
35.2503  4.10397e+20
35.3676  4.17035e+20
35.4849  4.26086e+20
35.6022  4.3674e+20
35.7195  4.47929e+20
35.8368  4.58725e+20
35.9541  4.68276e+20
36.0714  4.75968e+20
36.1887  4.81354e+20
36.306  4.84586e+20
36.4233  4.8569e+20
36.5406  4.85181e+20
36.6579  4.8338e+20
36.7752  4.80669e+20
36.8925  4.77043e+20
37.0098  4.72386e+20
37.1271  4.6619e+20
37.2444  4.57852e+20
37.3617  4.46765e+20
37.479  4.32425e+20
37.5964  4.14618e+20
37.7137  3.93565e+20
37.831  3.69745e+20
37.9483  3.4415e+20
38.0656  3.17742e+20
38.1829  2.918e+20
38.3002  2.67271e+20
38.4175  2.4505e+20
38.5348  2.25816e+20
38.6521  2.0999e+20
38.7694  1.97831e+20
38.8867  1.89431e+20
39.004  1.84714e+20
39.1213  1.83554e+20
39.2386  1.85684e+20
39.3559  1.90619e+20
39.4732  1.97748e+20
39.5905  2.06371e+20
39.7078  2.15842e+20
39.8251  2.25521e+20
39.9425  2.34925e+20
40.0598  2.43847e+20
40.1771  2.5228e+20
40.2944  2.60481e+20
40.4117  2.68636e+20
40.529  2.76947e+20
40.6463  2.85585e+20
40.7636  2.94276e+20
40.8809  3.02621e+20
40.9982  3.10148e+20
41.1155  3.16253e+20
41.2328  3.2037e+20
41.3501  3.22089e+20
41.4674  3.21224e+20
41.5847  3.17744e+20
41.702  3.11651e+20
41.8193  3.0315e+20
41.9366  2.92331e+20
42.0539  2.79482e+20
42.1712  2.64933e+20
42.2885  2.4921e+20
42.4059  2.32974e+20
42.5232  2.17218e+20
42.6405  2.03054e+20
42.7578  1.91505e+20
42.8751  1.83423e+20
42.9924  1.79196e+20
43.1097  1.78682e+20
43.227  1.81088e+20
43.3443  1.85256e+20
43.4616  1.89657e+20
43.5789  1.92935e+20
43.6962  1.94105e+20
43.8135  1.92793e+20
43.9308  1.89399e+20
44.0481  1.84772e+20
44.1654  1.80326e+20
44.2827  1.77601e+20
44.4  1.77846e+20
44.5173  1.81818e+20
44.6347  1.89671e+20
44.752  2.00871e+20
44.8693  2.14343e+20
44.9866  2.28749e+20
45.1039  2.42581e+20
45.2212  2.54416e+20
45.3385  2.63217e+20
45.4558  2.6819e+20
45.5731  2.6905e+20
45.6904  2.65764e+20
45.8077  2.58674e+20
45.925  2.48464e+20
46.0423  2.36074e+20
46.1596  2.22496e+20
46.2769  2.08839e+20
46.3942  1.96235e+20
46.5115  1.85502e+20
46.6288  1.7712e+20
46.7461  1.71207e+20
46.8634  1.67412e+20
46.9808  1.64934e+20
47.0981  1.62798e+20
47.2154  1.60043e+20
47.3327  1.55736e+20
47.45  1.49451e+20
47.5673  1.41138e+20
47.6846  1.3124e+20
47.8019  1.20404e+20
47.9192  1.09559e+20
48.0365  9.95671e+19
48.1538  9.1175e+19
48.2711  8.48861e+19
48.3884  8.09841e+19
48.5057  7.95898e+19
48.623  8.06887e+19
48.7403  8.43059e+19
48.8576  9.05167e+19
48.9749  9.93271e+19
49.0922  1.10768e+20
49.2095  1.24751e+20
49.3269  1.40907e+20
49.4442  1.58728e+20
49.5615  1.77399e+20
49.6788  1.9596e+20
49.7961  2.13314e+20
49.9134  2.28556e+20
50.0307  2.40723e+20
50.148  2.49186e+20
50.2653  2.53674e+20
50.3826  2.54033e+20
50.4999  2.50548e+20
50.6172  2.43676e+20
50.7345  2.34084e+20
50.8518  2.22537e+20
