#S 1 spectral density
#N 2
#UFWHM 15.2497
#L  abscissas [um]  spectral density
-58.5938  9.49374e+19
-58.4764  9.68676e+19
-58.3591  9.93828e+19
-58.2418  1.02158e+20
-58.1245  1.04731e+20
-58.0072  1.06784e+20
-57.8899  1.07869e+20
-57.7726  1.07809e+20
-57.6553  1.06632e+20
-57.538  1.04522e+20
-57.4207  1.01742e+20
-57.3034  9.87431e+19
-57.1861  9.58159e+19
-57.0688  9.32724e+19
-56.9515  9.11741e+19
-56.8342  8.96166e+19
-56.7169  8.84807e+19
-56.5996  8.77954e+19
-56.4823  8.75148e+19
-56.365  8.78133e+19
-56.2477  8.88813e+19
-56.1303  9.09485e+19
-56.013  9.42056e+19
-55.8957  9.87263e+19
-55.7784  1.04437e+20
-55.6611  1.11048e+20
-55.5438  1.18116e+20
-55.4265  1.25088e+20
-55.3092  1.31412e+20
-55.1919  1.36569e+20
-55.0746  1.40233e+20
-54.9573  1.42174e+20
-54.84  1.42405e+20
-54.7227  1.40991e+20
-54.6054  1.38268e+20
-54.4881  1.34505e+20
-54.3708  1.30029e+20
-54.2535  1.25157e+20
-54.1362  1.20252e+20
-54.0189  1.15643e+20
-53.9016  1.1152e+20
-53.7842  1.08158e+20
-53.6669  1.05759e+20
-53.5496  1.0451e+20
-53.4323  1.04475e+20
-53.315  1.05825e+20
-53.1977  1.0841e+20
-53.0804  1.12207e+20
-52.9631  1.17032e+20
-52.8458  1.22595e+20
-52.7285  1.28493e+20
-52.6112  1.34323e+20
-52.4939  1.39539e+20
-52.3766  1.43741e+20
-52.2593  1.46515e+20
-52.142  1.47696e+20
-52.0247  1.47092e+20
-51.9074  1.44924e+20
-51.7901  1.41329e+20
-51.6728  1.36723e+20
-51.5555  1.3151e+20
-51.4381  1.26023e+20
-51.3208  1.20605e+20
-51.2035  1.15509e+20
-51.0862  1.11019e+20
-50.9689  1.07318e+20
-50.8516  1.04625e+20
-50.7343  1.03254e+20
-50.617  1.03449e+20
-50.4997  1.0541e+20
-50.3824  1.09298e+20
-50.2651  1.14994e+20
-50.1478  1.22303e+20
-50.0305  1.30658e+20
-49.9132  1.39572e+20
-49.7959  1.48296e+20
-49.6786  1.56153e+20
-49.5613  1.62596e+20
-49.444  1.67338e+20
-49.3267  1.70222e+20
-49.2094  1.7127e+20
-49.092  1.70744e+20
-48.9747  1.68928e+20
-48.8574  1.66196e+20
-48.7401  1.62914e+20
-48.6228  1.59532e+20
-48.5055  1.56342e+20
-48.3882  1.53846e+20
-48.2709  1.52414e+20
-48.1536  1.52414e+20
-48.0363  1.54134e+20
-47.919  1.57666e+20
-47.8017  1.62887e+20
-47.6844  1.69512e+20
-47.5671  1.77046e+20
-47.4498  1.84845e+20
-47.3325  1.92197e+20
-47.2152  1.98513e+20
-47.0979  2.03251e+20
-46.9806  2.06115e+20
-46.8633  2.07019e+20
-46.7459  2.06022e+20
-46.6286  2.03374e+20
-46.5113  1.99425e+20
-46.394  1.94609e+20
-46.2767  1.89367e+20
-46.1594  1.84114e+20
-46.0421  1.79424e+20
-45.9248  1.7558e+20
-45.8075  1.72892e+20
-45.6902  1.71603e+20
-45.5729  1.71594e+20
-45.4556  1.72785e+20
-45.3383  1.74736e+20
-45.221  1.77192e+20
-45.1037  1.79709e+20
-44.9864  1.81949e+20
-44.8691  1.83672e+20
-44.7518  1.8495e+20
-44.6345  1.85862e+20
-44.5172  1.86588e+20
-44.3998  1.87367e+20
-44.2825  1.8835e+20
-44.1652  1.89522e+20
-44.0479  1.90829e+20
-43.9306  1.92115e+20
-43.8133  1.93161e+20
-43.696  1.93966e+20
-43.5787  1.94524e+20
-43.4614  1.95026e+20
-43.3441  1.9576e+20
-43.2268  1.96924e+20
-43.1095  1.98674e+20
-42.9922  2.01012e+20
-42.8749  2.03774e+20
-42.7576  2.06581e+20
-42.6403  2.09065e+20
-42.523  2.1084e+20
-42.4057  2.11718e+20
-42.2884  2.11665e+20
-42.171  2.10919e+20
-42.0537  2.09888e+20
-41.9364  2.09021e+20
-41.8191  2.08797e+20
-41.7018  2.09489e+20
-41.5845  2.11337e+20
-41.4672  2.14248e+20
-41.3499  2.18199e+20
-41.2326  2.22925e+20
-41.1153  2.2824e+20
-40.998  2.34052e+20
-40.8807  2.401e+20
-40.7634  2.46199e+20
-40.6461  2.5211e+20
-40.5288  2.57531e+20
-40.4115  2.62024e+20
-40.2942  2.65158e+20
-40.1769  2.664e+20
-40.0596  2.6558e+20
-39.9423  2.62648e+20
-39.825  2.57794e+20
-39.7076  2.51533e+20
-39.5903  2.44586e+20
-39.473  2.37648e+20
-39.3557  2.31517e+20
-39.2384  2.26651e+20
-39.1211  2.2343e+20
-39.0038  2.21963e+20
-38.8865  2.22187e+20
-38.7692  2.23977e+20
-38.6519  2.27164e+20
-38.5346  2.31531e+20
-38.4173  2.37013e+20
-38.3  2.43493e+20
-38.1827  2.5083e+20
-38.0654  2.5875e+20
-37.9481  2.66998e+20
-37.8308  2.75024e+20
-37.7135  2.82399e+20
-37.5962  2.88587e+20
-37.4789  2.93232e+20
-37.3615  2.96135e+20
-37.2442  2.97262e+20
-37.1269  2.96816e+20
-37.0096  2.95054e+20
-36.8923  2.92467e+20
-36.775  2.8936e+20
-36.6577  2.86181e+20
-36.5404  2.83184e+20
-36.4231  2.80625e+20
-36.3058  2.7878e+20
-36.1885  2.77742e+20
-36.0712  2.77635e+20
-35.9539  2.78691e+20
-35.8366  2.80994e+20
-35.7193  2.84557e+20
-35.602  2.89433e+20
-35.4847  2.95309e+20
-35.3674  3.02064e+20
-35.2501  3.09434e+20
-35.1328  3.17057e+20
-35.0154  3.24707e+20
-34.8981  3.32135e+20
-34.7808  3.39109e+20
-34.6635  3.45593e+20
-34.5462  3.51266e+20
-34.4289  3.56094e+20
-34.3116  3.59833e+20
-34.1943  3.62418e+20
-34.077  3.63763e+20
-33.9597  3.63907e+20
-33.8424  3.62902e+20
-33.7251  3.61124e+20
-33.6078  3.58892e+20
-33.4905  3.56625e+20
-33.3732  3.5473e+20
-33.2559  3.53635e+20
-33.1386  3.5352e+20
-33.0213  3.546e+20
-32.904  3.56925e+20
-32.7867  3.60545e+20
-32.6693  3.65338e+20
-32.552  3.71268e+20
-32.4347  3.78137e+20
-32.3174  3.85767e+20
-32.2001  3.93955e+20
-32.0828  4.02229e+20
-31.9655  4.10248e+20
-31.8482  4.17606e+20
-31.7309  4.2381e+20
-31.6136  4.28679e+20
-31.4963  4.3197e+20
-31.379  4.33724e+20
-31.2617  4.34281e+20
-31.1444  4.34138e+20
-31.0271  4.33884e+20
-30.9098  4.34356e+20
-30.7925  4.36213e+20
-30.6752  4.40163e+20
-30.5579  4.46763e+20
-30.4406  4.56278e+20
-30.3232  4.68812e+20
-30.2059  4.84049e+20
-30.0886  5.01387e+20
-29.9713  5.20153e+20
-29.854  5.39031e+20
-29.7367  5.56997e+20
-29.6194  5.72691e+20
-29.5021  5.85113e+20
-29.3848  5.93388e+20
-29.2675  5.97114e+20
-29.1502  5.95986e+20
-29.0329  5.90623e+20
-28.9156  5.81649e+20
-28.7983  5.70089e+20
-28.681  5.57199e+20
-28.5637  5.44285e+20
-28.4464  5.32646e+20
-28.3291  5.23518e+20
-28.2118  5.17907e+20
-28.0944  5.1677e+20
-27.9771  5.20404e+20
-27.8598  5.29025e+20
-27.7425  5.42176e+20
-27.6252  5.58996e+20
-27.5079  5.78302e+20
-27.3906  5.98224e+20
-27.2733  6.17107e+20
-27.156  6.33391e+20
-27.0387  6.45434e+20
-26.9214  6.52649e+20
-26.8041  6.54643e+20
-26.6868  6.51805e+20
-26.5695  6.45019e+20
-26.4522  6.35594e+20
-26.3349  6.24969e+20
-26.2176  6.14645e+20
-26.1003  6.05898e+20
-25.983  5.99731e+20
-25.8657  5.96849e+20
-25.7483  5.97754e+20
-25.631  6.02612e+20
-25.5137  6.11391e+20
-25.3964  6.23634e+20
-25.2791  6.38998e+20
-25.1618  6.5645e+20
-25.0445  6.75157e+20
-24.9272  6.93833e+20
-24.8099  7.11472e+20
-24.6926  7.27106e+20
-24.5753  7.40228e+20
-24.458  7.5033e+20
-24.3407  7.57994e+20
-24.2234  7.63743e+20
-24.1061  7.68472e+20
-23.9888  7.73307e+20
-23.8715  7.7913e+20
-23.7542  7.86714e+20
-23.6369  7.96558e+20
-23.5196  8.08797e+20
-23.4023  8.23448e+20
-23.2849  8.40088e+20
-23.1676  8.58398e+20
-23.0503  8.77771e+20
-22.933  8.97603e+20
-22.8157  9.17357e+20
-22.6984  9.36134e+20
-22.5811  9.53466e+20
-22.4638  9.69022e+20
-22.3465  9.8248e+20
-22.2292  9.94274e+20
-22.1119  1.00492e+21
-21.9946  1.01531e+21
-21.8773  1.0265e+21
-21.76  1.03959e+21
-21.6427  1.05538e+21
-21.5254  1.07427e+21
-21.4081  1.0964e+21
-21.2908  1.12118e+21
-21.1735  1.14776e+21
-21.0561  1.17544e+21
-20.9388  1.20323e+21
-20.8215  1.23044e+21
-20.7042  1.25682e+21
-20.5869  1.28237e+21
-20.4696  1.30709e+21
-20.3523  1.33141e+21
-20.235  1.35541e+21
-20.1177  1.37938e+21
-20.0004  1.40366e+21
-19.8831  1.42831e+21
-19.7658  1.45366e+21
-19.6485  1.48038e+21
-19.5312  1.5091e+21
-19.4139  1.54023e+21
-19.2966  1.57455e+21
-19.1793  1.61194e+21
-19.062  1.65209e+21
-18.9447  1.69407e+21
-18.8274  1.73643e+21
-18.71  1.77733e+21
-18.5927  1.81503e+21
-18.4754  1.8481e+21
-18.3581  1.87531e+21
-18.2408  1.89658e+21
-18.1235  1.91231e+21
-18.0062  1.9233e+21
-17.8889  1.93107e+21
-17.7716  1.93742e+21
-17.6543  1.94403e+21
-17.537  1.95262e+21
-17.4197  1.96466e+21
-17.3024  1.98133e+21
-17.1851  2.0035e+21
-17.0678  2.03194e+21
-16.9505  2.06688e+21
-16.8332  2.10826e+21
-16.7159  2.15602e+21
-16.5986  2.20931e+21
-16.4813  2.26715e+21
-16.364  2.32869e+21
-16.2466  2.3925e+21
-16.1293  2.45714e+21
-16.012  2.52224e+21
-15.8947  2.58712e+21
-15.7774  2.65178e+21
-15.6601  2.71692e+21
-15.5428  2.78339e+21
-15.4255  2.85249e+21
-15.3082  2.92609e+21
-15.1909  3.00513e+21
-15.0736  3.09127e+21
-14.9563  3.18555e+21
-14.839  3.28906e+21
-14.7217  3.40166e+21
-14.6044  3.5239e+21
-14.4871  3.65527e+21
-14.3698  3.79519e+21
-14.2525  3.94274e+21
-14.1352  4.09698e+21
-14.0178  4.25677e+21
-13.9005  4.42135e+21
-13.7832  4.59025e+21
-13.6659  4.7628e+21
-13.5486  4.94002e+21
-13.4313  5.12213e+21
-13.314  5.3103e+21
-13.1967  5.50592e+21
-13.0794  5.71043e+21
-12.9621  5.92566e+21
-12.8448  6.15275e+21
-12.7275  6.39283e+21
-12.6102  6.64663e+21
-12.4929  6.91469e+21
-12.3756  7.1966e+21
-12.2583  7.49182e+21
-12.141  7.79922e+21
-12.0237  8.11784e+21
-11.9064  8.44573e+21
-11.7891  8.78158e+21
-11.6718  9.12431e+21
-11.5544  9.4728e+21
-11.4371  9.82609e+21
-11.3198  1.0185e+22
-11.2025  1.055e+22
-11.0852  1.09227e+22
-10.9679  1.13051e+22
-10.8506  1.16994e+22
-10.7333  1.21078e+22
-10.616  1.25331e+22
-10.4987  1.2976e+22
-10.3814  1.34379e+22
-10.2641  1.39192e+22
-10.1468  1.44193e+22
-10.0295  1.4936e+22
-9.91217  1.54677e+22
-9.79487  1.60111e+22
-9.67756  1.65626e+22
-9.56026  1.71183e+22
-9.44295  1.76748e+22
-9.32565  1.82282e+22
-9.20834  1.8776e+22
-9.09104  1.93164e+22
-8.97373  1.9848e+22
-8.85643  2.0373e+22
-8.73913  2.08917e+22
-8.62182  2.14077e+22
-8.50452  2.19249e+22
-8.38721  2.24473e+22
-8.26991  2.29798e+22
-8.1526  2.35262e+22
-8.03529  2.40896e+22
-7.91799  2.46722e+22
-7.80069  2.52756e+22
-7.68338  2.58985e+22
-7.56608  2.65394e+22
-7.44877  2.71945e+22
-7.33146  2.78598e+22
-7.21416  2.85296e+22
-7.09685  2.91985e+22
-6.97955  2.98606e+22
-6.86224  3.05109e+22
-6.74494  3.11449e+22
-6.62763  3.17599e+22
-6.51033  3.23544e+22
-6.39302  3.29287e+22
-6.27572  3.34844e+22
-6.15842  3.40247e+22
-6.04111  3.45528e+22
-5.92381  3.50743e+22
-5.8065  3.55924e+22
-5.68919  3.61115e+22
-5.57189  3.66352e+22
-5.45458  3.71652e+22
-5.33728  3.77024e+22
-5.21997  3.8247e+22
-5.10267  3.87967e+22
-4.98536  3.93486e+22
-4.86806  3.98988e+22
-4.75075  4.04431e+22
-4.63345  4.09766e+22
-4.51614  4.14953e+22
-4.39884  4.19955e+22
-4.28154  4.2475e+22
-4.16423  4.29336e+22
-4.04692  4.33709e+22
-3.92962  4.3789e+22
-3.81231  4.41907e+22
-3.69501  4.45788e+22
-3.5777  4.49568e+22
-3.4604  4.53272e+22
-3.34309  4.56919e+22
-3.22579  4.60518e+22
-3.10849  4.64078e+22
-2.99118  4.6759e+22
-2.87387  4.71044e+22
-2.75657  4.74423e+22
-2.63926  4.77708e+22
-2.52196  4.80878e+22
-2.40465  4.83915e+22
-2.28735  4.86797e+22
-2.17005  4.89517e+22
-2.05274  4.9207e+22
-1.93544  4.94456e+22
-1.81813  4.96693e+22
-1.70083  4.98797e+22
-1.58352  5.00795e+22
-1.46622  5.02715e+22
-1.34891  5.04579e+22
-1.2316  5.06409e+22
-1.1143  5.08207e+22
-0.996995  5.09969e+22
-0.87969  5.11676e+22
-0.762385  5.13294e+22
-0.64508  5.14789e+22
-0.527775  5.16122e+22
-0.41047  5.17247e+22
-0.293165  5.1813e+22
-0.17586  5.18744e+22
-0.058555  5.19068e+22
0.05875  5.19091e+22
0.176055  5.18816e+22
0.29336  5.18251e+22
0.410665  5.1742e+22
0.52797  5.16347e+22
0.645275  5.15072e+22
0.76258  5.13635e+22
0.879885  5.12079e+22
0.99719  5.10439e+22
1.1145  5.08745e+22
1.2318  5.07015e+22
1.3491  5.05256e+22
1.46641  5.03459e+22
1.58371  5.01604e+22
1.70102  4.99671e+22
1.81832  4.9763e+22
1.93563  4.95455e+22
2.05294  4.93124e+22
2.17024  4.90629e+22
2.28754  4.87965e+22
2.40485  4.85134e+22
2.52216  4.8215e+22
2.63946  4.79033e+22
2.75677  4.758e+22
2.87407  4.72475e+22
2.99137  4.69075e+22
3.10868  4.65616e+22
3.22599  4.62109e+22
3.34329  4.58562e+22
3.4606  4.54967e+22
3.5779  4.51317e+22
3.69521  4.47589e+22
3.81251  4.43756e+22
3.92982  4.39783e+22
4.04712  4.35644e+22
4.16443  4.31312e+22
4.28173  4.26767e+22
4.39903  4.22004e+22
4.51634  4.17037e+22
4.63364  4.11886e+22
4.75095  4.06585e+22
4.86825  4.01178e+22
4.98556  3.95712e+22
5.10286  3.90233e+22
5.22017  3.8477e+22
5.33748  3.79364e+22
5.45478  3.74026e+22
5.57209  3.68761e+22
5.68939  3.63562e+22
5.8067  3.584e+22
5.924  3.53246e+22
6.0413  3.4806e+22
6.15861  3.42799e+22
6.27591  3.3741e+22
6.39322  3.31866e+22
6.51052  3.2613e+22
6.62783  3.2019e+22
6.74514  3.14039e+22
6.86244  3.07697e+22
6.97975  3.01192e+22
7.09705  2.94566e+22
7.21436  2.8787e+22
7.33166  2.81166e+22
7.44897  2.74509e+22
7.56627  2.67952e+22
7.68358  2.61541e+22
7.80088  2.55306e+22
7.91819  2.49268e+22
8.03549  2.43436e+22
8.1528  2.3779e+22
8.2701  2.32318e+22
8.38741  2.26983e+22
8.50471  2.2174e+22
8.62202  2.16549e+22
8.73932  2.11367e+22
8.85662  2.06151e+22
8.97393  2.00876e+22
9.09123  1.95521e+22
9.20854  1.90084e+22
9.32584  1.84568e+22
9.44315  1.78995e+22
9.56045  1.73393e+22
9.67776  1.67797e+22
9.79506  1.62248e+22
9.91237  1.56773e+22
10.0297  1.5142e+22
10.147  1.46214e+22
10.2643  1.41177e+22
10.3816  1.3633e+22
10.4989  1.3167e+22
10.6162  1.27203e+22
10.7335  1.22913e+22
10.8508  1.1879e+22
10.9681  1.14804e+22
11.0854  1.10938e+22
11.2027  1.07166e+22
11.32  1.03472e+22
11.4373  9.98357e+21
11.5546  9.62531e+21
11.6719  9.27219e+21
11.7893  8.92473e+21
11.9066  8.58389e+21
12.0239  8.25113e+21
12.1412  7.92804e+21
12.2585  7.61589e+21
12.3758  7.31625e+21
12.4931  7.02996e+21
12.6104  6.75761e+21
12.7277  6.49959e+21
12.845  6.255e+21
12.9623  6.02389e+21
13.0796  5.80477e+21
13.1969  5.59589e+21
13.3142  5.3964e+21
13.4315  5.20441e+21
13.5488  5.01825e+21
13.6661  4.83744e+21
13.7834  4.6609e+21
13.9007  4.48857e+21
14.018  4.32037e+21
14.1354  4.15735e+21
14.2527  4.00004e+21
14.37  3.84961e+21
14.4873  3.70698e+21
14.6046  3.57299e+21
14.7219  3.44831e+21
14.8392  3.33318e+21
14.9565  3.22742e+21
15.0738  3.13104e+21
15.1911  3.04263e+21
15.3084  2.9615e+21
15.4257  2.88594e+21
15.543  2.81483e+21
15.6603  2.74636e+21
15.7776  2.67929e+21
15.8949  2.61274e+21
16.0122  2.54627e+21
16.1295  2.47958e+21
16.2468  2.41322e+21
16.3641  2.34818e+21
16.4815  2.28553e+21
16.5988  2.22647e+21
16.7161  2.17235e+21
16.8334  2.1239e+21
16.9507  2.08179e+21
17.068  2.04637e+21
17.1853  2.01758e+21
17.3026  1.99499e+21
17.4199  1.97808e+21
17.5372  1.96559e+21
17.6545  1.9568e+21
17.7718  1.94993e+21
17.8891  1.94316e+21
18.0064  1.93506e+21
18.1237  1.92382e+21
18.241  1.90763e+21
18.3583  1.88605e+21
18.4756  1.85834e+21
18.5929  1.82499e+21
18.7102  1.78694e+21
18.8275  1.74593e+21
18.9449  1.70352e+21
19.0622  1.66158e+21
19.1795  1.62144e+21
19.2968  1.58424e+21
19.4141  1.55004e+21
19.5314  1.51889e+21
19.6487  1.49024e+21
19.766  1.46364e+21
19.8833  1.43821e+21
20.0006  1.41364e+21
20.1179  1.3894e+21
20.2352  1.36539e+21
20.3525  1.34134e+21
20.4698  1.317e+21
20.5871  1.29218e+21
20.7044  1.26666e+21
20.8217  1.24015e+21
20.939  1.21277e+21
21.0563  1.18495e+21
21.1736  1.15727e+21
21.291  1.13048e+21
21.4083  1.10578e+21
21.5256  1.08365e+21
21.6429  1.06468e+21
21.7602  1.04885e+21
21.8775  1.0357e+21
21.9948  1.02432e+21
22.1121  1.01386e+21
22.2294  1.00295e+21
22.3467  9.90952e+20
22.464  9.77145e+20
22.5813  9.61315e+20
22.6986  9.43628e+20
22.8159  9.24635e+20
22.9332  9.04646e+20
23.0505  8.84623e+20
23.1678  8.64969e+20
23.2851  8.46443e+20
23.4024  8.29607e+20
23.5198  8.14853e+20
23.6371  8.02399e+20
23.7544  7.92456e+20
23.8717  7.8466e+20
23.989  7.78771e+20
24.1063  7.73722e+20
24.2236  7.68682e+20
24.3409  7.62668e+20
24.4582  7.54676e+20
24.5755  7.44142e+20
24.6928  7.30792e+20
24.8101  7.14823e+20
24.9274  6.96866e+20
25.0447  6.77899e+20
25.162  6.59026e+20
25.2793  6.41382e+20
25.3966  6.26019e+20
25.5139  6.1361e+20
25.6312  6.04818e+20
25.7485  5.99993e+20
25.8658  5.9915e+20
25.9832  6.02059e+20
26.1005  6.08289e+20
26.2178  6.17039e+20
26.3351  6.27416e+20
26.4524  6.37985e+20
26.5697  6.47318e+20
26.687  6.53889e+20
26.8043  6.5667e+20
26.9216  6.54507e+20
27.0389  6.47117e+20
27.1562  6.34762e+20
27.2735  6.18386e+20
27.3908  5.99305e+20
27.5081  5.79343e+20
27.6254  5.60117e+20
27.7427  5.43415e+20
27.86  5.30351e+20
27.9773  5.21878e+20
28.0946  5.18443e+20
28.212  5.19832e+20
28.3293  5.25551e+20
28.4466  5.3493e+20
28.5639  5.46667e+20
28.6812  5.59805e+20
28.7985  5.72734e+20
28.9158  5.84289e+20
29.0331  5.93306e+20
29.1504  5.98559e+20
29.2677  5.99557e+20
29.385  5.95789e+20
29.5023  5.87404e+20
29.6196  5.74846e+20
29.7369  5.59025e+20
29.8542  5.41026e+20
29.9715  5.22042e+20
30.0888  5.03423e+20
30.2061  4.86022e+20
30.3234  4.70821e+20
30.4407  4.58416e+20
30.558  4.48971e+20
30.6754  4.4252e+20
30.7927  4.38588e+20
30.91  4.36719e+20
31.0273  4.36343e+20
31.1446  4.3658e+20
31.2619  4.36663e+20
31.3792  4.3599e+20
31.4965  4.34164e+20
31.6138  4.30794e+20
31.7311  4.25837e+20
31.8484  4.19454e+20
31.9657  4.12016e+20
32.083  4.03886e+20
32.2003  3.95528e+20
32.3176  3.87329e+20
32.4349  3.79678e+20
32.5522  3.72779e+20
32.6695  3.66848e+20
32.7868  3.62041e+20
32.9042  3.58432e+20
33.0215  3.56063e+20
33.1388  3.55027e+20
33.2561  3.55118e+20
33.3734  3.56249e+20
33.4907  3.58083e+20
33.608  3.60253e+20
33.7253  3.62451e+20
33.8426  3.64085e+20
33.9599  3.64964e+20
34.0772  3.64729e+20
34.1945  3.63301e+20
34.3118  3.60599e+20
34.4291  3.56736e+20
34.5464  3.51826e+20
34.6637  3.46037e+20
34.781  3.39643e+20
34.8983  3.32581e+20
35.0156  3.25141e+20
35.1329  3.17523e+20
35.2503  3.09879e+20
35.3676  3.02622e+20
35.4849  2.95853e+20
35.6022  2.89951e+20
35.7195  2.85224e+20
35.8368  2.81703e+20
35.9541  2.79411e+20
36.0714  2.78369e+20
36.1887  2.78474e+20
36.306  2.79547e+20
36.4233  2.81441e+20
36.5406  2.83951e+20
36.6579  2.86916e+20
36.7752  2.90096e+20
36.8925  2.93164e+20
37.0098  2.95744e+20
37.1271  2.97469e+20
37.2444  2.97892e+20
37.3617  2.96733e+20
37.479  2.93793e+20
37.5964  2.89098e+20
37.7137  2.82872e+20
37.831  2.7551e+20
37.9483  2.67512e+20
38.0656  2.59302e+20
38.1829  2.5139e+20
38.3002  2.44079e+20
38.4175  2.37683e+20
38.5348  2.32214e+20
38.6521  2.27887e+20
38.7694  2.24781e+20
38.8867  2.23075e+20
39.004  2.229e+20
39.1213  2.24425e+20
39.2386  2.27681e+20
39.3559  2.32602e+20
39.4732  2.38847e+20
39.5905  2.45779e+20
39.7078  2.52739e+20
39.8251  2.58963e+20
39.9425  2.63722e+20
40.0598  2.66627e+20
40.1771  2.67348e+20
40.2944  2.65989e+20
40.4117  2.62856e+20
40.529  2.58332e+20
40.6463  2.52863e+20
40.7636  2.46913e+20
40.8809  2.40768e+20
40.9982  2.34736e+20
41.1155  2.28975e+20
41.2328  2.23644e+20
41.3501  2.1889e+20
41.4674  2.14977e+20
41.5847  2.12065e+20
41.702  2.10246e+20
41.8193  2.09562e+20
41.9366  2.09806e+20
42.0539  2.10672e+20
42.1712  2.11671e+20
42.2885  2.12365e+20
42.4059  2.12358e+20
42.5232  2.11409e+20
42.6405  2.09593e+20
42.7578  2.07036e+20
42.8751  2.042e+20
42.9924  2.01382e+20
43.1097  1.99023e+20
43.227  1.97262e+20
43.3443  1.96087e+20
43.4616  1.95388e+20
43.5789  1.94865e+20
43.6962  1.94296e+20
43.8135  1.93445e+20
43.9308  1.92339e+20
44.0481  1.911e+20
44.1654  1.8979e+20
44.2827  1.88603e+20
44.4  1.8764e+20
44.5173  1.86857e+20
44.6347  1.86067e+20
44.752  1.85163e+20
44.8693  1.83843e+20
44.9866  1.8206e+20
45.1039  1.79814e+20
45.2212  1.77314e+20
45.3385  1.74855e+20
45.4558  1.72874e+20
45.5731  1.71722e+20
45.6904  1.71782e+20
45.8077  1.73188e+20
45.925  1.75931e+20
46.0423  1.79808e+20
46.1596  1.84587e+20
46.2769  1.89838e+20
46.3942  1.95128e+20
46.5115  1.99959e+20
46.6288  2.03917e+20
46.7461  2.06547e+20
46.8634  2.07496e+20
46.9808  2.0659e+20
47.0981  2.03658e+20
47.2154  1.98856e+20
47.3327  1.9251e+20
47.45  1.85125e+20
47.5673  1.77348e+20
47.6846  1.69796e+20
47.8019  1.63187e+20
47.9192  1.58023e+20
48.0365  1.54558e+20
48.1538  1.52935e+20
48.2711  1.52981e+20
48.3884  1.54492e+20
48.5057  1.56991e+20
48.623  1.60175e+20
48.7403  1.63644e+20
48.8576  1.66885e+20
48.9749  1.69585e+20
49.0922  1.71367e+20
49.2095  1.71843e+20
49.3269  1.70669e+20
49.4442  1.67738e+20
49.5615  1.62896e+20
49.6788  1.56353e+20
49.7961  1.48426e+20
49.9134  1.39685e+20
50.0307  1.30755e+20
50.148  1.22358e+20
50.2653  1.15077e+20
50.3826  1.09407e+20
50.4999  1.05591e+20
50.6172  1.03685e+20
50.7345  1.03542e+20
50.8518  1.04966e+20
