#S 1 spectral density
#N 2
#UFWHM 29.3263
#L  abscissas [um]  spectral density
-58.5938  7.67425e+19
-58.4764  7.85879e+19
-58.3591  8.25549e+19
-58.2418  8.77614e+19
-58.1245  9.3236e+19
-58.0072  9.82502e+19
-57.8899  1.02244e+20
-57.7726  1.05191e+20
-57.6553  1.07542e+20
-57.538  1.10112e+20
-57.4207  1.13886e+20
-57.3034  1.19832e+20
-57.1861  1.28609e+20
-57.0688  1.40326e+20
-56.9515  1.54586e+20
-56.8342  1.7039e+20
-56.7169  1.86427e+20
-56.5996  2.01171e+20
-56.4823  2.13329e+20
-56.365  2.21963e+20
-56.2477  2.26588e+20
-56.1303  2.27149e+20
-56.013  2.24277e+20
-55.8957  2.18659e+20
-55.7784  2.11329e+20
-55.6611  2.03053e+20
-55.5438  1.94636e+20
-55.4265  1.86606e+20
-55.3092  1.79356e+20
-55.1919  1.72997e+20
-55.0746  1.67709e+20
-54.9573  1.63428e+20
-54.84  1.60303e+20
-54.7227  1.58221e+20
-54.6054  1.57246e+20
-54.4881  1.57221e+20
-54.3708  1.58009e+20
-54.2535  1.59404e+20
-54.1362  1.61166e+20
-54.0189  1.63101e+20
-53.9016  1.64984e+20
-53.7842  1.66705e+20
-53.6669  1.68236e+20
-53.5496  1.69726e+20
-53.4323  1.71349e+20
-53.315  1.73402e+20
-53.1977  1.76091e+20
-53.0804  1.79743e+20
-52.9631  1.84472e+20
-52.8458  1.90197e+20
-52.7285  1.96766e+20
-52.6112  2.03811e+20
-52.4939  2.10795e+20
-52.3766  2.17136e+20
-52.2593  2.22317e+20
-52.142  2.26021e+20
-52.0247  2.27937e+20
-51.9074  2.28337e+20
-51.7901  2.27388e+20
-51.6728  2.25808e+20
-51.5555  2.24237e+20
-51.4381  2.2333e+20
-51.3208  2.23678e+20
-51.2035  2.25493e+20
-51.0862  2.29002e+20
-50.9689  2.33873e+20
-50.8516  2.39659e+20
-50.7343  2.45645e+20
-50.617  2.51047e+20
-50.4997  2.54979e+20
-50.3824  2.56618e+20
-50.2651  2.55375e+20
-50.1478  2.50987e+20
-50.0305  2.43542e+20
-49.9132  2.33638e+20
-49.7959  2.22171e+20
-49.6786  2.1058e+20
-49.5613  2.00387e+20
-49.444  1.93146e+20
-49.3267  1.90145e+20
-49.2094  1.92149e+20
-49.092  1.99313e+20
-48.9747  2.10982e+20
-48.8574  2.25932e+20
-48.7401  2.42571e+20
-48.6228  2.58984e+20
-48.5055  2.73527e+20
-48.3882  2.85045e+20
-48.2709  2.9275e+20
-48.1536  2.96581e+20
-48.0363  2.97134e+20
-47.919  2.95304e+20
-47.8017  2.9221e+20
-47.6844  2.88928e+20
-47.5671  2.86374e+20
-47.4498  2.85186e+20
-47.3325  2.85523e+20
-47.2152  2.87381e+20
-47.0979  2.90396e+20
-46.9806  2.93931e+20
-46.8633  2.97336e+20
-46.7459  2.99971e+20
-46.6286  3.01141e+20
-46.5113  3.00358e+20
-46.394  2.97281e+20
-46.2767  2.91987e+20
-46.1594  2.84805e+20
-46.0421  2.76328e+20
-45.9248  2.67364e+20
-45.8075  2.58853e+20
-45.6902  2.51555e+20
-45.5729  2.46162e+20
-45.4556  2.42802e+20
-45.3383  2.41503e+20
-45.221  2.41757e+20
-45.1037  2.43017e+20
-44.9864  2.44745e+20
-44.8691  2.46293e+20
-44.7518  2.47325e+20
-44.6345  2.47748e+20
-44.5172  2.47668e+20
-44.3998  2.47224e+20
-44.2825  2.46713e+20
-44.1652  2.46212e+20
-44.0479  2.45959e+20
-43.9306  2.46088e+20
-43.8133  2.46851e+20
-43.696  2.48752e+20
-43.5787  2.52335e+20
-43.4614  2.58355e+20
-43.3441  2.67701e+20
-43.2268  2.80938e+20
-43.1095  2.98425e+20
-42.9922  3.19924e+20
-42.8749  3.4479e+20
-42.7576  3.71671e+20
-42.6403  3.99172e+20
-42.523  4.25514e+20
-42.4057  4.49238e+20
-42.2884  4.69039e+20
-42.171  4.84237e+20
-42.0537  4.94736e+20
-41.9364  5.00829e+20
-41.8191  5.03226e+20
-41.7018  5.02603e+20
-41.5845  5.00074e+20
-41.4672  4.96376e+20
-41.3499  4.92207e+20
-41.2326  4.88064e+20
-41.1153  4.84271e+20
-40.998  4.81038e+20
-40.8807  4.78379e+20
-40.7634  4.76162e+20
-40.6461  4.74423e+20
-40.5288  4.72862e+20
-40.4115  4.71588e+20
-40.2942  4.70849e+20
-40.1769  4.70758e+20
-40.0596  4.71983e+20
-39.9423  4.75342e+20
-39.825  4.81445e+20
-39.7076  4.9098e+20
-39.5903  5.04253e+20
-39.473  5.20992e+20
-39.3557  5.40346e+20
-39.2384  5.60894e+20
-39.1211  5.807e+20
-39.0038  5.97655e+20
-38.8865  6.09878e+20
-38.7692  6.15983e+20
-38.6519  6.15467e+20
-38.5346  6.08545e+20
-38.4173  5.9656e+20
-38.3  5.81487e+20
-38.1827  5.65753e+20
-38.0654  5.51963e+20
-37.9481  5.42346e+20
-37.8308  5.38774e+20
-37.7135  5.42217e+20
-37.5962  5.52949e+20
-37.4789  5.70667e+20
-37.3615  5.94073e+20
-37.2442  6.217e+20
-37.1269  6.51783e+20
-37.0096  6.82136e+20
-36.8923  7.11095e+20
-36.775  7.36813e+20
-36.6577  7.58173e+20
-36.5404  7.74213e+20
-36.4231  7.84602e+20
-36.3058  7.89762e+20
-36.1885  7.90279e+20
-36.0712  7.87341e+20
-35.9539  7.82153e+20
-35.8366  7.76011e+20
-35.7193  7.70096e+20
-35.602  7.65125e+20
-35.4847  7.61279e+20
-35.3674  7.58586e+20
-35.2501  7.56339e+20
-35.1328  7.53648e+20
-35.0154  7.49879e+20
-34.8981  7.44092e+20
-34.7808  7.35743e+20
-34.6635  7.24627e+20
-34.5462  7.11008e+20
-34.4289  6.95272e+20
-34.3116  6.78563e+20
-34.1943  6.62158e+20
-34.077  6.47734e+20
-33.9597  6.37162e+20
-33.8424  6.32044e+20
-33.7251  6.34035e+20
-33.6078  6.44303e+20
-33.4905  6.63287e+20
-33.3732  6.90807e+20
-33.2559  7.25513e+20
-33.1386  7.65695e+20
-33.0213  8.08609e+20
-32.904  8.51252e+20
-32.7867  8.90994e+20
-32.6693  9.24945e+20
-32.552  9.51416e+20
-32.4347  9.69455e+20
-32.3174  9.78918e+20
-32.2001  9.80973e+20
-32.0828  9.77158e+20
-31.9655  9.69823e+20
-31.8482  9.61418e+20
-31.7309  9.53946e+20
-31.6136  9.49509e+20
-31.4963  9.4922e+20
-31.379  9.53615e+20
-31.2617  9.62197e+20
-31.1444  9.74285e+20
-31.0271  9.88506e+20
-30.9098  1.0033e+21
-30.7925  1.01732e+21
-30.6752  1.0294e+21
-30.5579  1.03872e+21
-30.4406  1.04546e+21
-30.3232  1.05026e+21
-30.2059  1.05433e+21
-30.0886  1.0589e+21
-29.9713  1.06561e+21
-29.854  1.07577e+21
-29.7367  1.09023e+21
-29.6194  1.10944e+21
-29.5021  1.13304e+21
-29.3848  1.16028e+21
-29.2675  1.18999e+21
-29.1502  1.22056e+21
-29.0329  1.25054e+21
-28.9156  1.27865e+21
-28.7983  1.30381e+21
-28.681  1.32559e+21
-28.5637  1.34399e+21
-28.4464  1.35979e+21
-28.3291  1.37405e+21
-28.2118  1.38833e+21
-28.0944  1.40443e+21
-27.9771  1.42398e+21
-27.8598  1.4484e+21
-27.7425  1.47865e+21
-27.6252  1.51483e+21
-27.5079  1.55657e+21
-27.3906  1.60261e+21
-27.2733  1.65146e+21
-27.156  1.70153e+21
-27.0387  1.75107e+21
-26.9214  1.79902e+21
-26.8041  1.84473e+21
-26.6868  1.88806e+21
-26.5695  1.9293e+21
-26.4522  1.96909e+21
-26.3349  2.00853e+21
-26.2176  2.04836e+21
-26.1003  2.0898e+21
-25.983  2.13336e+21
-25.8657  2.17997e+21
-25.7483  2.23051e+21
-25.631  2.28536e+21
-25.5137  2.34528e+21
-25.3964  2.41035e+21
-25.2791  2.48042e+21
-25.1618  2.55499e+21
-25.0445  2.63322e+21
-24.9272  2.71374e+21
-24.8099  2.79514e+21
-24.6926  2.87642e+21
-24.5753  2.95682e+21
-24.458  3.03603e+21
-24.3407  3.11437e+21
-24.2234  3.19306e+21
-24.1061  3.27291e+21
-23.9888  3.35503e+21
-23.8715  3.44026e+21
-23.7542  3.52879e+21
-23.6369  3.62008e+21
-23.5196  3.71323e+21
-23.4023  3.80684e+21
-23.2849  3.89934e+21
-23.1676  3.98917e+21
-23.0503  4.07516e+21
-22.933  4.15699e+21
-22.8157  4.23436e+21
-22.6984  4.30808e+21
-22.5811  4.3792e+21
-22.4638  4.45013e+21
-22.3465  4.52317e+21
-22.2292  4.60148e+21
-22.1119  4.68775e+21
-21.9946  4.78473e+21
-21.8773  4.89419e+21
-21.76  5.01633e+21
-21.6427  5.15013e+21
-21.5254  5.29245e+21
-21.4081  5.43923e+21
-21.2908  5.58454e+21
-21.1735  5.7226e+21
-21.0561  5.848e+21
-20.9388  5.95614e+21
-20.8215  6.0448e+21
-20.7042  6.11377e+21
-20.5869  6.16509e+21
-20.4696  6.20332e+21
-20.3523  6.2346e+21
-20.235  6.2657e+21
-20.1177  6.30391e+21
-20.0004  6.35643e+21
-19.8831  6.42928e+21
-19.7658  6.52699e+21
-19.6485  6.65249e+21
-19.5312  6.80715e+21
-19.4139  6.9897e+21
-19.2966  7.19696e+21
-19.1793  7.4245e+21
-19.062  7.66529e+21
-18.9447  7.9117e+21
-18.8274  8.15555e+21
-18.71  8.38902e+21
-18.5927  8.60513e+21
-18.4754  8.79873e+21
-18.3581  8.96673e+21
-18.2408  9.1097e+21
-18.1235  9.22885e+21
-18.0062  9.32878e+21
-17.8889  9.41498e+21
-17.7716  9.49425e+21
-17.6543  9.57281e+21
-17.537  9.65705e+21
-17.4197  9.75125e+21
-17.3024  9.85934e+21
-17.1851  9.98327e+21
-17.0678  1.01232e+22
-16.9505  1.02783e+22
-16.8332  1.04467e+22
-16.7159  1.06256e+22
-16.5986  1.0812e+22
-16.4813  1.10033e+22
-16.364  1.11973e+22
-16.2466  1.13924e+22
-16.1293  1.15886e+22
-16.012  1.17864e+22
-15.8947  1.19873e+22
-15.7774  1.21938e+22
-15.6601  1.24082e+22
-15.5428  1.26323e+22
-15.4255  1.28673e+22
-15.3082  1.31128e+22
-15.1909  1.33674e+22
-15.0736  1.36276e+22
-14.9563  1.3889e+22
-14.839  1.41465e+22
-14.7217  1.43944e+22
-14.6044  1.46268e+22
-14.4871  1.48399e+22
-14.3698  1.50295e+22
-14.2525  1.5194e+22
-14.1352  1.53332e+22
-14.0178  1.54492e+22
-13.9005  1.55449e+22
-13.7832  1.56252e+22
-13.6659  1.56952e+22
-13.5486  1.57617e+22
-13.4313  1.58294e+22
-13.314  1.59041e+22
-13.1967  1.59897e+22
-13.0794  1.60894e+22
-12.9621  1.62041e+22
-12.8448  1.63343e+22
-12.7275  1.64781e+22
-12.6102  1.66344e+22
-12.4929  1.68004e+22
-12.3756  1.69737e+22
-12.2583  1.71523e+22
-12.141  1.73348e+22
-12.0237  1.75204e+22
-11.9064  1.77091e+22
-11.7891  1.79021e+22
-11.6718  1.81007e+22
-11.5544  1.83074e+22
-11.4371  1.85246e+22
-11.3198  1.87539e+22
-11.2025  1.89972e+22
-11.0852  1.92551e+22
-10.9679  1.95272e+22
-10.8506  1.98115e+22
-10.7333  2.01046e+22
-10.616  2.04015e+22
-10.4987  2.06968e+22
-10.3814  2.09839e+22
-10.2641  2.12563e+22
-10.1468  2.15084e+22
-10.0295  2.17356e+22
-9.91217  2.19347e+22
-9.79487  2.21056e+22
-9.67756  2.22487e+22
-9.56026  2.23676e+22
-9.44295  2.24666e+22
-9.32565  2.25522e+22
-9.20834  2.26306e+22
-9.09104  2.27077e+22
-8.97373  2.27895e+22
-8.85643  2.28809e+22
-8.73913  2.29841e+22
-8.62182  2.31011e+22
-8.50452  2.32316e+22
-8.38721  2.33742e+22
-8.26991  2.35256e+22
-8.1526  2.36826e+22
-8.03529  2.38408e+22
-7.91799  2.3997e+22
-7.80069  2.41486e+22
-7.68338  2.42934e+22
-7.56608  2.4431e+22
-7.44877  2.45622e+22
-7.33146  2.46879e+22
-7.21416  2.48102e+22
-7.09685  2.49312e+22
-6.97955  2.50526e+22
-6.86224  2.51758e+22
-6.74494  2.53017e+22
-6.62763  2.54291e+22
-6.51033  2.55572e+22
-6.39302  2.56838e+22
-6.27572  2.58059e+22
-6.15842  2.59211e+22
-6.04111  2.60263e+22
-5.92381  2.61192e+22
-5.8065  2.61987e+22
-5.68919  2.62643e+22
-5.57189  2.63172e+22
-5.45458  2.63594e+22
-5.33728  2.63953e+22
-5.21997  2.64291e+22
-5.10267  2.64663e+22
-4.98536  2.65122e+22
-4.86806  2.65715e+22
-4.75075  2.66485e+22
-4.63345  2.67457e+22
-4.51614  2.68643e+22
-4.39884  2.70032e+22
-4.28154  2.71608e+22
-4.16423  2.73328e+22
-4.04692  2.75139e+22
-3.92962  2.76982e+22
-3.81231  2.78792e+22
-3.69501  2.80497e+22
-3.5777  2.82036e+22
-3.4604  2.8335e+22
-3.34309  2.844e+22
-3.22579  2.85161e+22
-3.10849  2.85635e+22
-2.99118  2.85837e+22
-2.87387  2.8581e+22
-2.75657  2.85607e+22
-2.63926  2.85286e+22
-2.52196  2.84908e+22
-2.40465  2.84525e+22
-2.28735  2.8417e+22
-2.17005  2.83867e+22
-2.05274  2.83627e+22
-1.93544  2.83428e+22
-1.81813  2.83259e+22
-1.70083  2.83089e+22
-1.58352  2.82891e+22
-1.46622  2.8264e+22
-1.34891  2.82313e+22
-1.2316  2.81895e+22
-1.1143  2.81384e+22
-0.996995  2.80779e+22
-0.87969  2.80099e+22
-0.762385  2.79356e+22
-0.64508  2.78598e+22
-0.527775  2.77859e+22
-0.41047  2.77184e+22
-0.293165  2.76626e+22
-0.17586  2.76224e+22
-0.058555  2.76014e+22
0.05875  2.76009e+22
0.176055  2.76212e+22
0.29336  2.76601e+22
0.410665  2.77152e+22
0.52797  2.77814e+22
0.645275  2.78543e+22
0.76258  2.7929e+22
0.879885  2.80019e+22
0.99719  2.80687e+22
1.1145  2.81278e+22
1.2318  2.81775e+22
1.3491  2.82179e+22
1.46641  2.82488e+22
1.58371  2.82723e+22
1.70102  2.82902e+22
1.81832  2.83052e+22
1.93563  2.832e+22
2.05294  2.83373e+22
2.17024  2.83594e+22
2.28754  2.83874e+22
2.40485  2.84202e+22
2.52216  2.8456e+22
2.63946  2.84912e+22
2.75677  2.85204e+22
2.87407  2.85379e+22
2.99137  2.85376e+22
3.10868  2.85143e+22
3.22599  2.84643e+22
3.34329  2.83856e+22
3.4606  2.82783e+22
3.5779  2.81447e+22
3.69521  2.79888e+22
3.81251  2.78169e+22
3.92982  2.76342e+22
4.04712  2.74486e+22
4.16443  2.72665e+22
4.28173  2.70935e+22
4.39903  2.6935e+22
4.51634  2.6795e+22
4.63364  2.66757e+22
4.75095  2.65772e+22
4.86825  2.64989e+22
4.98556  2.64381e+22
5.10286  2.63908e+22
5.22017  2.63517e+22
5.33748  2.63161e+22
5.45478  2.62784e+22
5.57209  2.62342e+22
5.68939  2.61793e+22
5.8067  2.61118e+22
5.924  2.60304e+22
6.0413  2.59358e+22
6.15861  2.5829e+22
6.27591  2.57124e+22
6.39322  2.5589e+22
6.51052  2.54615e+22
6.62783  2.53323e+22
6.74514  2.52038e+22
6.86244  2.50775e+22
6.97975  2.49536e+22
7.09705  2.48314e+22
7.21436  2.47097e+22
7.33166  2.45864e+22
7.44897  2.44598e+22
7.56627  2.43278e+22
7.68358  2.41888e+22
7.80088  2.40425e+22
7.91819  2.38893e+22
8.03549  2.37314e+22
8.1528  2.35717e+22
8.2701  2.3413e+22
8.38741  2.32598e+22
8.50471  2.31157e+22
8.62202  2.29833e+22
8.73932  2.28642e+22
8.85662  2.27593e+22
8.97393  2.26663e+22
9.09123  2.25825e+22
9.20854  2.25034e+22
9.32584  2.24233e+22
9.44315  2.23355e+22
9.56045  2.22341e+22
9.67776  2.21132e+22
9.79506  2.19679e+22
9.91237  2.1795e+22
10.0297  2.15939e+22
10.147  2.13649e+22
10.2643  2.11114e+22
10.3816  2.08374e+22
10.4989  2.05492e+22
10.6162  2.02529e+22
10.7335  1.99551e+22
10.8508  1.96616e+22
10.9681  1.93768e+22
11.0854  1.91047e+22
11.2027  1.88466e+22
11.32  1.86033e+22
11.4373  1.8374e+22
11.5546  1.81575e+22
11.6719  1.79509e+22
11.7893  1.77527e+22
11.9066  1.75605e+22
12.0239  1.73721e+22
12.1412  1.71873e+22
12.2585  1.70055e+22
12.3758  1.68276e+22
12.4931  1.66549e+22
12.6104  1.64894e+22
12.7277  1.63337e+22
12.845  1.61904e+22
12.9623  1.60606e+22
13.0796  1.59462e+22
13.1969  1.58468e+22
13.3142  1.57614e+22
13.4315  1.56864e+22
13.5488  1.56186e+22
13.6661  1.55523e+22
13.7834  1.54818e+22
13.9007  1.54014e+22
14.018  1.53054e+22
14.1354  1.51891e+22
14.2527  1.50494e+22
14.37  1.48847e+22
14.4873  1.46948e+22
14.6046  1.44815e+22
14.7219  1.42488e+22
14.8392  1.4001e+22
14.9565  1.37435e+22
15.0738  1.3482e+22
15.1911  1.32219e+22
15.3084  1.29674e+22
15.4257  1.27218e+22
15.543  1.24871e+22
15.6603  1.22629e+22
15.7776  1.20489e+22
15.8949  1.18425e+22
16.0122  1.16418e+22
16.1295  1.14446e+22
16.2468  1.12491e+22
16.3641  1.10545e+22
16.4815  1.08617e+22
16.5988  1.06717e+22
16.7161  1.04863e+22
16.8334  1.03089e+22
16.9507  1.01422e+22
17.068  9.9887e+21
17.1853  9.85033e+21
17.3026  9.72791e+21
17.4199  9.62114e+21
17.5372  9.52795e+21
17.6545  9.44477e+21
17.7718  9.36693e+21
17.8891  9.28819e+21
18.0064  9.20246e+21
18.1237  9.10286e+21
18.241  8.98397e+21
18.3583  8.84164e+21
18.4756  8.67383e+21
18.5929  8.48104e+21
18.7102  8.26595e+21
18.8275  8.03387e+21
18.9449  7.79142e+21
19.0622  7.54697e+21
19.1795  7.30821e+21
19.2968  7.08295e+21
19.4141  6.87784e+21
19.5314  6.69767e+21
19.6487  6.5452e+21
19.766  6.42178e+21
19.8833  6.32586e+21
20.0006  6.25456e+21
20.1179  6.20327e+21
20.2352  6.16607e+21
20.3525  6.13569e+21
20.4698  6.10505e+21
20.5871  6.06708e+21
20.7044  6.01593e+21
20.8217  5.94721e+21
20.939  5.85877e+21
21.0563  5.75077e+21
21.1736  5.62607e+21
21.291  5.48867e+21
21.4083  5.3442e+21
21.5256  5.19879e+21
21.6429  5.05774e+21
21.7602  4.92555e+21
21.8775  4.80507e+21
21.9948  4.69739e+21
22.1121  4.60211e+21
22.2294  4.51724e+21
22.3467  4.44062e+21
22.464  4.36906e+21
22.5813  4.29952e+21
22.6986  4.2297e+21
22.8159  4.15749e+21
22.9332  4.08138e+21
23.0505  4.00093e+21
23.1678  3.91609e+21
23.2851  3.82759e+21
23.4024  3.73643e+21
23.5198  3.64415e+21
23.6371  3.55233e+21
23.7544  3.46239e+21
23.8717  3.37527e+21
23.989  3.29132e+21
24.1063  3.21047e+21
24.2236  3.13199e+21
24.3409  3.05463e+21
24.4582  2.97751e+21
24.5755  2.89955e+21
24.6928  2.82049e+21
24.8101  2.74056e+21
24.9274  2.66054e+21
25.0447  2.58152e+21
25.162  2.50483e+21
25.2793  2.43172e+21
25.3966  2.36309e+21
25.5139  2.29953e+21
25.6312  2.24102e+21
25.7485  2.18737e+21
25.8658  2.13824e+21
25.9832  2.09261e+21
26.1005  2.05018e+21
26.2178  2.00999e+21
26.3351  1.97107e+21
26.4524  1.9327e+21
26.5697  1.89392e+21
26.687  1.85363e+21
26.8043  1.81141e+21
26.9216  1.76671e+21
27.0389  1.71977e+21
27.1562  1.67127e+21
27.2735  1.62227e+21
27.3908  1.57451e+21
27.5081  1.5296e+21
27.6254  1.48894e+21
27.7427  1.45382e+21
27.86  1.42458e+21
27.9773  1.40107e+21
28.0946  1.38242e+21
28.212  1.36712e+21
28.3293  1.35359e+21
28.4466  1.33992e+21
28.5639  1.32474e+21
28.6812  1.30691e+21
28.7985  1.28563e+21
28.9158  1.26104e+21
29.0331  1.23353e+21
29.1504  1.20413e+21
29.2677  1.17417e+21
29.385  1.14517e+21
29.5023  1.1186e+21
29.6196  1.09564e+21
29.7369  1.07716e+21
29.8542  1.06333e+21
29.9715  1.05385e+21
30.0888  1.04761e+21
30.2061  1.04346e+21
30.3234  1.03986e+21
30.4407  1.03543e+21
30.558  1.02904e+21
30.6754  1.01993e+21
30.7927  1.0083e+21
30.91  9.9474e+20
31.0273  9.80299e+20
31.1446  9.66498e+20
31.2619  9.54858e+20
31.3792  9.46624e+20
31.4965  9.4285e+20
31.6138  9.43643e+20
31.7311  9.48399e+20
31.8484  9.56068e+20
31.9657  9.64734e+20
32.083  9.7211e+20
32.2003  9.75918e+20
32.3176  9.7389e+20
32.4349  9.64293e+20
32.5522  9.46207e+20
32.6695  9.19614e+20
32.7868  8.8567e+20
32.9042  8.46124e+20
33.0215  8.03564e+20
33.1388  7.60967e+20
33.2561  7.21086e+20
33.3734  6.86796e+20
33.4907  6.59729e+20
33.608  6.4109e+20
33.7253  6.31223e+20
33.8426  6.29442e+20
33.9599  6.34815e+20
34.0772  6.45585e+20
34.1945  6.6006e+20
34.3118  6.76417e+20
34.4291  6.93038e+20
34.5464  7.08766e+20
34.6637  7.22468e+20
34.781  7.33475e+20
34.8983  7.41721e+20
35.0156  7.47467e+20
35.1329  7.51246e+20
35.2503  7.53856e+20
35.3676  7.56216e+20
35.4849  7.59021e+20
35.6022  7.6286e+20
35.7195  7.67937e+20
35.8368  7.73803e+20
35.9541  7.79828e+20
36.0714  7.84953e+20
36.1887  7.87868e+20
36.306  7.87208e+20
36.4233  7.81897e+20
36.5406  7.71292e+20
36.6579  7.55085e+20
36.7752  7.33549e+20
36.8925  7.07696e+20
37.0098  6.78706e+20
37.1271  6.48274e+20
37.2444  6.18332e+20
37.3617  5.90749e+20
37.479  5.67517e+20
37.5964  5.49957e+20
37.7137  5.39402e+20
37.831  5.36139e+20
37.9483  5.39889e+20
38.0656  5.49598e+20
38.1829  5.63427e+20
38.3002  5.79109e+20
38.4175  5.94109e+20
38.5348  6.05849e+20
38.6521  6.12566e+20
38.7694  6.12847e+20
38.8867  6.06517e+20
39.004  5.94044e+20
39.1213  5.76944e+20
39.2386  5.57117e+20
39.3559  5.36597e+20
39.4732  5.17334e+20
39.5905  5.00672e+20
39.7078  4.87496e+20
39.8251  4.78054e+20
39.9425  4.72027e+20
40.0598  4.68793e+20
40.1771  4.67567e+20
40.2944  4.67638e+20
40.4117  4.68517e+20
40.529  4.69732e+20
40.6463  4.71235e+20
40.7636  4.73081e+20
40.8809  4.75244e+20
40.9982  4.78e+20
41.1155  4.81225e+20
41.2328  4.84999e+20
41.3501  4.89101e+20
41.4674  4.93228e+20
41.5847  4.96862e+20
41.702  4.99273e+20
41.8193  4.99759e+20
41.9366  4.97259e+20
42.0539  4.91032e+20
42.1712  4.80428e+20
42.2885  4.65052e+20
42.4059  4.45191e+20
42.5232  4.21484e+20
42.6405  3.95242e+20
42.7578  3.67835e+20
42.8751  3.41077e+20
42.9924  3.16487e+20
43.1097  2.95268e+20
43.227  2.78015e+20
43.3443  2.65029e+20
43.4616  2.55903e+20
43.5789  2.50039e+20
43.6962  2.46559e+20
43.8135  2.44804e+20
43.9308  2.44076e+20
44.0481  2.43998e+20
44.1654  2.44316e+20
44.2827  2.44829e+20
44.4  2.4542e+20
44.5173  2.45916e+20
44.6347  2.46066e+20
44.752  2.45653e+20
44.8693  2.44603e+20
44.9866  2.43133e+20
45.1039  2.41494e+20
45.2212  2.40269e+20
45.3385  2.40075e+20
45.4558  2.41491e+20
45.5731  2.44898e+20
45.6904  2.50459e+20
45.8077  2.57768e+20
45.925  2.66341e+20
46.0423  2.75295e+20
46.1596  2.8378e+20
46.2769  2.90913e+20
46.3942  2.96128e+20
46.5115  2.99132e+20
46.6288  2.99839e+20
46.7461  2.98613e+20
46.8634  2.95963e+20
46.9808  2.92526e+20
47.0981  2.89005e+20
47.2154  2.86053e+20
47.3327  2.84261e+20
47.45  2.8394e+20
47.5673  2.85222e+20
47.6846  2.87843e+20
47.8019  2.91169e+20
47.9192  2.94272e+20
48.0365  2.9609e+20
48.1538  2.95494e+20
48.2711  2.91547e+20
48.3884  2.83757e+20
48.5057  2.72214e+20
48.623  2.57602e+20
48.7403  2.41198e+20
48.8576  2.2456e+20
48.9749  2.09677e+20
49.0922  1.98178e+20
49.2095  1.91229e+20
49.3269  1.89381e+20
49.4442  1.92568e+20
49.5615  1.99885e+20
49.6788  2.10173e+20
49.7961  2.21786e+20
49.9134  2.3321e+20
50.0307  2.43099e+20
50.148  2.50413e+20
50.2653  2.54711e+20
50.3826  2.55826e+20
50.4999  2.54096e+20
50.6172  2.50124e+20
50.7345  2.44736e+20
