#S 1 spectral density
#N 2
#UFWHM 24.3994
#L  abscissas [um]  spectral density
-58.5938  9.98657e+19
-58.4764  8.99299e+19
-58.3591  8.15888e+19
-58.2418  7.52511e+19
-58.1245  7.10185e+19
-58.0072  6.87263e+19
-57.8899  6.80819e+19
-57.7726  6.86476e+19
-57.6553  7.00968e+19
-57.538  7.22013e+19
-57.4207  7.48283e+19
-57.3034  7.79205e+19
-57.1861  8.15281e+19
-57.0688  8.56056e+19
-56.9515  9.01784e+19
-56.8342  9.50947e+19
-56.7169  1.00386e+20
-56.5996  1.05977e+20
-56.4823  1.12025e+20
-56.365  1.18629e+20
-56.2477  1.25968e+20
-56.1303  1.34019e+20
-56.013  1.42748e+20
-55.8957  1.5169e+20
-55.7784  1.60265e+20
-55.6611  1.67558e+20
-55.5438  1.72656e+20
-55.4265  1.74919e+20
-55.3092  1.73894e+20
-55.1919  1.69606e+20
-55.0746  1.6269e+20
-54.9573  1.54031e+20
-54.84  1.45032e+20
-54.7227  1.36949e+20
-54.6054  1.30999e+20
-54.4881  1.27973e+20
-54.3708  1.28098e+20
-54.2535  1.3115e+20
-54.1362  1.36387e+20
-54.0189  1.42778e+20
-53.9016  1.49107e+20
-53.7842  1.54295e+20
-53.6669  1.57565e+20
-53.5496  1.58478e+20
-53.4323  1.57039e+20
-53.315  1.53686e+20
-53.1977  1.49147e+20
-53.0804  1.44327e+20
-52.9631  1.40143e+20
-52.8458  1.37397e+20
-52.7285  1.36558e+20
-52.6112  1.37847e+20
-52.4939  1.41061e+20
-52.3766  1.45809e+20
-52.2593  1.51438e+20
-52.142  1.57325e+20
-52.0247  1.62813e+20
-51.9074  1.67439e+20
-51.7901  1.70866e+20
-51.6728  1.73131e+20
-51.5555  1.74265e+20
-51.4381  1.74461e+20
-51.3208  1.74002e+20
-51.2035  1.73061e+20
-51.0862  1.71926e+20
-50.9689  1.70644e+20
-50.8516  1.69333e+20
-50.7343  1.67958e+20
-50.617  1.66525e+20
-50.4997  1.64945e+20
-50.3824  1.63098e+20
-50.2651  1.60836e+20
-50.1478  1.5812e+20
-50.0305  1.54812e+20
-49.9132  1.51039e+20
-49.7959  1.46803e+20
-49.6786  1.42363e+20
-49.5613  1.37983e+20
-49.444  1.33975e+20
-49.3267  1.30546e+20
-49.2094  1.27826e+20
-49.092  1.25784e+20
-48.9747  1.24194e+20
-48.8574  1.22835e+20
-48.7401  1.21348e+20
-48.6228  1.19509e+20
-48.5055  1.17221e+20
-48.3882  1.14567e+20
-48.2709  1.11817e+20
-48.1536  1.09325e+20
-48.0363  1.07461e+20
-47.919  1.06643e+20
-47.8017  1.07173e+20
-47.6844  1.09283e+20
-47.5671  1.13094e+20
-47.4498  1.18861e+20
-47.3325  1.26727e+20
-47.2152  1.36934e+20
-47.0979  1.49643e+20
-46.9806  1.64848e+20
-46.8633  1.8229e+20
-46.7459  2.01343e+20
-46.6286  2.20985e+20
-46.5113  2.39805e+20
-46.394  2.56388e+20
-46.2767  2.6925e+20
-46.1594  2.77332e+20
-46.0421  2.79971e+20
-45.9248  2.77299e+20
-45.8075  2.70016e+20
-45.6902  2.59203e+20
-45.5729  2.4655e+20
-45.4556  2.3359e+20
-45.3383  2.21903e+20
-45.221  2.12668e+20
-45.1037  2.06658e+20
-44.9864  2.0435e+20
-44.8691  2.05768e+20
-44.7518  2.10531e+20
-44.6345  2.18062e+20
-44.5172  2.27486e+20
-44.3998  2.37788e+20
-44.2825  2.47528e+20
-44.1652  2.55574e+20
-44.0479  2.6084e+20
-43.9306  2.62448e+20
-43.8133  2.60076e+20
-43.696  2.53965e+20
-43.5787  2.45e+20
-43.4614  2.34385e+20
-43.3441  2.23837e+20
-43.2268  2.1484e+20
-43.1095  2.08765e+20
-42.9922  2.06247e+20
-42.8749  2.07447e+20
-42.7576  2.11765e+20
-42.6403  2.18248e+20
-42.523  2.25644e+20
-42.4057  2.32818e+20
-42.2884  2.38872e+20
-42.171  2.43339e+20
-42.0537  2.46289e+20
-41.9364  2.48139e+20
-41.8191  2.49415e+20
-41.7018  2.5077e+20
-41.5845  2.52772e+20
-41.4672  2.55708e+20
-41.3499  2.59795e+20
-41.2326  2.64862e+20
-41.1153  2.70846e+20
-40.998  2.77494e+20
-40.8807  2.84543e+20
-40.7634  2.91738e+20
-40.6461  2.98819e+20
-40.5288  3.05324e+20
-40.4115  3.10868e+20
-40.2942  3.15153e+20
-40.1769  3.17629e+20
-40.0596  3.18175e+20
-39.9423  3.16811e+20
-39.825  3.13824e+20
-39.7076  3.09784e+20
-39.5903  3.05337e+20
-39.473  3.01208e+20
-39.3557  2.98064e+20
-39.2384  2.96305e+20
-39.1211  2.95899e+20
-39.0038  2.9681e+20
-38.8865  2.98575e+20
-38.7692  3.00724e+20
-38.6519  3.02946e+20
-38.5346  3.04945e+20
-38.4173  3.06695e+20
-38.3  3.08444e+20
-38.1827  3.10712e+20
-38.0654  3.14088e+20
-37.9481  3.19294e+20
-37.8308  3.27018e+20
-37.7135  3.37842e+20
-37.5962  3.52134e+20
-37.4789  3.7007e+20
-37.3615  3.91481e+20
-37.2442  4.15733e+20
-37.1269  4.42023e+20
-37.0096  4.68652e+20
-36.8923  4.94082e+20
-36.775  5.16318e+20
-36.6577  5.33525e+20
-36.5404  5.44004e+20
-36.4231  5.46645e+20
-36.3058  5.41197e+20
-36.1885  5.28095e+20
-36.0712  5.08643e+20
-35.9539  4.84738e+20
-35.8366  4.58797e+20
-35.7193  4.33313e+20
-35.602  4.10501e+20
-35.4847  3.91937e+20
-35.3674  3.78695e+20
-35.2501  3.71006e+20
-35.1328  3.68362e+20
-35.0154  3.69895e+20
-34.8981  3.74381e+20
-34.7808  3.80573e+20
-34.6635  3.87274e+20
-34.5462  3.93895e+20
-34.4289  4.00034e+20
-34.3116  4.0601e+20
-34.1943  4.12473e+20
-34.077  4.20652e+20
-33.9597  4.31871e+20
-33.8424  4.47513e+20
-33.7251  4.6867e+20
-33.6078  4.96087e+20
-33.4905  5.29747e+20
-33.3732  5.68885e+20
-33.2559  6.11921e+20
-33.1386  6.56756e+20
-33.0213  7.00655e+20
-32.904  7.40739e+20
-32.7867  7.7472e+20
-32.6693  8.00399e+20
-32.552  8.1646e+20
-32.4347  8.22961e+20
-32.3174  8.20012e+20
-32.2001  8.09366e+20
-32.0828  7.92788e+20
-31.9655  7.72494e+20
-31.8482  7.50904e+20
-31.7309  7.29852e+20
-31.6136  7.11196e+20
-31.4963  6.96029e+20
-31.379  6.85162e+20
-31.2617  6.78605e+20
-31.1444  6.7615e+20
-31.0271  6.77181e+20
-30.9098  6.80708e+20
-30.7925  6.85855e+20
-30.6752  6.91524e+20
-30.5579  6.96652e+20
-30.4406  7.00507e+20
-30.3232  7.02745e+20
-30.2059  7.03249e+20
-30.0886  7.02017e+20
-29.9713  6.99479e+20
-29.854  6.96188e+20
-29.7367  6.92804e+20
-29.6194  6.89844e+20
-29.5021  6.87652e+20
-29.3848  6.86525e+20
-29.2675  6.86731e+20
-29.1502  6.87881e+20
-29.0329  6.89978e+20
-28.9156  6.92759e+20
-28.7983  6.96035e+20
-28.681  6.99828e+20
-28.5637  7.0421e+20
-28.4464  7.09806e+20
-28.3291  7.17132e+20
-28.2118  7.26997e+20
-28.0944  7.4053e+20
-27.9771  7.58149e+20
-27.8598  7.80292e+20
-27.7425  8.0693e+20
-27.6252  8.37203e+20
-27.5079  8.70033e+20
-27.3906  9.03624e+20
-27.2733  9.36315e+20
-27.156  9.66795e+20
-27.0387  9.93677e+20
-26.9214  1.01682e+21
-26.8041  1.03662e+21
-26.6868  1.05431e+21
-26.5695  1.07141e+21
-26.4522  1.08991e+21
-26.3349  1.11187e+21
-26.2176  1.13878e+21
-26.1003  1.17184e+21
-25.983  1.21125e+21
-25.8657  1.25663e+21
-25.7483  1.30706e+21
-25.631  1.36075e+21
-25.5137  1.41574e+21
-25.3964  1.46908e+21
-25.2791  1.51845e+21
-25.1618  1.56093e+21
-25.0445  1.5944e+21
-24.9272  1.61719e+21
-24.8099  1.62878e+21
-24.6926  1.62971e+21
-24.5753  1.62229e+21
-24.458  1.60923e+21
-24.3407  1.59493e+21
-24.2234  1.5836e+21
-24.1061  1.57948e+21
-23.9888  1.58602e+21
-23.8715  1.60528e+21
-23.7542  1.6381e+21
-23.6369  1.6838e+21
-23.5196  1.74042e+21
-23.4023  1.80538e+21
-23.2849  1.87564e+21
-23.1676  1.94846e+21
-23.0503  2.0215e+21
-22.933  2.09315e+21
-22.8157  2.16272e+21
-22.6984  2.23014e+21
-22.5811  2.29639e+21
-22.4638  2.36336e+21
-22.3465  2.43307e+21
-22.2292  2.50864e+21
-22.1119  2.59287e+21
-21.9946  2.68837e+21
-21.8773  2.79729e+21
-21.76  2.92045e+21
-21.6427  3.05738e+21
-21.5254  3.20563e+21
-21.4081  3.36164e+21
-21.2908  3.52009e+21
-21.1735  3.6753e+21
-21.0561  3.8218e+21
-20.9388  3.95453e+21
-20.8215  4.07055e+21
-20.7042  4.16843e+21
-20.5869  4.249e+21
-20.4696  4.31484e+21
-20.3523  4.37039e+21
-20.235  4.42045e+21
-20.1177  4.47065e+21
-20.0004  4.52637e+21
-19.8831  4.59226e+21
-19.7658  4.67198e+21
-19.6485  4.76832e+21
-19.5312  4.88303e+21
-19.4139  5.01607e+21
-19.2966  5.1663e+21
-19.1793  5.33177e+21
-19.062  5.50889e+21
-18.9447  5.69356e+21
-18.8274  5.88137e+21
-18.71  6.06802e+21
-18.5927  6.24976e+21
-18.4754  6.42432e+21
-18.3581  6.59028e+21
-18.2408  6.74881e+21
-18.1235  6.9014e+21
-18.0062  7.05091e+21
-17.8889  7.20053e+21
-17.7716  7.35372e+21
-17.6543  7.5131e+21
-17.537  7.68028e+21
-17.4197  7.85608e+21
-17.3024  8.04e+21
-17.1851  8.23126e+21
-17.0678  8.42791e+21
-16.9505  8.62854e+21
-16.8332  8.83129e+21
-16.7159  9.03531e+21
-16.5986  9.23977e+21
-16.4813  9.44499e+21
-16.364  9.65149e+21
-16.2466  9.85992e+21
-16.1293  1.00714e+22
-16.012  1.02871e+22
-15.8947  1.05075e+22
-15.7774  1.07329e+22
-15.6601  1.09633e+22
-15.5428  1.11974e+22
-15.4255  1.14337e+22
-15.3082  1.16702e+22
-15.1909  1.19044e+22
-15.0736  1.21339e+22
-14.9563  1.23563e+22
-14.839  1.25703e+22
-14.7217  1.27749e+22
-14.6044  1.29695e+22
-14.4871  1.31558e+22
-14.3698  1.33346e+22
-14.2525  1.35079e+22
-14.1352  1.36783e+22
-14.0178  1.3848e+22
-13.9005  1.4019e+22
-13.7832  1.41935e+22
-13.6659  1.4372e+22
-13.5486  1.45566e+22
-13.4313  1.47457e+22
-13.314  1.49397e+22
-13.1967  1.51374e+22
-13.0794  1.53375e+22
-12.9621  1.55391e+22
-12.8448  1.57414e+22
-12.7275  1.59433e+22
-12.6102  1.61457e+22
-12.4929  1.63497e+22
-12.3756  1.65564e+22
-12.2583  1.67686e+22
-12.141  1.69888e+22
-12.0237  1.72194e+22
-11.9064  1.74622e+22
-11.7891  1.77191e+22
-11.6718  1.79905e+22
-11.5544  1.82755e+22
-11.4371  1.85728e+22
-11.3198  1.88795e+22
-11.2025  1.91921e+22
-11.0852  1.95073e+22
-10.9679  1.98206e+22
-10.8506  2.01285e+22
-10.7333  2.04272e+22
-10.616  2.07144e+22
-10.4987  2.09883e+22
-10.3814  2.12484e+22
-10.2641  2.1495e+22
-10.1468  2.173e+22
-10.0295  2.19558e+22
-9.91217  2.21749e+22
-9.79487  2.23907e+22
-9.67756  2.26055e+22
-9.56026  2.28208e+22
-9.44295  2.30374e+22
-9.32565  2.3255e+22
-9.20834  2.34719e+22
-9.09104  2.36854e+22
-8.97373  2.38923e+22
-8.85643  2.40906e+22
-8.73913  2.42761e+22
-8.62182  2.44482e+22
-8.50452  2.4606e+22
-8.38721  2.47498e+22
-8.26991  2.48817e+22
-8.1526  2.50044e+22
-8.03529  2.51206e+22
-7.91799  2.52345e+22
-7.80069  2.53499e+22
-7.68338  2.54695e+22
-7.56608  2.5596e+22
-7.44877  2.57312e+22
-7.33146  2.58754e+22
-7.21416  2.60282e+22
-7.09685  2.61885e+22
-6.97955  2.63541e+22
-6.86224  2.65232e+22
-6.74494  2.6694e+22
-6.62763  2.68641e+22
-6.51033  2.70329e+22
-6.39302  2.72003e+22
-6.27572  2.73665e+22
-6.15842  2.75338e+22
-6.04111  2.77036e+22
-5.92381  2.78788e+22
-5.8065  2.8062e+22
-5.68919  2.82554e+22
-5.57189  2.84609e+22
-5.45458  2.86785e+22
-5.33728  2.89086e+22
-5.21997  2.91485e+22
-5.10267  2.93954e+22
-4.98536  2.96449e+22
-4.86806  2.98919e+22
-4.75075  3.01313e+22
-4.63345  3.0358e+22
-4.51614  3.05683e+22
-4.39884  3.07597e+22
-4.28154  3.09318e+22
-4.16423  3.10864e+22
-4.04692  3.12264e+22
-3.92962  3.13574e+22
-3.81231  3.14848e+22
-3.69501  3.16142e+22
-3.5777  3.17506e+22
-3.4604  3.18971e+22
-3.34309  3.20552e+22
-3.22579  3.22239e+22
-3.10849  3.24007e+22
-2.99118  3.25807e+22
-2.87387  3.27575e+22
-2.75657  3.29243e+22
-2.63926  3.30728e+22
-2.52196  3.31962e+22
-2.40465  3.32875e+22
-2.28735  3.33413e+22
-2.17005  3.33553e+22
-2.05274  3.33294e+22
-1.93544  3.32655e+22
-1.81813  3.31699e+22
-1.70083  3.30499e+22
-1.58352  3.29153e+22
-1.46622  3.27762e+22
-1.34891  3.26425e+22
-1.2316  3.25221e+22
-1.1143  3.24213e+22
-0.996995  3.23433e+22
-0.87969  3.22892e+22
-0.762385  3.22558e+22
-0.64508  3.22407e+22
-0.527775  3.22386e+22
-0.41047  3.22443e+22
-0.293165  3.2253e+22
-0.17586  3.2261e+22
-0.058555  3.22656e+22
0.05875  3.2265e+22
0.176055  3.22596e+22
0.29336  3.22503e+22
0.410665  3.22406e+22
0.52797  3.22334e+22
0.645275  3.22339e+22
0.76258  3.22473e+22
0.879885  3.22785e+22
0.99719  3.23307e+22
1.1145  3.24063e+22
1.2318  3.25045e+22
1.3491  3.26222e+22
1.46641  3.2753e+22
1.58371  3.28888e+22
1.70102  3.30201e+22
1.81832  3.31365e+22
1.93563  3.32287e+22
2.05294  3.32886e+22
2.17024  3.33114e+22
2.28754  3.32943e+22
2.40485  3.32372e+22
2.52216  3.31431e+22
2.63946  3.30172e+22
2.75677  3.28659e+22
2.87407  3.2697e+22
2.99137  3.25177e+22
3.10868  3.23354e+22
3.22599  3.21563e+22
3.34329  3.1985e+22
3.4606  3.18246e+22
3.5779  3.16755e+22
3.69521  3.15364e+22
3.81251  3.14044e+22
3.92982  3.12738e+22
4.04712  3.11396e+22
4.16443  3.09966e+22
4.28173  3.08389e+22
4.39903  3.06637e+22
4.51634  3.04695e+22
4.63364  3.0257e+22
4.75095  3.00278e+22
4.86825  2.97864e+22
4.98556  2.95375e+22
5.10286  2.92869e+22
5.22017  2.90385e+22
5.33748  2.87976e+22
5.45478  2.85668e+22
5.57209  2.83483e+22
5.68939  2.81419e+22
5.8067  2.79477e+22
5.924  2.77633e+22
6.0413  2.75872e+22
6.15861  2.74162e+22
6.27591  2.72476e+22
6.39322  2.70799e+22
6.51052  2.69112e+22
6.62783  2.67408e+22
6.74514  2.65691e+22
6.86244  2.63972e+22
6.97975  2.62267e+22
7.09705  2.60598e+22
7.21436  2.58985e+22
7.33166  2.57444e+22
7.44897  2.55994e+22
7.56627  2.54634e+22
7.68358  2.53358e+22
7.80088  2.52153e+22
7.91819  2.50989e+22
8.03549  2.49837e+22
8.1528  2.48661e+22
8.2701  2.4742e+22
8.38741  2.46085e+22
8.50471  2.44628e+22
8.62202  2.4303e+22
8.73932  2.41287e+22
8.85662  2.39409e+22
8.97393  2.37407e+22
9.09123  2.35313e+22
9.20854  2.33157e+22
9.32584  2.30968e+22
9.44315  2.28772e+22
9.56045  2.26585e+22
9.67776  2.24414e+22
9.79506  2.22253e+22
9.91237  2.20079e+22
10.0297  2.17876e+22
10.147  2.1561e+22
10.2643  2.13251e+22
10.3816  2.10779e+22
10.4989  2.08174e+22
10.6162  2.05431e+22
10.7335  2.0256e+22
10.8508  1.99575e+22
10.9681  1.96499e+22
11.0854  1.93371e+22
11.2027  1.90225e+22
11.32  1.87102e+22
11.4373  1.84042e+22
11.5546  1.81076e+22
11.6719  1.78229e+22
11.7893  1.75522e+22
11.9066  1.72959e+22
12.0239  1.7053e+22
12.1412  1.68229e+22
12.2585  1.6603e+22
12.3758  1.63911e+22
12.4931  1.61845e+22
12.6104  1.59808e+22
12.7277  1.57787e+22
12.845  1.55769e+22
12.9623  1.53751e+22
13.0796  1.51739e+22
13.1969  1.49739e+22
13.3142  1.4777e+22
13.4315  1.45834e+22
13.5488  1.43947e+22
13.6661  1.4211e+22
13.7834  1.40326e+22
13.9007  1.38589e+22
14.018  1.36881e+22
14.1354  1.35189e+22
14.2527  1.33489e+22
14.37  1.31761e+22
14.4873  1.29977e+22
14.6046  1.28119e+22
14.7219  1.26176e+22
14.8392  1.24138e+22
14.9565  1.22003e+22
15.0738  1.19787e+22
15.1911  1.175e+22
15.3084  1.15167e+22
15.4257  1.12812e+22
15.543  1.10462e+22
15.6603  1.08132e+22
15.7776  1.05844e+22
15.8949  1.03603e+22
16.0122  1.01414e+22
16.1295  9.92739e+21
16.2468  9.71753e+21
16.3641  9.51046e+21
16.4815  9.3058e+21
16.5988  9.10235e+21
16.7161  8.89929e+21
16.8334  8.69701e+21
16.9507  8.49597e+21
17.068  8.29722e+21
17.1853  8.10228e+21
17.3026  7.91286e+21
17.4199  7.73063e+21
17.5372  7.55639e+21
17.6545  7.39086e+21
17.7718  7.23311e+21
17.8891  7.08113e+21
18.0064  6.93295e+21
18.1237  6.78484e+21
18.241  6.63355e+21
18.3583  6.47644e+21
18.4756  6.31169e+21
18.5929  6.13878e+21
18.7102  5.95865e+21
18.8275  5.77403e+21
18.9449  5.58829e+21
19.0622  5.40593e+21
19.1795  5.2313e+21
19.2968  5.06829e+21
19.4141  4.92055e+21
19.5314  4.79004e+21
19.6487  4.67776e+21
19.766  4.58371e+21
19.8833  4.50594e+21
20.0006  4.4421e+21
20.1179  4.38818e+21
20.2352  4.3397e+21
20.3525  4.29102e+21
20.4698  4.23693e+21
20.5871  4.17235e+21
20.7044  4.09306e+21
20.8217  3.99657e+21
20.939  3.88203e+21
21.0563  3.75067e+21
21.1736  3.60603e+21
21.291  3.45265e+21
21.4083  3.29631e+21
21.5256  3.14257e+21
21.6429  2.99657e+21
21.7602  2.86203e+21
21.8775  2.74111e+21
21.9948  2.63434e+21
22.1121  2.5409e+21
22.2294  2.45856e+21
22.3467  2.38481e+21
22.464  2.31663e+21
22.5813  2.25119e+21
22.6986  2.18634e+21
22.8159  2.12041e+21
22.9332  2.05225e+21
23.0505  1.98206e+21
23.1678  1.91042e+21
23.2851  1.83904e+21
23.4024  1.77031e+21
23.5198  1.70695e+21
23.6371  1.65194e+21
23.7544  1.60787e+21
23.8717  1.5766e+21
23.989  1.55883e+21
24.1063  1.55364e+21
24.2236  1.55894e+21
24.3409  1.57123e+21
24.4582  1.58638e+21
24.5755  1.59995e+21
24.6928  1.608e+21
24.8101  1.60742e+21
24.9274  1.59619e+21
25.0447  1.57381e+21
25.162  1.54084e+21
25.2793  1.49891e+21
25.3966  1.45018e+21
25.5139  1.39741e+21
25.6312  1.34334e+21
25.7485  1.29055e+21
25.8658  1.24111e+21
25.9832  1.19658e+21
26.1005  1.15819e+21
26.2178  1.12613e+21
26.3351  1.10004e+21
26.4524  1.07888e+21
26.5697  1.06102e+21
26.687  1.04444e+21
26.8043  1.02746e+21
26.9216  1.00814e+21
27.0389  9.85269e+20
27.1562  9.58638e+20
27.2735  9.28604e+20
27.3908  8.96067e+20
27.5081  8.62808e+20
27.6254  8.30408e+20
27.7427  8.00501e+20
27.86  7.74271e+20
27.9773  7.52416e+20
28.0946  7.35242e+20
28.212  7.22099e+20
28.3293  7.12443e+20
28.4466  7.05438e+20
28.5639  7.00073e+20
28.6812  6.96008e+20
28.7985  6.9241e+20
28.9158  6.89351e+20
29.0331  6.86907e+20
29.1504  6.84907e+20
29.2677  6.84011e+20
29.385  6.84088e+20
29.5023  6.85316e+20
29.6196  6.87585e+20
29.7369  6.907e+20
29.8542  6.94246e+20
29.9715  6.97588e+20
30.0888  7.00046e+20
30.2061  7.01218e+20
30.3234  7.00724e+20
30.4407  6.98427e+20
30.558  6.94524e+20
30.6754  6.89382e+20
30.7927  6.83772e+20
30.91  6.78699e+20
31.0273  6.75141e+20
31.1446  6.74197e+20
31.2619  6.76656e+20
31.3792  6.83268e+20
31.4965  6.94292e+20
31.6138  7.09536e+20
31.7311  7.28091e+20
31.8484  7.49071e+20
31.9657  7.70653e+20
32.083  7.90648e+20
32.2003  8.06979e+20
32.3176  8.17413e+20
32.4349  8.19917e+20
32.5522  8.1324e+20
32.6695  7.96778e+20
32.7868  7.70936e+20
32.9042  7.36741e+20
33.0215  6.96518e+20
33.1388  6.52627e+20
33.2561  6.07871e+20
33.3734  5.64972e+20
33.4907  5.25978e+20
33.608  4.92538e+20
33.7253  4.6541e+20
33.8426  4.4434e+20
33.9599  4.28886e+20
34.0772  4.17741e+20
34.1945  4.09632e+20
34.3118  4.03088e+20
34.4291  3.97085e+20
34.5464  3.90907e+20
34.6637  3.84301e+20
34.781  3.7756e+20
34.8983  3.71423e+20
35.0156  3.66985e+20
35.1329  3.65519e+20
35.2503  3.68245e+20
35.3676  3.76087e+20
35.4849  3.89439e+20
35.6022  4.08088e+20
35.7195  4.30973e+20
35.8368  4.56406e+20
35.9541  4.82191e+20
36.0714  5.0592e+20
36.1887  5.25126e+20
36.306  5.38035e+20
36.4233  5.43211e+20
36.5406  5.40322e+20
36.6579  5.29658e+20
36.7752  5.12377e+20
36.8925  4.90052e+20
37.0098  4.6465e+20
37.1271  4.38057e+20
37.2444  4.11993e+20
37.3617  3.87887e+20
37.479  3.667e+20
37.5964  3.48935e+20
37.7137  3.34833e+20
37.831  3.24169e+20
37.9483  3.166e+20
38.0656  3.11462e+20
38.1829  3.08185e+20
38.3002  3.05981e+20
38.4175  3.04255e+20
38.5348  3.02547e+20
38.6521  3.00606e+20
38.7694  2.9845e+20
38.8867  2.96324e+20
39.004  2.94601e+20
39.1213  2.93756e+20
39.2386  2.94224e+20
39.3559  2.9615e+20
39.4732  2.99363e+20
39.5905  3.03492e+20
39.7078  3.07963e+20
39.8251  3.12051e+20
39.9425  3.15023e+20
40.0598  3.16368e+20
40.1771  3.15773e+20
40.2944  3.13305e+20
40.4117  3.09088e+20
40.529  3.03503e+20
40.6463  2.97056e+20
40.7636  2.90088e+20
40.8809  2.82915e+20
40.9982  2.75955e+20
41.1155  2.69399e+20
41.2328  2.63518e+20
41.3501  2.58481e+20
41.4674  2.54509e+20
41.5847  2.51646e+20
41.702  2.49695e+20
41.8193  2.48391e+20
41.9366  2.47127e+20
42.0539  2.45299e+20
42.1712  2.42325e+20
42.2885  2.37844e+20
42.4059  2.31779e+20
42.5232  2.2462e+20
42.6405  2.17284e+20
42.7578  2.10891e+20
42.8751  2.06689e+20
42.9924  2.05639e+20
43.1097  2.08298e+20
43.227  2.14504e+20
43.3443  2.23584e+20
43.4616  2.34174e+20
43.5789  2.44709e+20
43.6962  2.53604e+20
43.8135  2.5956e+20
43.9308  2.6183e+20
44.0481  2.60065e+20
44.1654  2.54658e+20
44.2827  2.46504e+20
44.4  2.36708e+20
44.5173  2.26504e+20
44.6347  2.17138e+20
44.752  2.09698e+20
44.8693  2.05007e+20
44.9866  2.0377e+20
45.1039  2.06219e+20
45.2212  2.12331e+20
45.3385  2.21707e+20
45.4558  2.33463e+20
45.5731  2.46433e+20
45.6904  2.59085e+20
45.8077  2.69729e+20
45.925  2.7688e+20
46.0423  2.79404e+20
46.1596  2.76559e+20
46.2769  2.68284e+20
46.3942  2.55269e+20
46.5115  2.38614e+20
46.6288  2.19698e+20
46.7461  2.00053e+20
46.8634  1.81062e+20
46.9808  1.63688e+20
47.0981  1.48567e+20
47.2154  1.35992e+20
47.3327  1.25883e+20
47.45  1.18114e+20
47.5673  1.12448e+20
47.6846  1.0874e+20
47.8019  1.06738e+20
47.9192  1.06301e+20
48.0365  1.07192e+20
48.1538  1.09103e+20
48.2711  1.11654e+20
48.3884  1.14444e+20
48.5057  1.17109e+20
48.623  1.19383e+20
48.7403  1.21191e+20
48.8576  1.22644e+20
48.9749  1.23988e+20
49.0922  1.25551e+20
49.2095  1.27606e+20
49.3269  1.30311e+20
49.4442  1.33759e+20
49.5615  1.37781e+20
49.6788  1.42158e+20
49.7961  1.4657e+20
49.9134  1.5081e+20
50.0307  1.54601e+20
50.148  1.57844e+20
50.2653  1.6057e+20
50.3826  1.62772e+20
50.4999  1.64608e+20
50.6172  1.66187e+20
50.7345  1.67619e+20
50.8518  1.68972e+20
