#S 1 spectral density
#N 2
#UFWHM 74.1368
#L  abscissas [um]  spectral density
-58.5938  1.32448e+21
-58.4764  1.3276e+21
-58.3591  1.332e+21
-58.2418  1.33882e+21
-58.1245  1.34907e+21
-58.0072  1.3633e+21
-57.8899  1.38229e+21
-57.7726  1.40612e+21
-57.6553  1.43504e+21
-57.538  1.46881e+21
-57.4207  1.50691e+21
-57.3034  1.54857e+21
-57.1861  1.59272e+21
-57.0688  1.63767e+21
-56.9515  1.68201e+21
-56.8342  1.72381e+21
-56.7169  1.7614e+21
-56.5996  1.79353e+21
-56.4823  1.81918e+21
-56.365  1.83829e+21
-56.2477  1.85104e+21
-56.1303  1.85831e+21
-56.013  1.86128e+21
-55.8957  1.86135e+21
-55.7784  1.86032e+21
-55.6611  1.85932e+21
-55.5438  1.85953e+21
-55.4265  1.86199e+21
-55.3092  1.86714e+21
-55.1919  1.87532e+21
-55.0746  1.8866e+21
-54.9573  1.90067e+21
-54.84  1.91705e+21
-54.7227  1.93541e+21
-54.6054  1.95502e+21
-54.4881  1.97514e+21
-54.3708  1.99495e+21
-54.2535  2.01399e+21
-54.1362  2.03185e+21
-54.0189  2.0482e+21
-53.9016  2.06311e+21
-53.7842  2.07664e+21
-53.6669  2.08923e+21
-53.5496  2.10142e+21
-53.4323  2.11393e+21
-53.315  2.1273e+21
-53.1977  2.14221e+21
-53.0804  2.15879e+21
-52.9631  2.17756e+21
-52.8458  2.19812e+21
-52.7285  2.22015e+21
-52.6112  2.24293e+21
-52.4939  2.26579e+21
-52.3766  2.28756e+21
-52.2593  2.30761e+21
-52.142  2.32502e+21
-52.0247  2.33934e+21
-51.9074  2.35041e+21
-51.7901  2.3584e+21
-51.6728  2.36392e+21
-51.5555  2.36764e+21
-51.4381  2.37045e+21
-51.3208  2.37338e+21
-51.2035  2.37742e+21
-51.0862  2.38377e+21
-50.9689  2.39308e+21
-50.8516  2.40632e+21
-50.7343  2.424e+21
-50.617  2.44641e+21
-50.4997  2.4738e+21
-50.3824  2.50576e+21
-50.2651  2.54178e+21
-50.1478  2.58058e+21
-50.0305  2.62121e+21
-49.9132  2.66221e+21
-49.7959  2.70218e+21
-49.6786  2.73987e+21
-49.5613  2.77452e+21
-49.444  2.80569e+21
-49.3267  2.8334e+21
-49.2094  2.85802e+21
-49.092  2.87988e+21
-48.9747  2.9002e+21
-48.8574  2.91961e+21
-48.7401  2.93903e+21
-48.6228  2.9593e+21
-48.5055  2.98103e+21
-48.3882  3.00477e+21
-48.2709  3.0311e+21
-48.1536  3.06014e+21
-48.0363  3.0918e+21
-47.919  3.12585e+21
-47.8017  3.16181e+21
-47.6844  3.19868e+21
-47.5671  3.23559e+21
-47.4498  3.27111e+21
-47.3325  3.30431e+21
-47.2152  3.33383e+21
-47.0979  3.35901e+21
-46.9806  3.3794e+21
-46.8633  3.39467e+21
-46.7459  3.40499e+21
-46.6286  3.4108e+21
-46.5113  3.413e+21
-46.394  3.41256e+21
-46.2767  3.41046e+21
-46.1594  3.40819e+21
-46.0421  3.40684e+21
-45.9248  3.40788e+21
-45.8075  3.41242e+21
-45.6902  3.42138e+21
-45.5729  3.43544e+21
-45.4556  3.45475e+21
-45.3383  3.47933e+21
-45.221  3.5087e+21
-45.1037  3.54225e+21
-44.9864  3.57916e+21
-44.8691  3.61862e+21
-44.7518  3.65981e+21
-44.6345  3.7023e+21
-44.5172  3.74526e+21
-44.3998  3.78795e+21
-44.2825  3.8303e+21
-44.1652  3.8715e+21
-44.0479  3.911e+21
-43.9306  3.94855e+21
-43.8133  3.98377e+21
-43.696  4.01657e+21
-43.5787  4.04714e+21
-43.4614  4.07577e+21
-43.3441  4.10296e+21
-43.2268  4.12889e+21
-43.1095  4.15395e+21
-42.9922  4.17818e+21
-42.8749  4.20151e+21
-42.7576  4.22342e+21
-42.6403  4.24386e+21
-42.523  4.26197e+21
-42.4057  4.27816e+21
-42.2884  4.29241e+21
-42.171  4.30533e+21
-42.0537  4.31748e+21
-41.9364  4.3299e+21
-41.8191  4.34375e+21
-41.7018  4.35988e+21
-41.5845  4.37894e+21
-41.4672  4.40152e+21
-41.3499  4.42789e+21
-41.2326  4.45824e+21
-41.1153  4.49228e+21
-40.998  4.52986e+21
-40.8807  4.57034e+21
-40.7634  4.61292e+21
-40.6461  4.65646e+21
-40.5288  4.69938e+21
-40.4115  4.74038e+21
-40.2942  4.77753e+21
-40.1769  4.80937e+21
-40.0596  4.83453e+21
-39.9423  4.85242e+21
-39.825  4.86273e+21
-39.7076  4.86586e+21
-39.5903  4.86359e+21
-39.473  4.85708e+21
-39.3557  4.84866e+21
-39.2384  4.84062e+21
-39.1211  4.83545e+21
-39.0038  4.83505e+21
-38.8865  4.84155e+21
-38.7692  4.85663e+21
-38.6519  4.88165e+21
-38.5346  4.91723e+21
-38.4173  4.96363e+21
-38.3  5.02067e+21
-38.1827  5.08719e+21
-38.0654  5.16148e+21
-37.9481  5.24135e+21
-37.8308  5.32389e+21
-37.7135  5.40642e+21
-37.5962  5.48586e+21
-37.4789  5.55977e+21
-37.3615  5.62606e+21
-37.2442  5.68335e+21
-37.1269  5.73134e+21
-37.0096  5.76997e+21
-36.8923  5.80006e+21
-36.775  5.82278e+21
-36.6577  5.83969e+21
-36.5404  5.85261e+21
-36.4231  5.86272e+21
-36.3058  5.87187e+21
-36.1885  5.88085e+21
-36.0712  5.89067e+21
-35.9539  5.90162e+21
-35.8366  5.9134e+21
-35.7193  5.92603e+21
-35.602  5.9385e+21
-35.4847  5.95018e+21
-35.3674  5.95996e+21
-35.2501  5.96719e+21
-35.1328  5.9712e+21
-35.0154  5.97199e+21
-34.8981  5.97068e+21
-34.7808  5.96748e+21
-34.6635  5.96433e+21
-34.5462  5.96277e+21
-34.4289  5.96521e+21
-34.3116  5.97324e+21
-34.1943  5.98881e+21
-34.077  6.0133e+21
-33.9597  6.04801e+21
-33.8424  6.09301e+21
-33.7251  6.14803e+21
-33.6078  6.21224e+21
-33.4905  6.28394e+21
-33.3732  6.36071e+21
-33.2559  6.43994e+21
-33.1386  6.51861e+21
-33.0213  6.59362e+21
-32.904  6.66206e+21
-32.7867  6.7217e+21
-32.6693  6.77099e+21
-32.552  6.80904e+21
-32.4347  6.83628e+21
-32.3174  6.85342e+21
-32.2001  6.86261e+21
-32.0828  6.86582e+21
-31.9655  6.86558e+21
-31.8482  6.86477e+21
-31.7309  6.86522e+21
-31.6136  6.86937e+21
-31.4963  6.87836e+21
-31.379  6.89303e+21
-31.2617  6.91348e+21
-31.1444  6.939e+21
-31.0271  6.96903e+21
-30.9098  7.00184e+21
-30.7925  7.03639e+21
-30.6752  7.07086e+21
-30.5579  7.10387e+21
-30.4406  7.13473e+21
-30.3232  7.16283e+21
-30.2059  7.18887e+21
-30.0886  7.21285e+21
-29.9713  7.23598e+21
-29.854  7.25958e+21
-29.7367  7.28511e+21
-29.6194  7.31356e+21
-29.5021  7.34593e+21
-29.3848  7.38278e+21
-29.2675  7.42431e+21
-29.1502  7.46939e+21
-29.0329  7.517e+21
-28.9156  7.56504e+21
-28.7983  7.61137e+21
-28.681  7.65307e+21
-28.5637  7.68779e+21
-28.4464  7.71324e+21
-28.3291  7.72762e+21
-28.2118  7.73013e+21
-28.0944  7.72133e+21
-27.9771  7.70273e+21
-27.8598  7.67666e+21
-27.7425  7.64713e+21
-27.6252  7.61776e+21
-27.5079  7.5932e+21
-27.3906  7.57756e+21
-27.2733  7.57452e+21
-27.156  7.58734e+21
-27.0387  7.6175e+21
-26.9214  7.66635e+21
-26.8041  7.73319e+21
-26.6868  7.81627e+21
-26.5695  7.91241e+21
-26.4522  8.01753e+21
-26.3349  8.1267e+21
-26.2176  8.2342e+21
-26.1003  8.33472e+21
-25.983  8.42293e+21
-25.8657  8.49428e+21
-25.7483  8.54644e+21
-25.631  8.57803e+21
-25.5137  8.59031e+21
-25.3964  8.58511e+21
-25.2791  8.56649e+21
-25.1618  8.53938e+21
-25.0445  8.509e+21
-24.9272  8.48072e+21
-24.8099  8.45896e+21
-24.6926  8.44762e+21
-24.5753  8.44962e+21
-24.458  8.46578e+21
-24.3407  8.49613e+21
-24.2234  8.5389e+21
-24.1061  8.59149e+21
-23.9888  8.64988e+21
-23.8715  8.70985e+21
-23.7542  8.76681e+21
-23.6369  8.81644e+21
-23.5196  8.85499e+21
-23.4023  8.88036e+21
-23.2849  8.89179e+21
-23.1676  8.88968e+21
-23.0503  8.87701e+21
-22.933  8.8567e+21
-22.8157  8.83353e+21
-22.6984  8.81231e+21
-22.5811  8.79785e+21
-22.4638  8.79466e+21
-22.3465  8.80567e+21
-22.2292  8.8336e+21
-22.1119  8.87898e+21
-21.9946  8.94132e+21
-21.8773  9.01804e+21
-21.76  9.10561e+21
-21.6427  9.19928e+21
-21.5254  9.29319e+21
-21.4081  9.38124e+21
-21.2908  9.457e+21
-21.1735  9.51523e+21
-21.0561  9.55233e+21
-20.9388  9.56606e+21
-20.8215  9.55683e+21
-20.7042  9.52648e+21
-20.5869  9.47949e+21
-20.4696  9.42152e+21
-20.3523  9.35883e+21
-20.235  9.2986e+21
-20.1177  9.2468e+21
-20.0004  9.20907e+21
-19.8831  9.19019e+21
-19.7658  9.19248e+21
-19.6485  9.21736e+21
-19.5312  9.26441e+21
-19.4139  9.33162e+21
-19.2966  9.41526e+21
-19.1793  9.51035e+21
-19.062  9.61108e+21
-18.9447  9.71071e+21
-18.8274  9.80233e+21
-18.71  9.88017e+21
-18.5927  9.93914e+21
-18.4754  9.97593e+21
-18.3581  9.98965e+21
-18.2408  9.98062e+21
-18.1235  9.95203e+21
-18.0062  9.90823e+21
-17.8889  9.85496e+21
-17.7716  9.79818e+21
-17.6543  9.74369e+21
-17.537  9.69713e+21
-17.4197  9.66259e+21
-17.3024  9.64339e+21
-17.1851  9.64091e+21
-17.0678  9.65545e+21
-16.9505  9.68615e+21
-16.8332  9.73111e+21
-16.7159  9.7868e+21
-16.5986  9.84954e+21
-16.4813  9.91519e+21
-16.364  9.97958e+21
-16.2466  1.00391e+22
-16.1293  1.00907e+22
-16.012  1.01322e+22
-15.8947  1.0163e+22
-15.7774  1.01833e+22
-15.6601  1.01944e+22
-15.5428  1.01992e+22
-15.4255  1.02002e+22
-15.3082  1.02006e+22
-15.1909  1.02039e+22
-15.0736  1.02124e+22
-14.9563  1.0228e+22
-14.839  1.02519e+22
-14.7217  1.02842e+22
-14.6044  1.03243e+22
-14.4871  1.03703e+22
-14.3698  1.04203e+22
-14.2525  1.04715e+22
-14.1352  1.05205e+22
-14.0178  1.05653e+22
-13.9005  1.0603e+22
-13.7832  1.06324e+22
-13.6659  1.06524e+22
-13.5486  1.06627e+22
-13.4313  1.06647e+22
-13.314  1.06599e+22
-13.1967  1.0651e+22
-13.0794  1.06404e+22
-12.9621  1.06309e+22
-12.8448  1.06254e+22
-12.7275  1.06257e+22
-12.6102  1.06337e+22
-12.4929  1.06498e+22
-12.3756  1.06739e+22
-12.2583  1.07053e+22
-12.141  1.07427e+22
-12.0237  1.07835e+22
-11.9064  1.08253e+22
-11.7891  1.08652e+22
-11.6718  1.09004e+22
-11.5544  1.09291e+22
-11.4371  1.09488e+22
-11.3198  1.09587e+22
-11.2025  1.09587e+22
-11.0852  1.09493e+22
-10.9679  1.09315e+22
-10.8506  1.09077e+22
-10.7333  1.08798e+22
-10.616  1.08501e+22
-10.4987  1.08212e+22
-10.3814  1.0795e+22
-10.2641  1.07734e+22
-10.1468  1.07577e+22
-10.0295  1.07486e+22
-9.91217  1.07467e+22
-9.79487  1.07514e+22
-9.67756  1.07625e+22
-9.56026  1.07786e+22
-9.44295  1.07984e+22
-9.32565  1.08206e+22
-9.20834  1.08436e+22
-9.09104  1.08661e+22
-8.97373  1.08869e+22
-8.85643  1.09051e+22
-8.73913  1.09209e+22
-8.62182  1.09339e+22
-8.50452  1.09449e+22
-8.38721  1.09545e+22
-8.26991  1.09636e+22
-8.1526  1.09729e+22
-8.03529  1.09831e+22
-7.91799  1.09949e+22
-7.80069  1.10087e+22
-7.68338  1.10245e+22
-7.56608  1.10423e+22
-7.44877  1.10621e+22
-7.33146  1.10831e+22
-7.21416  1.11051e+22
-7.09685  1.11271e+22
-6.97955  1.11485e+22
-6.86224  1.11693e+22
-6.74494  1.11884e+22
-6.62763  1.12057e+22
-6.51033  1.12215e+22
-6.39302  1.1236e+22
-6.27572  1.12494e+22
-6.15842  1.12625e+22
-6.04111  1.12757e+22
-5.92381  1.12892e+22
-5.8065  1.13033e+22
-5.68919  1.13182e+22
-5.57189  1.13339e+22
-5.45458  1.13501e+22
-5.33728  1.13663e+22
-5.21997  1.13823e+22
-5.10267  1.13973e+22
-4.98536  1.1411e+22
-4.86806  1.14222e+22
-4.75075  1.14305e+22
-4.63345  1.14352e+22
-4.51614  1.14357e+22
-4.39884  1.14322e+22
-4.28154  1.14243e+22
-4.16423  1.14135e+22
-4.04692  1.14004e+22
-3.92962  1.13866e+22
-3.81231  1.13739e+22
-3.69501  1.13634e+22
-3.5777  1.13565e+22
-3.4604  1.13536e+22
-3.34309  1.13551e+22
-3.22579  1.13609e+22
-3.10849  1.13705e+22
-2.99118  1.13835e+22
-2.87387  1.13988e+22
-2.75657  1.14161e+22
-2.63926  1.14341e+22
-2.52196  1.14524e+22
-2.40465  1.14697e+22
-2.28735  1.14849e+22
-2.17005  1.14972e+22
-2.05274  1.15047e+22
-1.93544  1.1507e+22
-1.81813  1.15037e+22
-1.70083  1.14946e+22
-1.58352  1.14805e+22
-1.46622  1.1462e+22
-1.34891  1.14407e+22
-1.2316  1.14175e+22
-1.1143  1.13935e+22
-0.996995  1.13698e+22
-0.87969  1.13469e+22
-0.762385  1.13252e+22
-0.64508  1.13051e+22
-0.527775  1.12872e+22
-0.41047  1.12717e+22
-0.293165  1.12595e+22
-0.17586  1.12509e+22
-0.058555  1.12468e+22
0.05875  1.12473e+22
0.176055  1.12523e+22
0.29336  1.12618e+22
0.410665  1.12747e+22
0.52797  1.12909e+22
0.645275  1.13093e+22
0.76258  1.13298e+22
0.879885  1.13517e+22
0.99719  1.13748e+22
1.1145  1.13986e+22
1.2318  1.14225e+22
1.3491  1.14455e+22
1.46641  1.14667e+22
1.58371  1.14849e+22
1.70102  1.14991e+22
1.81832  1.15079e+22
1.93563  1.15113e+22
2.05294  1.15089e+22
2.17024  1.15014e+22
2.28754  1.14897e+22
2.40485  1.14747e+22
2.52216  1.1458e+22
2.63946  1.144e+22
2.75677  1.14223e+22
2.87407  1.14057e+22
2.99137  1.13907e+22
3.10868  1.13783e+22
3.22599  1.13689e+22
3.34329  1.13635e+22
3.4606  1.13622e+22
3.5779  1.13652e+22
3.69521  1.13724e+22
3.81251  1.13832e+22
3.92982  1.13962e+22
4.04712  1.141e+22
4.16443  1.14233e+22
4.28173  1.14345e+22
4.39903  1.14425e+22
4.51634  1.14463e+22
4.63364  1.14461e+22
4.75095  1.14418e+22
4.86825  1.14339e+22
4.98556  1.14231e+22
5.10286  1.14098e+22
5.22017  1.13952e+22
5.33748  1.13797e+22
5.45478  1.13638e+22
5.57209  1.13479e+22
5.68939  1.13325e+22
5.8067  1.13178e+22
5.924  1.13038e+22
6.0413  1.12904e+22
6.15861  1.12773e+22
6.27591  1.12644e+22
6.39322  1.12512e+22
6.51052  1.12371e+22
6.62783  1.12215e+22
6.74514  1.12043e+22
6.86244  1.11856e+22
6.97975  1.11655e+22
7.09705  1.11444e+22
7.21436  1.11229e+22
7.33166  1.11014e+22
7.44897  1.10809e+22
7.56627  1.10617e+22
7.68358  1.10441e+22
7.80088  1.10287e+22
7.91819  1.10152e+22
8.03549  1.10036e+22
8.1528  1.09936e+22
8.2701  1.09842e+22
8.38741  1.09752e+22
8.50471  1.09656e+22
8.62202  1.09546e+22
8.73932  1.09414e+22
8.85662  1.09258e+22
8.97393  1.09075e+22
9.09123  1.08869e+22
9.20854  1.08645e+22
9.32584  1.08419e+22
9.44315  1.08202e+22
9.56045  1.08008e+22
9.67776  1.07853e+22
9.79506  1.07749e+22
9.91237  1.07709e+22
10.0297  1.07735e+22
10.147  1.07833e+22
10.2643  1.07996e+22
10.3816  1.08217e+22
10.4989  1.08484e+22
10.6162  1.08776e+22
10.7335  1.09074e+22
10.8508  1.09355e+22
10.9681  1.09593e+22
11.0854  1.09771e+22
11.2027  1.09865e+22
11.32  1.09863e+22
11.4373  1.0976e+22
11.5546  1.09561e+22
11.6719  1.09276e+22
11.7893  1.08923e+22
11.9066  1.08525e+22
12.0239  1.08108e+22
12.1412  1.07706e+22
12.2585  1.07336e+22
12.3758  1.07025e+22
12.4931  1.06789e+22
12.6104  1.06634e+22
12.7277  1.0656e+22
12.845  1.06563e+22
12.9623  1.06622e+22
13.0796  1.06721e+22
13.1969  1.0683e+22
13.3142  1.06922e+22
13.4315  1.06972e+22
13.5488  1.06952e+22
13.6661  1.0685e+22
13.7834  1.06651e+22
13.9007  1.06359e+22
14.018  1.05982e+22
14.1354  1.05537e+22
14.2527  1.05046e+22
14.37  1.04539e+22
14.4873  1.04043e+22
14.6046  1.03586e+22
14.7219  1.0319e+22
14.8392  1.02872e+22
14.9565  1.02637e+22
15.0738  1.02483e+22
15.1911  1.02403e+22
15.3084  1.02374e+22
15.4257  1.0237e+22
15.543  1.0236e+22
15.6603  1.02313e+22
15.7776  1.02202e+22
15.8949  1.01999e+22
16.0122  1.0169e+22
16.1295  1.01272e+22
16.2468  1.00756e+22
16.3641  1.00162e+22
16.4815  9.95208e+21
16.5988  9.88666e+21
16.7161  9.82434e+21
16.8334  9.76954e+21
16.9507  9.7254e+21
17.068  9.69549e+21
17.1853  9.68176e+21
17.3026  9.68503e+21
17.4199  9.70516e+21
17.5372  9.74066e+21
17.6545  9.78776e+21
17.7718  9.84271e+21
17.8891  9.89971e+21
18.0064  9.95308e+21
18.1237  9.99667e+21
18.241  1.00247e+22
18.3583  1.00332e+22
18.4756  1.00189e+22
18.5929  9.98131e+21
18.7102  9.9218e+21
18.8275  9.8434e+21
18.9449  9.75131e+21
19.0622  9.65158e+21
19.1795  9.55098e+21
19.2968  9.45615e+21
19.4141  9.37305e+21
19.5314  9.30666e+21
19.6487  9.26049e+21
19.766  9.23643e+21
19.8833  9.2352e+21
20.0006  9.25518e+21
20.1179  9.29371e+21
20.2352  9.34612e+21
20.3525  9.40706e+21
20.4698  9.47001e+21
20.5871  9.52833e+21
20.7044  9.5751e+21
20.8217  9.60494e+21
20.939  9.61366e+21
21.0563  9.59935e+21
21.1736  9.56168e+21
21.291  9.5026e+21
21.4083  9.42631e+21
21.5256  9.33822e+21
21.6429  9.2442e+21
21.7602  9.15054e+21
21.8775  9.06326e+21
21.9948  8.98697e+21
22.1121  8.92541e+21
22.2294  8.88101e+21
22.3467  8.85395e+21
22.464  8.84382e+21
22.5813  8.84788e+21
22.6986  8.86312e+21
22.8159  8.88489e+21
22.9332  8.90849e+21
23.0505  8.92908e+21
23.1678  8.94187e+21
23.2851  8.94375e+21
23.4024  8.93232e+21
23.5198  8.90657e+21
23.6371  8.86768e+21
23.7544  8.8178e+21
23.8717  8.76064e+21
23.989  8.70058e+21
24.1063  8.64216e+21
24.2236  8.58984e+21
24.3409  8.54744e+21
24.4582  8.51764e+21
24.5755  8.50211e+21
24.6928  8.50092e+21
24.8101  8.51286e+21
24.9274  8.5352e+21
25.0447  8.56423e+21
25.162  8.59501e+21
25.2793  8.62262e+21
25.3966  8.64117e+21
25.5139  8.64631e+21
25.6312  8.63392e+21
25.7485  8.60184e+21
25.8658  8.5492e+21
25.9832  8.47713e+21
26.1005  8.38861e+21
26.2178  8.28776e+21
26.3351  8.1799e+21
26.4524  8.07045e+21
26.5697  7.96544e+21
26.687  7.86939e+21
26.8043  7.78682e+21
26.9216  7.72064e+21
27.0389  7.67245e+21
27.1562  7.64294e+21
27.2735  7.63097e+21
27.3908  7.63465e+21
27.5081  7.65096e+21
27.6254  7.67609e+21
27.7427  7.70574e+21
27.86  7.73552e+21
27.9773  7.76151e+21
28.0946  7.78014e+21
28.212  7.78849e+21
28.3293  7.78551e+21
28.4466  7.77054e+21
28.5639  7.74451e+21
28.6812  7.70918e+21
28.7985  7.66684e+21
28.9158  7.62006e+21
29.0331  7.57166e+21
29.1504  7.52385e+21
29.2677  7.47862e+21
29.385  7.43725e+21
29.5023  7.40055e+21
29.6196  7.36838e+21
29.7369  7.34033e+21
29.8542  7.31531e+21
29.9715  7.29222e+21
30.0888  7.26933e+21
30.2061  7.24578e+21
30.3234  7.22037e+21
30.4407  7.19235e+21
30.558  7.16185e+21
30.6754  7.12891e+21
30.7927  7.09476e+21
30.91  7.06054e+21
31.0273  7.0277e+21
31.1446  6.99786e+21
31.2619  6.9724e+21
31.3792  6.95208e+21
31.4965  6.93766e+21
31.6138  6.92892e+21
31.7311  6.92495e+21
31.8484  6.92455e+21
31.9657  6.92571e+21
32.083  6.92587e+21
32.2003  6.92276e+21
32.3176  6.91367e+21
32.4349  6.8963e+21
32.5522  6.86903e+21
32.6695  6.83072e+21
32.7868  6.78135e+21
32.9042  6.72132e+21
33.0215  6.65267e+21
33.1388  6.57738e+21
33.2561  6.49853e+21
33.3734  6.41908e+21
33.4907  6.34211e+21
33.608  6.27051e+21
33.7253  6.20638e+21
33.8426  6.1514e+21
33.9599  6.10661e+21
34.0772  6.0722e+21
34.1945  6.04796e+21
34.3118  6.03264e+21
34.4291  6.02485e+21
34.5464  6.02275e+21
34.6637  6.02438e+21
34.781  6.02752e+21
34.8983  6.03077e+21
35.0156  6.03236e+21
35.1329  6.03108e+21
35.2503  6.02696e+21
35.3676  6.0195e+21
35.4849  6.00963e+21
35.6022  5.99783e+21
35.7195  5.98508e+21
35.8368  5.97241e+21
35.9541  5.9604e+21
36.0714  5.94948e+21
36.1887  5.93974e+21
36.306  5.93085e+21
36.4233  5.92185e+21
36.5406  5.91168e+21
36.6579  5.89915e+21
36.7752  5.88219e+21
36.8925  5.85956e+21
37.0098  5.82955e+21
37.1271  5.79086e+21
37.2444  5.74283e+21
37.3617  5.68526e+21
37.479  5.61886e+21
37.5964  5.54458e+21
37.7137  5.46485e+21
37.831  5.382e+21
37.9483  5.29916e+21
38.0656  5.21903e+21
38.1829  5.14451e+21
38.3002  5.0779e+21
38.4175  5.02086e+21
38.5348  4.9744e+21
38.6521  4.9388e+21
38.7694  4.91394e+21
38.8867  4.8991e+21
39.004  4.89269e+21
39.1213  4.89314e+21
39.2386  4.89845e+21
39.3559  4.90646e+21
39.4732  4.91474e+21
39.5905  4.92116e+21
39.7078  4.92339e+21
39.8251  4.91968e+21
39.9425  4.90916e+21
40.0598  4.89076e+21
40.1771  4.86518e+21
40.2944  4.83281e+21
40.4117  4.79525e+21
40.529  4.75398e+21
40.6463  4.71057e+21
40.7636  4.66682e+21
40.8809  4.62422e+21
40.9982  4.5837e+21
41.1155  4.54625e+21
41.2328  4.51231e+21
41.3501  4.48227e+21
41.4674  4.45614e+21
41.5847  4.43391e+21
41.702  4.41518e+21
41.8193  4.39944e+21
41.9366  4.38581e+21
42.0539  4.37355e+21
42.1712  4.36147e+21
42.2885  4.34863e+21
42.4059  4.3342e+21
42.5232  4.31787e+21
42.6405  4.29943e+21
42.7578  4.2788e+21
42.8751  4.25649e+21
42.9924  4.23286e+21
43.1097  4.20839e+21
43.227  4.18298e+21
43.3443  4.1567e+21
43.4616  4.12929e+21
43.5789  4.1005e+21
43.6962  4.06976e+21
43.8135  4.0367e+21
43.9308  4.00125e+21
44.0481  3.96351e+21
44.1654  3.92386e+21
44.2827  3.88255e+21
44.4  3.84013e+21
44.5173  3.79709e+21
44.6347  3.75398e+21
44.752  3.71132e+21
44.8693  3.66985e+21
44.9866  3.63008e+21
45.1039  3.59298e+21
45.2212  3.55937e+21
45.3385  3.52972e+21
45.4558  3.505e+21
45.5731  3.48565e+21
45.6904  3.47152e+21
45.8077  3.46266e+21
45.925  3.45808e+21
46.0423  3.45707e+21
46.1596  3.45833e+21
46.2769  3.4606e+21
46.3942  3.46262e+21
46.5115  3.46303e+21
46.6288  3.46058e+21
46.7461  3.45453e+21
46.8634  3.44385e+21
46.9808  3.42829e+21
47.0981  3.40744e+21
47.2154  3.3818e+21
47.3327  3.35189e+21
47.45  3.31831e+21
47.5673  3.28241e+21
47.6846  3.24524e+21
47.8019  3.2081e+21
47.9192  3.17202e+21
48.0365  3.13776e+21
48.1538  3.10601e+21
48.2711  3.07703e+21
48.3884  3.05088e+21
48.5057  3.02706e+21
48.623  3.00529e+21
48.7403  2.98497e+21
48.8576  2.96554e+21
48.9749  2.94598e+21
49.0922  2.92556e+21
49.2095  2.9033e+21
49.3269  2.87834e+21
49.4442  2.85015e+21
49.5615  2.81849e+21
49.6788  2.78317e+21
49.7961  2.74493e+21
49.9134  2.70442e+21
50.0307  2.66292e+21
50.148  2.6219e+21
50.2653  2.58264e+21
50.3826  2.54639e+21
50.4999  2.51434e+21
50.6172  2.48679e+21
50.7345  2.46431e+21
50.8518  2.44665e+21
