#S 1 spectral density
#N 2
#UFWHM 14.6631
#L  abscissas [um]  spectral density
-58.5938  5.86175e+20
-58.4764  6.39527e+20
-58.3591  6.71836e+20
-58.2418  6.78649e+20
-58.1245  6.59717e+20
-58.0072  6.19435e+20
-57.8899  5.66082e+20
-57.7726  5.10225e+20
-57.6553  4.6347e+20
-57.538  4.35246e+20
-57.4207  4.31697e+20
-57.3034  4.53842e+20
-57.1861  4.97985e+20
-57.0688  5.56154e+20
-56.9515  6.18245e+20
-56.8342  6.74141e+20
-56.7169  7.15927e+20
-56.5996  7.39633e+20
-56.4823  7.45865e+20
-56.365  7.39148e+20
-56.2477  7.26908e+20
-56.1303  7.16871e+20
-56.013  7.15719e+20
-55.8957  7.26535e+20
-55.7784  7.48717e+20
-55.6611  7.77678e+20
-55.5438  8.06637e+20
-55.4265  8.28154e+20
-55.3092  8.36439e+20
-55.1919  8.28671e+20
-55.0746  8.0618e+20
-54.9573  7.73427e+20
-54.84  7.37662e+20
-54.7227  7.05992e+20
-54.6054  6.84133e+20
-54.4881  6.74173e+20
-54.3708  6.7465e+20
-54.2535  6.80027e+20
-54.1362  6.82869e+20
-54.0189  6.75746e+20
-53.9016  6.53263e+20
-53.7842  6.1378e+20
-53.6669  5.60408e+20
-53.5496  5.0018e+20
-53.4323  4.43059e+20
-53.315  3.99451e+20
-53.1977  3.78052e+20
-53.0804  3.83807e+20
-52.9631  4.16995e+20
-52.8458  4.72875e+20
-52.7285  5.43241e+20
-52.6112  6.17606e+20
-52.4939  6.8574e+20
-52.3766  7.39444e+20
-52.2593  7.73531e+20
-52.142  7.8694e+20
-52.0247  7.81853e+20
-51.9074  7.62978e+20
-51.7901  7.36171e+20
-51.6728  7.06607e+20
-51.5555  6.78349e+20
-51.4381  6.53321e+20
-51.3208  6.31568e+20
-51.2035  6.11288e+20
-51.0862  5.90208e+20
-50.9689  5.65843e+20
-50.8516  5.36866e+20
-50.7343  5.02954e+20
-50.617  4.6569e+20
-50.4997  4.27532e+20
-50.3824  3.92057e+20
-50.2651  3.62673e+20
-50.1478  3.42445e+20
-50.0305  3.32823e+20
-49.9132  3.34218e+20
-49.7959  3.44997e+20
-49.6786  3.62493e+20
-49.5613  3.83062e+20
-49.444  4.03069e+20
-49.3267  4.19276e+20
-49.2094  4.29756e+20
-49.092  4.33799e+20
-48.9747  4.32421e+20
-48.8574  4.27378e+20
-48.7401  4.21355e+20
-48.6228  4.16635e+20
-48.5055  4.15269e+20
-48.3882  4.18121e+20
-48.2709  4.24928e+20
-48.1536  4.34454e+20
-48.0363  4.45034e+20
-47.919  4.54667e+20
-47.8017  4.61878e+20
-47.6844  4.6613e+20
-47.5671  4.67567e+20
-47.4498  4.67407e+20
-47.3325  4.67081e+20
-47.2152  4.68265e+20
-47.0979  4.71909e+20
-46.9806  4.78184e+20
-46.8633  4.85849e+20
-46.7459  4.92919e+20
-46.6286  4.96959e+20
-46.5113  4.9533e+20
-46.394  4.86213e+20
-46.2767  4.68917e+20
-46.1594  4.44788e+20
-46.0421  4.16279e+20
-45.9248  3.87256e+20
-45.8075  3.61925e+20
-45.6902  3.44085e+20
-45.5729  3.36152e+20
-45.4556  3.38793e+20
-45.3383  3.50487e+20
-45.221  3.67981e+20
-45.1037  3.87007e+20
-44.9864  4.0323e+20
-44.8691  4.13026e+20
-44.7518  4.14791e+20
-44.6345  4.08711e+20
-44.5172  3.97163e+20
-44.3998  3.83742e+20
-44.2825  3.72686e+20
-44.1652  3.6727e+20
-44.0479  3.69836e+20
-43.9306  3.80491e+20
-43.8133  3.9766e+20
-43.696  4.1813e+20
-43.5787  4.37919e+20
-43.4614  4.53627e+20
-43.3441  4.62486e+20
-43.2268  4.63652e+20
-43.1095  4.5803e+20
-42.9922  4.4763e+20
-42.8749  4.35611e+20
-42.7576  4.24807e+20
-42.6403  4.17089e+20
-42.523  4.12955e+20
-42.4057  4.1132e+20
-42.2884  4.09696e+20
-42.171  4.04781e+20
-42.0537  3.93975e+20
-41.9364  3.75816e+20
-41.8191  3.51147e+20
-41.7018  3.23257e+20
-41.5845  2.97672e+20
-41.4672  2.81719e+20
-41.3499  2.8239e+20
-41.2326  3.05466e+20
-41.1153  3.53689e+20
-40.998  4.25947e+20
-40.8807  5.16826e+20
-40.7634  6.1757e+20
-40.6461  7.17298e+20
-40.5288  8.04938e+20
-40.4115  8.71872e+20
-40.2942  9.12923e+20
-40.1769  9.27846e+20
-40.0596  9.21298e+20
-39.9423  9.00959e+20
-39.825  8.76582e+20
-39.7076  8.56762e+20
-39.5903  8.47405e+20
-39.473  8.49841e+20
-39.3557  8.60884e+20
-39.2384  8.73263e+20
-39.1211  8.77944e+20
-39.0038  8.65705e+20
-38.8865  8.30228e+20
-38.7692  7.69482e+20
-38.6519  6.86158e+20
-38.5346  5.87688e+20
-38.4173  4.84819e+20
-38.3  3.88916e+20
-38.1827  3.10257e+20
-38.0654  2.55588e+20
-37.9481  2.27147e+20
-37.8308  2.2252e+20
-37.7135  2.35539e+20
-37.5962  2.57917e+20
-37.4789  2.81148e+20
-37.3615  2.98567e+20
-37.2442  3.06619e+20
-37.1269  3.05322e+20
-37.0096  2.97744e+20
-36.8923  2.89116e+20
-36.775  2.85377e+20
-36.6577  2.91087e+20
-36.5404  3.08539e+20
-36.4231  3.37032e+20
-36.3058  3.73181e+20
-36.1885  4.11516e+20
-36.0712  4.46022e+20
-35.9539  4.7146e+20
-35.8366  4.84637e+20
-35.7193  4.85157e+20
-35.602  4.75517e+20
-35.4847  4.60191e+20
-35.3674  4.44943e+20
-35.2501  4.35106e+20
-35.1328  4.34595e+20
-35.0154  4.44866e+20
-34.8981  4.6447e+20
-34.7808  4.89724e+20
-34.6635  5.15341e+20
-34.5462  5.35501e+20
-34.4289  5.45426e+20
-34.3116  5.42044e+20
-34.1943  5.25057e+20
-34.077  4.96809e+20
-33.9597  4.62082e+20
-33.8424  4.26883e+20
-33.7251  3.97815e+20
-33.6078  3.80119e+20
-33.4905  3.77563e+20
-33.3732  3.90916e+20
-33.2559  4.18141e+20
-33.1386  4.54826e+20
-33.0213  4.94918e+20
-32.904  5.31802e+20
-32.7867  5.59786e+20
-32.6693  5.753e+20
-32.552  5.7709e+20
-32.4347  5.67269e+20
-32.3174  5.4995e+20
-32.2001  5.30975e+20
-32.0828  5.16259e+20
-31.9655  5.10632e+20
-31.8482  5.1682e+20
-31.7309  5.34792e+20
-31.6136  5.62424e+20
-31.4963  5.95564e+20
-31.379  6.29501e+20
-31.2617  6.60053e+20
-31.1444  6.84203e+20
-31.0271  7.00819e+20
-30.9098  7.10313e+20
-30.7925  7.14016e+20
-30.6752  7.13317e+20
-30.5579  7.08997e+20
-30.4406  7.0078e+20
-30.3232  6.87108e+20
-30.2059  6.65637e+20
-30.0886  6.34722e+20
-29.9713  5.93526e+20
-29.854  5.43363e+20
-29.7367  4.87727e+20
-29.6194  4.31942e+20
-29.5021  3.82331e+20
-29.3848  3.44955e+20
-29.2675  3.24513e+20
-29.1502  3.23354e+20
-29.0329  3.41219e+20
-28.9156  3.75022e+20
-28.7983  4.20317e+20
-28.681  4.71898e+20
-28.5637  5.24931e+20
-28.4464  5.76235e+20
-28.3291  6.24347e+20
-28.2118  6.69609e+20
-28.0944  7.13452e+20
-27.9771  7.57568e+20
-27.8598  8.02896e+20
-27.7425  8.49007e+20
-27.6252  8.93531e+20
-27.5079  9.3274e+20
-27.3906  9.61943e+20
-27.2733  9.76151e+20
-27.156  9.7218e+20
-27.0387  9.48408e+20
-26.9214  9.0621e+20
-26.8041  8.49484e+20
-26.6868  7.84447e+20
-26.5695  7.18548e+20
-26.4522  6.59246e+20
-26.3349  6.12707e+20
-26.2176  5.82586e+20
-26.1003  5.6988e+20
-25.983  5.72255e+20
-25.8657  5.84979e+20
-25.7483  6.0185e+20
-25.631  6.1609e+20
-25.5137  6.22008e+20
-25.3964  6.15909e+20
-25.2791  5.9677e+20
-25.1618  5.66304e+20
-25.0445  5.29032e+20
-24.9272  4.90884e+20
-24.8099  4.58678e+20
-24.6926  4.38597e+20
-24.5753  4.35302e+20
-24.458  4.51077e+20
-24.3407  4.85499e+20
-24.2234  5.35381e+20
-24.1061  5.95738e+20
-23.9888  6.60616e+20
-23.8715  7.239e+20
-23.7542  7.80823e+20
-23.6369  8.28306e+20
-23.5196  8.65696e+20
-23.4023  8.93803e+20
-23.2849  9.14811e+20
-23.1676  9.30654e+20
-23.0503  9.42334e+20
-22.933  9.48531e+20
-22.8157  9.4622e+20
-22.6984  9.30878e+20
-22.5811  8.97826e+20
-22.4638  8.43672e+20
-22.3465  7.6831e+20
-22.2292  6.75397e+20
-22.1119  5.72966e+20
-21.9946  4.72142e+20
-21.8773  3.85121e+20
-21.76  3.2285e+20
-21.6427  2.92314e+20
-21.5254  2.9464e+20
-21.4081  3.24822e+20
-21.2908  3.72072e+20
-21.1735  4.2232e+20
-21.0561  4.61181e+20
-20.9388  4.77197e+20
-20.8215  4.64278e+20
-20.7042  4.23115e+20
-20.5869  3.61336e+20
-20.4696  2.91255e+20
-20.3523  2.27737e+20
-20.235  1.8438e+20
-20.1177  1.71381e+20
-20.0004  1.93319e+20
-19.8831  2.4887e+20
-19.7658  3.31665e+20
-19.6485  4.3233e+20
-19.5312  5.40475e+20
-19.4139  6.47436e+20
-19.2966  7.47488e+20
-19.1793  8.37971e+20
-19.062  9.19469e+20
-18.9447  9.94251e+20
-18.8274  1.06403e+21
-18.71  1.12965e+21
-18.5927  1.18886e+21
-18.4754  1.23755e+21
-18.3581  1.26995e+21
-18.2408  1.27909e+21
-18.1235  1.26053e+21
-18.0062  1.21229e+21
-17.8889  1.13594e+21
-17.7716  1.03768e+21
-17.6543  9.26565e+20
-17.537  8.14275e+20
-17.4197  7.12825e+20
-17.3024  6.32805e+20
-17.1851  5.82059e+20
-17.0678  5.64534e+20
-16.9505  5.80326e+20
-16.8332  6.25969e+20
-16.7159  6.95488e+20
-16.5986  7.81584e+20
-16.4813  8.77327e+20
-16.364  9.76659e+20
-16.2466  1.07547e+21
-16.1293  1.17161e+21
-16.012  1.26461e+21
-15.8947  1.35512e+21
-15.7774  1.44392e+21
-15.6601  1.53161e+21
-15.5428  1.61749e+21
-15.4255  1.70027e+21
-15.3082  1.77675e+21
-15.1909  1.84361e+21
-15.0736  1.89714e+21
-14.9563  1.93435e+21
-14.839  1.95323e+21
-14.7217  1.95392e+21
-14.6044  1.93831e+21
-14.4871  1.90978e+21
-14.3698  1.87326e+21
-14.2525  1.83458e+21
-14.1352  1.79868e+21
-14.0178  1.76873e+21
-13.9005  1.74622e+21
-13.7832  1.73006e+21
-13.6659  1.71646e+21
-13.5486  1.70031e+21
-13.4313  1.67633e+21
-13.314  1.64038e+21
-13.1967  1.59014e+21
-13.0794  1.52687e+21
-12.9621  1.45534e+21
-12.8448  1.38301e+21
-12.7275  1.31909e+21
-12.6102  1.27269e+21
-12.4929  1.25229e+21
-12.3756  1.26305e+21
-12.2583  1.30713e+21
-12.141  1.38354e+21
-12.0237  1.48871e+21
-11.9064  1.61711e+21
-11.7891  1.76187e+21
-11.6718  1.91675e+21
-11.5544  2.0751e+21
-11.4371  2.22986e+21
-11.3198  2.37439e+21
-11.2025  2.50073e+21
-11.0852  2.60029e+21
-10.9679  2.66431e+21
-10.8506  2.68427e+21
-10.7333  2.65421e+21
-10.616  2.57082e+21
-10.4987  2.4356e+21
-10.3814  2.25537e+21
-10.2641  2.04154e+21
-10.1468  1.80912e+21
-10.0295  1.5755e+21
-9.91217  1.35782e+21
-9.79487  1.1712e+21
-9.67756  1.02698e+21
-9.56026  9.3199e+20
-9.44295  8.88836e+20
-9.32565  8.96203e+20
-9.20834  9.50748e+20
-9.09104  1.04817e+21
-8.97373  1.18497e+21
-8.85643  1.35907e+21
-8.73913  1.57047e+21
-8.62182  1.82026e+21
-8.50452  2.11038e+21
-8.38721  2.44246e+21
-8.26991  2.81649e+21
-8.1526  3.23074e+21
-8.03529  3.68125e+21
-7.91799  4.16257e+21
-7.80069  4.6673e+21
-7.68338  5.18901e+21
-7.56608  5.72067e+21
-7.44877  6.25771e+21
-7.33146  6.79498e+21
-7.21416  7.32931e+21
-7.09685  7.85634e+21
-6.97955  8.37139e+21
-6.86224  8.86762e+21
-6.74494  9.33472e+21
-6.62763  9.76202e+21
-6.51033  1.01353e+22
-6.39302  1.04404e+22
-6.27572  1.06639e+22
-6.15842  1.07956e+22
-6.04111  1.08268e+22
-5.92381  1.07557e+22
-5.8065  1.05846e+22
-5.68919  1.03216e+22
-5.57189  9.98146e+21
-5.45458  9.58198e+21
-5.33728  9.14549e+21
-5.21997  8.69628e+21
-5.10267  8.25916e+21
-4.98536  7.85836e+21
-4.86806  7.51621e+21
-4.75075  7.25173e+21
-4.63345  7.0791e+21
-4.51614  7.00952e+21
-4.39884  7.04839e+21
-4.28154  7.19704e+21
-4.16423  7.45277e+21
-4.04692  7.80748e+21
-3.92962  8.24965e+21
-3.81231  8.76289e+21
-3.69501  9.32549e+21
-3.5777  9.91249e+21
-3.4604  1.04948e+22
-3.34309  1.10408e+22
-3.22579  1.15201e+22
-3.10849  1.19062e+22
-2.99118  1.21771e+22
-2.87387  1.23217e+22
-2.75657  1.23372e+22
-2.63926  1.22337e+22
-2.52196  1.2029e+22
-2.40465  1.17497e+22
-2.28735  1.14251e+22
-2.17005  1.10863e+22
-2.05274  1.07609e+22
-1.93544  1.04714e+22
-1.81813  1.02356e+22
-1.70083  1.00644e+22
-1.58352  9.96402e+21
-1.46622  9.93617e+21
-1.34891  9.98078e+21
-1.2316  1.00956e+22
-1.1143  1.02761e+22
-0.996995  1.05159e+22
-0.87969  1.08057e+22
-0.762385  1.11306e+22
-0.64508  1.1474e+22
-0.527775  1.18129e+22
-0.41047  1.21243e+22
-0.293165  1.23837e+22
-0.17586  1.25698e+22
-0.058555  1.26672e+22
0.05875  1.26669e+22
0.176055  1.25689e+22
0.29336  1.23826e+22
0.410665  1.21231e+22
0.52797  1.18124e+22
0.645275  1.14744e+22
0.76258  1.1133e+22
0.879885  1.0809e+22
0.99719  1.05209e+22
1.1145  1.02816e+22
1.2318  1.01013e+22
1.3491  9.98585e+21
1.46641  9.94064e+21
1.58371  9.96746e+21
1.70102  1.00673e+22
1.81832  1.02378e+22
1.93563  1.04733e+22
2.05294  1.07629e+22
2.17024  1.10891e+22
2.28754  1.14284e+22
2.40485  1.17534e+22
2.52216  1.2033e+22
2.63946  1.22375e+22
2.75677  1.23406e+22
2.87407  1.23244e+22
2.99137  1.21797e+22
3.10868  1.19081e+22
3.22599  1.15224e+22
3.34329  1.10436e+22
3.4606  1.04984e+22
3.5779  9.91743e+21
3.69521  9.33176e+21
3.81251  8.76951e+21
3.92982  8.25675e+21
4.04712  7.81454e+21
4.16443  7.45921e+21
4.28173  7.20231e+21
4.39903  7.05176e+21
4.51634  7.01117e+21
4.63364  7.0786e+21
4.75095  7.24928e+21
4.86825  7.51216e+21
4.98556  7.85273e+21
5.10286  8.25222e+21
5.22017  8.68839e+21
5.33748  9.13711e+21
5.45478  9.57338e+21
5.57209  9.9723e+21
5.68939  1.03127e+22
5.8067  1.05754e+22
5.924  1.07465e+22
6.0413  1.08186e+22
6.15861  1.0788e+22
6.27591  1.06576e+22
6.39322  1.04354e+22
6.51052  1.01321e+22
6.62783  9.76091e+21
6.74514  9.33606e+21
6.86244  8.87117e+21
6.97975  8.37737e+21
7.09705  7.86425e+21
7.21436  7.33869e+21
7.33166  6.80544e+21
7.44897  6.26884e+21
7.56627  5.73182e+21
7.68358  5.19974e+21
7.80088  4.67744e+21
7.91819  4.17191e+21
8.03549  3.69e+21
8.1528  3.23872e+21
8.2701  2.8237e+21
8.38741  2.44913e+21
8.50471  2.11644e+21
8.62202  1.82583e+21
8.73932  1.57537e+21
8.85662  1.36308e+21
8.97393  1.18809e+21
9.09123  1.05061e+21
9.20854  9.52467e+20
9.32584  8.97432e+20
9.44315  8.8994e+20
9.56045  9.33298e+20
9.67776  1.02846e+21
9.79506  1.17308e+21
9.91237  1.36005e+21
10.0297  1.57788e+21
10.147  1.81127e+21
10.2643  2.04309e+21
10.3816  2.25636e+21
10.4989  2.43554e+21
10.6162  2.56969e+21
10.7335  2.65218e+21
10.8508  2.68148e+21
10.9681  2.66105e+21
11.0854  2.597e+21
11.2027  2.4976e+21
11.32  2.37167e+21
11.4373  2.22779e+21
11.5546  2.07347e+21
11.6719  1.91552e+21
11.7893  1.76117e+21
11.9066  1.61651e+21
12.0239  1.48862e+21
12.1412  1.3838e+21
12.2585  1.30777e+21
12.3758  1.26415e+21
12.4931  1.25397e+21
12.6104  1.27502e+21
12.7277  1.32172e+21
12.845  1.38589e+21
12.9623  1.45833e+21
13.0796  1.52973e+21
13.1969  1.59256e+21
13.3142  1.64267e+21
13.4315  1.67861e+21
13.5488  1.70235e+21
13.6661  1.71835e+21
13.7834  1.73209e+21
13.9007  1.74851e+21
14.018  1.77092e+21
14.1354  1.8009e+21
14.2527  1.83667e+21
14.37  1.87486e+21
14.4873  1.91078e+21
14.6046  1.93858e+21
14.7219  1.95367e+21
14.8392  1.95232e+21
14.9565  1.93293e+21
15.0738  1.89563e+21
15.1911  1.8423e+21
15.3084  1.77592e+21
15.4257  1.70023e+21
15.543  1.6184e+21
15.6603  1.53324e+21
15.7776  1.44639e+21
15.8949  1.35796e+21
16.0122  1.26742e+21
16.1295  1.17403e+21
16.2468  1.07712e+21
16.3641  9.77313e+20
16.4815  8.76684e+20
16.5988  7.7989e+20
16.7161  6.92745e+20
16.8334  6.22652e+20
16.9507  5.76844e+20
17.068  5.61365e+20
17.1853  5.79458e+20
17.3026  6.31052e+20
17.4199  7.11874e+20
17.5372  8.14095e+20
17.6545  9.26723e+20
17.7718  1.03796e+21
17.8891  1.13619e+21
18.0064  1.21224e+21
18.1237  1.26008e+21
18.241  1.27834e+21
18.3583  1.26905e+21
18.4756  1.23707e+21
18.5929  1.1888e+21
18.7102  1.1303e+21
18.8275  1.06524e+21
18.9449  9.95981e+20
19.0622  9.2142e+20
19.1795  8.39723e+20
19.2968  7.48758e+20
19.4141  6.48153e+20
19.5314  5.40573e+20
19.6487  4.32108e+20
19.766  3.31505e+20
19.8833  2.49173e+20
20.0006  1.94397e+20
20.1179  1.73435e+20
20.2352  1.87316e+20
20.3525  2.31187e+20
20.4698  2.94865e+20
20.5871  3.64332e+20
20.7044  4.25048e+20
20.8217  4.64585e+20
20.939  4.75991e+20
21.0563  4.58623e+20
21.1736  4.18793e+20
21.291  3.68282e+20
21.4083  3.21473e+20
21.5256  2.92361e+20
21.6429  2.91389e+20
21.7602  3.23433e+20
21.8775  3.87001e+20
21.9948  4.74873e+20
22.1121  5.76018e+20
22.2294  6.7823e+20
22.3467  7.70485e+20
22.464  8.44931e+20
22.5813  8.98171e+20
22.6986  9.30473e+20
22.8159  9.45218e+20
22.9332  9.47338e+20
23.0505  9.41279e+20
23.1678  9.29963e+20
23.2851  9.14532e+20
23.4024  8.93922e+20
23.5198  8.6597e+20
23.6371  8.28779e+20
23.7544  7.81175e+20
23.8717  7.24246e+20
23.989  6.60761e+20
24.1063  5.9572e+20
24.2236  5.35343e+20
24.3409  4.85636e+20
24.4582  4.51557e+20
24.5755  4.36193e+20
24.6928  4.39872e+20
24.8101  4.60422e+20
24.9274  4.92946e+20
25.0447  5.31343e+20
25.162  5.68687e+20
25.2793  5.98972e+20
25.3966  6.17851e+20
25.5139  6.23533e+20
25.6312  6.17233e+20
25.7485  6.02649e+20
25.8658  5.85551e+20
25.9832  5.72674e+20
26.1005  5.70323e+20
26.2178  5.83286e+20
26.3351  6.13678e+20
26.4524  6.60483e+20
26.5697  7.19972e+20
26.687  7.85836e+20
26.8043  8.50606e+20
26.9216  9.06856e+20
27.0389  9.4847e+20
27.1562  9.71597e+20
27.2735  9.75181e+20
27.3908  9.60453e+20
27.5081  9.3121e+20
27.6254  8.92252e+20
27.7427  8.48154e+20
27.86  8.02669e+20
27.9773  7.58079e+20
28.0946  7.14686e+20
28.212  6.71235e+20
28.3293  6.26179e+20
28.4466  5.77778e+20
28.5639  5.26054e+20
28.6812  4.72417e+20
28.7985  4.20134e+20
28.9158  3.74193e+20
29.0331  3.39897e+20
29.1504  3.21855e+20
29.2677  3.22947e+20
29.385  3.43517e+20
29.5023  3.81146e+20
29.6196  4.31031e+20
29.7369  4.87067e+20
29.8542  5.42871e+20
29.9715  5.93141e+20
30.0888  6.34355e+20
30.2061  6.65398e+20
30.3234  6.86876e+20
30.4407  7.00736e+20
30.558  7.09063e+20
30.6754  7.13367e+20
30.7927  7.14193e+20
30.91  7.10669e+20
31.0273  7.01255e+20
31.1446  6.84607e+20
31.2619  6.60485e+20
31.3792  6.30005e+20
31.4965  5.96187e+20
31.6138  5.63302e+20
31.7311  5.35965e+20
31.8484  5.18218e+20
31.9657  5.12262e+20
32.083  5.17985e+20
32.2003  5.32505e+20
32.3176  5.51099e+20
32.4349  5.67831e+20
32.5522  5.76981e+20
32.6695  5.7442e+20
32.7868  5.58433e+20
32.9042  5.30039e+20
33.0215  4.93152e+20
33.1388  4.53305e+20
33.2561  4.17233e+20
33.3734  3.90718e+20
33.4907  3.78159e+20
33.608  3.8148e+20
33.7253  3.9966e+20
33.8426  4.2909e+20
33.9599  4.64266e+20
34.0772  4.98605e+20
34.1945  5.26317e+20
34.3118  5.42559e+20
34.4291  5.45166e+20
34.5464  5.34706e+20
34.6637  5.1411e+20
34.781  4.88442e+20
34.8983  4.63346e+20
35.0156  4.44102e+20
35.1329  4.34407e+20
35.2503  4.35417e+20
35.3676  4.45695e+20
35.4849  4.61239e+20
35.6022  4.76657e+20
35.7195  4.86242e+20
35.8368  4.85391e+20
35.9541  4.71828e+20
36.0714  4.46042e+20
36.1887  4.11316e+20
36.306  3.72928e+20
36.4233  3.36877e+20
36.5406  3.08595e+20
36.6579  2.91489e+20
36.7752  2.86052e+20
36.8925  2.89989e+20
37.0098  2.98522e+20
37.1271  3.05955e+20
37.2444  3.07044e+20
37.3617  2.98658e+20
37.479  2.80993e+20
37.5964  2.57722e+20
37.7137  2.3558e+20
37.831  2.22938e+20
37.9483  2.2814e+20
38.0656  2.57196e+20
38.1829  3.12274e+20
38.3002  3.91019e+20
38.4175  4.86607e+20
38.5348  5.88785e+20
38.6521  6.86108e+20
38.7694  7.68148e+20
38.8867  8.27765e+20
39.004  8.6215e+20
39.1213  8.73726e+20
39.2386  8.6916e+20
39.3559  8.57365e+20
39.4732  8.47644e+20
39.5905  8.46765e+20
39.7078  8.57734e+20
39.8251  8.78928e+20
39.9425  9.04216e+20
40.0598  9.2483e+20
40.1771  9.31258e+20
40.2944  9.15562e+20
40.4117  8.73508e+20
40.529  8.05381e+20
40.6463  7.16533e+20
40.7636  6.15987e+20
40.8809  5.14706e+20
40.9982  4.23674e+20
41.1155  3.51568e+20
41.2328  3.03645e+20
41.3501  2.81007e+20
41.4674  2.807e+20
41.5847  2.96942e+20
41.702  3.22506e+20
41.8193  3.50425e+20
41.9366  3.75012e+20
42.0539  3.93057e+20
42.1712  4.03799e+20
42.2885  4.08706e+20
42.4059  4.10497e+20
42.5232  4.12285e+20
42.6405  4.16627e+20
42.7578  4.24623e+20
42.8751  4.35538e+20
42.9924  4.47587e+20
43.1097  4.57912e+20
43.227  4.63443e+20
43.3443  4.62157e+20
43.4616  4.5318e+20
43.5789  4.37551e+20
43.6962  4.17818e+20
43.8135  3.9758e+20
43.9308  3.80676e+20
44.0481  3.70269e+20
44.1654  3.67877e+20
44.2827  3.73339e+20
44.4  3.84438e+20
44.5173  3.97602e+20
44.6347  4.08764e+20
44.752  4.14275e+20
44.8693  4.12045e+20
44.9866  4.01693e+20
45.1039  3.85201e+20
45.2212  3.65924e+20
45.3385  3.48479e+20
45.4558  3.37018e+20
45.5731  3.34767e+20
45.6904  3.4309e+20
45.8077  3.61441e+20
45.925  3.87162e+20
46.0423  4.16502e+20
46.1596  4.45125e+20
46.2769  4.69364e+20
46.3942  4.86487e+20
46.5115  4.9549e+20
46.6288  4.96922e+20
46.7461  4.92644e+20
46.8634  4.85224e+20
46.9808  4.77418e+20
47.0981  4.71064e+20
47.2154  4.67228e+20
47.3327  4.65975e+20
47.45  4.66193e+20
47.5673  4.66391e+20
47.6846  4.64973e+20
47.8019  4.608e+20
47.9192  4.53656e+20
48.0365  4.44133e+20
48.1538  4.33846e+20
48.2711  4.2456e+20
48.3884  4.18105e+20
48.5057  4.15481e+20
48.623  4.17095e+20
48.7403  4.21922e+20
48.8576  4.28124e+20
48.9749  4.33069e+20
49.0922  4.34411e+20
49.2095  4.30201e+20
49.3269  4.19714e+20
49.4442  4.03411e+20
49.5615  3.83568e+20
49.6788  3.63169e+20
49.7961  3.45923e+20
49.9134  3.35372e+20
50.0307  3.34194e+20
50.148  3.43788e+20
50.2653  3.63947e+20
50.3826  3.92944e+20
50.4999  4.27973e+20
50.6172  4.65494e+20
50.7345  5.0212e+20
50.8518  5.35452e+20
