#S 1 spectral density
#N 2
#UFWHM 24.5167
#L  abscissas [um]  spectral density
-58.5938  9.99366e+19
-58.4764  9.05354e+19
-58.3591  8.28641e+19
-58.2418  7.72723e+19
-58.1245  7.37905e+19
-58.0072  7.21643e+19
-57.8899  7.20212e+19
-57.7726  7.28538e+19
-57.6553  7.42921e+19
-57.538  7.6095e+19
-57.4207  7.81569e+19
-57.3034  8.0476e+19
-57.1861  8.31835e+19
-57.0688  8.63249e+19
-56.9515  9.00127e+19
-56.8342  9.41664e+19
-56.7169  9.88619e+19
-56.5996  1.04028e+20
-56.4823  1.09803e+20
-56.365  1.16239e+20
-56.2477  1.23446e+20
-56.1303  1.31344e+20
-56.013  1.3985e+20
-55.8957  1.48477e+20
-55.7784  1.56652e+20
-55.6611  1.63503e+20
-55.5438  1.68182e+20
-55.4265  1.70128e+20
-55.3092  1.68966e+20
-55.1919  1.64779e+20
-55.0746  1.58226e+20
-54.9573  1.50183e+20
-54.84  1.41999e+20
-54.7227  1.3484e+20
-54.6054  1.29808e+20
-54.4881  1.27578e+20
-54.3708  1.28267e+20
-54.2535  1.3157e+20
-54.1362  1.36712e+20
-54.0189  1.42672e+20
-53.9016  1.48299e+20
-53.7842  1.5262e+20
-53.6669  1.54988e+20
-53.5496  1.55108e+20
-53.4323  1.53118e+20
-53.315  1.49562e+20
-53.1977  1.45234e+20
-53.0804  1.41061e+20
-52.9631  1.37929e+20
-52.8458  1.36566e+20
-52.7285  1.37335e+20
-52.6112  1.40331e+20
-52.4939  1.45222e+20
-52.3766  1.51492e+20
-52.2593  1.58376e+20
-52.142  1.65171e+20
-52.0247  1.71165e+20
-51.9074  1.75863e+20
-51.7901  1.78926e+20
-51.6728  1.80408e+20
-51.5555  1.80374e+20
-51.4381  1.79065e+20
-51.3208  1.76825e+20
-51.2035  1.73896e+20
-51.0862  1.70643e+20
-50.9689  1.67199e+20
-50.8516  1.63775e+20
-50.7343  1.60422e+20
-50.617  1.57238e+20
-50.4997  1.54213e+20
-50.3824  1.51292e+20
-50.2651  1.48378e+20
-50.1478  1.45456e+20
-50.0305  1.42401e+20
-49.9132  1.39317e+20
-49.7959  1.36174e+20
-49.6786  1.33176e+20
-49.5613  1.30522e+20
-49.444  1.28446e+20
-49.3267  1.27074e+20
-49.2094  1.26441e+20
-49.092  1.26425e+20
-48.9747  1.26701e+20
-48.8574  1.2696e+20
-48.7401  1.2676e+20
-48.6228  1.25812e+20
-48.5055  1.23978e+20
-48.3882  1.2133e+20
-48.2709  1.1817e+20
-48.1536  1.14914e+20
-48.0363  1.12041e+20
-47.919  1.101e+20
-47.8017  1.09545e+20
-47.6844  1.1075e+20
-47.5671  1.13965e+20
-47.4498  1.1953e+20
-47.3325  1.27619e+20
-47.2152  1.38451e+20
-47.0979  1.52092e+20
-46.9806  1.68395e+20
-46.8633  1.86931e+20
-46.7459  2.06894e+20
-46.6286  2.27096e+20
-46.5113  2.46007e+20
-46.394  2.62155e+20
-46.2767  2.74076e+20
-46.1594  2.80805e+20
-46.0421  2.8184e+20
-45.9248  2.77511e+20
-45.8075  2.68742e+20
-45.6902  2.56809e+20
-45.5729  2.43558e+20
-45.4556  2.30603e+20
-45.3383  2.19517e+20
-45.221  2.11392e+20
-45.1037  2.06838e+20
-44.9864  2.0612e+20
-44.8691  2.09034e+20
-44.7518  2.14991e+20
-44.6345  2.23252e+20
-44.5172  2.3286e+20
-44.3998  2.42807e+20
-44.2825  2.51741e+20
-44.1652  2.58687e+20
-44.0479  2.6276e+20
-43.9306  2.63287e+20
-43.8133  2.6013e+20
-43.696  2.53655e+20
-43.5787  2.44793e+20
-43.4614  2.34716e+20
-43.3441  2.25031e+20
-43.2268  2.17055e+20
-43.1095  2.11967e+20
-42.9922  2.10213e+20
-42.8749  2.118e+20
-42.7576  2.16035e+20
-42.6403  2.21942e+20
-42.523  2.28324e+20
-42.4057  2.34165e+20
-42.2884  2.3873e+20
-42.171  2.41738e+20
-42.0537  2.43438e+20
-41.9364  2.44394e+20
-41.8191  2.45233e+20
-41.7018  2.4664e+20
-41.5845  2.49163e+20
-41.4672  2.53015e+20
-41.3499  2.58286e+20
-41.2326  2.64675e+20
-41.1153  2.71981e+20
-40.998  2.79832e+20
-40.8807  2.87884e+20
-40.7634  2.9584e+20
-40.6461  3.03443e+20
-40.5288  3.10279e+20
-40.4115  3.16043e+20
-40.2942  3.20529e+20
-40.1769  3.2328e+20
-40.0596  3.2425e+20
-39.9423  3.23511e+20
-39.825  3.21352e+20
-39.7076  3.18308e+20
-39.5903  3.14956e+20
-39.473  3.11908e+20
-39.3557  3.09705e+20
-39.2384  3.0862e+20
-39.1211  3.08503e+20
-39.0038  3.09229e+20
-38.8865  3.10289e+20
-38.7692  3.11222e+20
-38.6519  3.11773e+20
-38.5346  3.11747e+20
-38.4173  3.11262e+20
-38.3  3.10735e+20
-38.1827  3.10862e+20
-38.0654  3.12395e+20
-37.9481  3.16184e+20
-37.8308  3.23008e+20
-37.7135  3.33478e+20
-37.5962  3.4793e+20
-37.4789  3.66459e+20
-37.3615  3.88759e+20
-37.2442  4.14033e+20
-37.1269  4.41313e+20
-37.0096  4.6874e+20
-36.8923  4.94663e+20
-36.775  5.17019e+20
-36.6577  5.33968e+20
-36.5404  5.43874e+20
-36.4231  5.4574e+20
-36.3058  5.39469e+20
-36.1885  5.25652e+20
-36.0712  5.05739e+20
-35.9539  4.81733e+20
-35.8366  4.56086e+20
-35.7193  4.31273e+20
-35.602  4.09408e+20
-35.4847  3.91914e+20
-35.3674  3.79688e+20
-35.2501  3.72785e+20
-35.1328  3.70541e+20
-35.0154  3.72007e+20
-34.8981  3.75949e+20
-34.7808  3.81206e+20
-34.6635  3.86745e+20
-34.5462  3.92202e+20
-34.4289  3.97429e+20
-34.3116  4.02991e+20
-34.1943  4.09733e+20
-34.077  4.18996e+20
-33.9597  4.32113e+20
-33.8424  4.50354e+20
-33.7251  4.74603e+20
-33.6078  5.05306e+20
-33.4905  5.42102e+20
-33.3732  5.83883e+20
-33.2559  6.28759e+20
-33.1386  6.74419e+20
-33.0213  7.18016e+20
-32.904  7.56695e+20
-32.7867  7.88326e+20
-32.6693  8.10966e+20
-32.552  8.23641e+20
-32.4347  8.26789e+20
-32.3174  8.20889e+20
-32.2001  8.08015e+20
-32.0828  7.90164e+20
-31.9655  7.69679e+20
-31.8482  7.48983e+20
-31.7309  7.298e+20
-31.6136  7.13783e+20
-31.4963  7.01753e+20
-31.379  6.94214e+20
-31.2617  6.90874e+20
-31.1444  6.9127e+20
-31.0271  6.94572e+20
-30.9098  6.99676e+20
-30.7925  7.05668e+20
-30.6752  7.11487e+20
-30.5579  7.16165e+20
-30.4406  7.19111e+20
-30.3232  7.20137e+20
-30.2059  7.19266e+20
-30.0886  7.16609e+20
-29.9713  7.12671e+20
-29.854  7.08023e+20
-29.7367  7.03305e+20
-29.6194  6.98985e+20
-29.5021  6.95347e+20
-29.3848  6.92634e+20
-29.2675  6.9109e+20
-29.1502  6.90352e+20
-29.0329  6.90508e+20
-28.9156  6.91436e+20
-28.7983  6.9313e+20
-28.681  6.95829e+20
-28.5637  6.99818e+20
-28.4464  7.05907e+20
-28.3291  7.14731e+20
-28.2118  7.27126e+20
-28.0944  7.44141e+20
-27.9771  7.66003e+20
-27.8598  7.92854e+20
-27.7425  8.24286e+20
-27.6252  8.59019e+20
-27.5079  8.95554e+20
-27.3906  9.31727e+20
-27.2733  9.65597e+20
-27.156  9.95721e+20
-27.0387  1.02071e+21
-26.9214  1.04062e+21
-26.8041  1.05612e+21
-26.6868  1.06888e+21
-26.5695  1.08087e+21
-26.4522  1.09455e+21
-26.3349  1.11241e+21
-26.2176  1.13623e+21
-26.1003  1.16737e+21
-25.983  1.20607e+21
-25.8657  1.2518e+21
-25.7483  1.30343e+21
-25.631  1.35883e+21
-25.5137  1.41575e+21
-25.3964  1.47097e+21
-25.2791  1.52196e+21
-25.1618  1.56573e+21
-25.0445  1.60021e+21
-24.9272  1.6239e+21
-24.8099  1.63649e+21
-24.6926  1.63882e+21
-24.5753  1.63343e+21
-24.458  1.62322e+21
-24.3407  1.61262e+21
-24.2234  1.60581e+21
-24.1061  1.6068e+21
-23.9888  1.61874e+21
-23.8715  1.64327e+21
-23.7542  1.68082e+21
-23.6369  1.73035e+21
-23.5196  1.78962e+21
-23.4023  1.8559e+21
-23.2849  1.92619e+21
-23.1676  1.99792e+21
-23.0503  2.06906e+21
-22.933  2.13845e+21
-22.8157  2.20583e+21
-22.6984  2.27156e+21
-22.5811  2.33696e+21
-22.4638  2.40411e+21
-22.3465  2.47507e+21
-22.2292  2.5528e+21
-22.1119  2.63982e+21
-21.9946  2.73834e+21
-21.8773  2.85007e+21
-21.76  2.97538e+21
-21.6427  3.11349e+21
-21.5254  3.26172e+21
-21.4081  3.41649e+21
-21.2908  3.57264e+21
-21.1735  3.72484e+21
-21.0561  3.86807e+21
-20.9388  3.99784e+21
-20.8215  4.11177e+21
-20.7042  4.20894e+21
-20.5869  4.29054e+21
-20.4696  4.35935e+21
-20.3523  4.41978e+21
-20.235  4.47638e+21
-20.1177  4.53432e+21
-20.0004  4.59833e+21
-19.8831  4.67232e+21
-19.7658  4.75919e+21
-19.6485  4.86096e+21
-19.5312  4.97878e+21
-19.4139  5.11222e+21
-19.2966  5.25996e+21
-19.1793  5.42018e+21
-19.062  5.58967e+21
-18.9447  5.76498e+21
-18.8274  5.94251e+21
-18.71  6.11893e+21
-18.5927  6.29145e+21
-18.4754  6.45866e+21
-18.3581  6.61987e+21
-18.2408  6.77671e+21
-18.1235  6.93086e+21
-18.0062  7.08507e+21
-17.8889  7.24212e+21
-17.7716  7.40481e+21
-17.6543  7.57498e+21
-17.537  7.75335e+21
-17.4197  7.93989e+21
-17.3024  8.13335e+21
-17.1851  8.33241e+21
-17.0678  8.53478e+21
-16.9505  8.73899e+21
-16.8332  8.94334e+21
-16.7159  9.14733e+21
-16.5986  9.35057e+21
-16.4813  9.55388e+21
-16.364  9.75825e+21
-16.2466  9.96464e+21
-16.1293  1.01744e+22
-16.012  1.03885e+22
-15.8947  1.06074e+22
-15.7774  1.0831e+22
-15.6601  1.10587e+22
-15.5428  1.12888e+22
-15.4255  1.15195e+22
-15.3082  1.17484e+22
-15.1909  1.19728e+22
-15.0736  1.21906e+22
-14.9563  1.23999e+22
-14.839  1.25998e+22
-14.7217  1.27901e+22
-14.6044  1.29711e+22
-14.4871  1.31453e+22
-14.3698  1.33141e+22
-14.2525  1.34803e+22
-14.1352  1.36465e+22
-14.0178  1.38153e+22
-13.9005  1.39883e+22
-13.7832  1.41672e+22
-13.6659  1.43521e+22
-13.5486  1.45441e+22
-13.4313  1.4741e+22
-13.314  1.49425e+22
-13.1967  1.51466e+22
-13.0794  1.53519e+22
-12.9621  1.5557e+22
-12.8448  1.57612e+22
-12.7275  1.59637e+22
-12.6102  1.61655e+22
-12.4929  1.63683e+22
-12.3756  1.65736e+22
-12.2583  1.67846e+22
-12.141  1.7004e+22
-12.0237  1.72346e+22
-11.9064  1.74779e+22
-11.7891  1.77358e+22
-11.6718  1.80082e+22
-11.5544  1.82941e+22
-11.4371  1.85913e+22
-11.3198  1.88968e+22
-11.2025  1.92067e+22
-11.0852  1.95173e+22
-10.9679  1.98244e+22
-10.8506  2.01246e+22
-10.7333  2.04146e+22
-10.616  2.06926e+22
-10.4987  2.09578e+22
-10.3814  2.12103e+22
-10.2641  2.14513e+22
-10.1468  2.16832e+22
-10.0295  2.19089e+22
-9.91217  2.2131e+22
-9.79487  2.23529e+22
-9.67756  2.25764e+22
-9.56026  2.28025e+22
-9.44295  2.30311e+22
-9.32565  2.32609e+22
-9.20834  2.34892e+22
-9.09104  2.37125e+22
-8.97373  2.39268e+22
-8.85643  2.41295e+22
-8.73913  2.43162e+22
-8.62182  2.44863e+22
-8.50452  2.46391e+22
-8.38721  2.47753e+22
-8.26991  2.48978e+22
-8.1526  2.50097e+22
-8.03529  2.51147e+22
-7.91799  2.52175e+22
-7.80069  2.53225e+22
-7.68338  2.54326e+22
-7.56608  2.55508e+22
-7.44877  2.5679e+22
-7.33146  2.58172e+22
-7.21416  2.59647e+22
-7.09685  2.61203e+22
-6.97955  2.62813e+22
-6.86224  2.64459e+22
-6.74494  2.6612e+22
-6.62763  2.67772e+22
-6.51033  2.69411e+22
-6.39302  2.71041e+22
-6.27572  2.72667e+22
-6.15842  2.74316e+22
-6.04111  2.7601e+22
-5.92381  2.77779e+22
-5.8065  2.79656e+22
-5.68919  2.81662e+22
-5.57189  2.83815e+22
-5.45458  2.86114e+22
-5.33728  2.88554e+22
-5.21997  2.91103e+22
-5.10267  2.93722e+22
-4.98536  2.96355e+22
-4.86806  2.98941e+22
-4.75075  3.01418e+22
-4.63345  3.03729e+22
-4.51614  3.05829e+22
-4.39884  3.0769e+22
-4.28154  3.09311e+22
-4.16423  3.10712e+22
-4.04692  3.11932e+22
-3.92962  3.13034e+22
-3.81231  3.14087e+22
-3.69501  3.15158e+22
-3.5777  3.16309e+22
-3.4604  3.17582e+22
-3.34309  3.19e+22
-3.22579  3.20561e+22
-3.10849  3.22242e+22
-2.99118  3.23993e+22
-2.87387  3.25748e+22
-2.75657  3.27433e+22
-2.63926  3.2896e+22
-2.52196  3.30252e+22
-2.40465  3.31233e+22
-2.28735  3.31843e+22
-2.17005  3.32054e+22
-2.05274  3.31861e+22
-1.93544  3.31284e+22
-1.81813  3.30384e+22
-1.70083  3.29236e+22
-1.58352  3.2794e+22
-1.46622  3.266e+22
-1.34891  3.25316e+22
-1.2316  3.2417e+22
-1.1143  3.23226e+22
-0.996995  3.22515e+22
-0.87969  3.22046e+22
-0.762385  3.21786e+22
-0.64508  3.21709e+22
-0.527775  3.21756e+22
-0.41047  3.21873e+22
-0.293165  3.22009e+22
-0.17586  3.22123e+22
-0.058555  3.22187e+22
0.05875  3.22181e+22
0.176055  3.2211e+22
0.29336  3.21983e+22
0.410665  3.21836e+22
0.52797  3.21704e+22
0.645275  3.21641e+22
0.76258  3.21701e+22
0.879885  3.21939e+22
0.99719  3.22388e+22
1.1145  3.23076e+22
1.2318  3.23993e+22
1.3491  3.25113e+22
1.46641  3.26367e+22
1.58371  3.27675e+22
1.70102  3.28938e+22
1.81832  3.3005e+22
1.93563  3.30916e+22
2.05294  3.31455e+22
2.17024  3.31617e+22
2.28754  3.31376e+22
2.40485  3.30733e+22
2.52216  3.29725e+22
2.63946  3.28409e+22
2.75677  3.26856e+22
2.87407  3.2515e+22
2.99137  3.23372e+22
3.10868  3.21599e+22
3.22599  3.19896e+22
3.34329  3.1831e+22
3.4606  3.16868e+22
3.5779  3.15568e+22
3.69521  3.1439e+22
3.81251  3.13293e+22
3.92982  3.12207e+22
4.04712  3.11071e+22
4.16443  3.0982e+22
4.28173  3.08387e+22
4.39903  3.06734e+22
4.51634  3.04843e+22
4.63364  3.02719e+22
4.75095  3.00383e+22
4.86825  2.97885e+22
4.98556  2.9528e+22
5.10286  2.92636e+22
5.22017  2.90004e+22
5.33748  2.87446e+22
5.45478  2.84999e+22
5.57209  2.82694e+22
5.68939  2.80532e+22
5.8067  2.7852e+22
5.924  2.76633e+22
6.0413  2.74855e+22
6.15861  2.73151e+22
6.27591  2.71489e+22
6.39322  2.69849e+22
6.51052  2.68206e+22
6.62783  2.6655e+22
6.74514  2.64881e+22
6.86244  2.63209e+22
6.97975  2.61549e+22
7.09705  2.59924e+22
7.21436  2.58358e+22
7.33166  2.56869e+22
7.44897  2.55479e+22
7.56627  2.54189e+22
7.68358  2.52995e+22
7.80088  2.51884e+22
7.91819  2.50824e+22
8.03549  2.49783e+22
8.1528  2.48718e+22
8.2701  2.47585e+22
8.38741  2.46344e+22
8.50471  2.44963e+22
8.62202  2.43415e+22
8.73932  2.41692e+22
8.85662  2.39802e+22
8.97393  2.37755e+22
9.09123  2.35587e+22
9.20854  2.33333e+22
9.32584  2.3103e+22
9.44315  2.28712e+22
9.56045  2.26406e+22
9.67776  2.24128e+22
9.79506  2.2188e+22
9.91237  2.19645e+22
10.0297  2.17413e+22
10.147  2.15149e+22
10.2643  2.12822e+22
10.3816  2.10407e+22
10.4989  2.07879e+22
10.6162  2.05224e+22
10.7335  2.02444e+22
10.8508  1.99547e+22
10.9681  1.96548e+22
11.0854  1.93482e+22
11.2027  1.90381e+22
11.32  1.87286e+22
11.4373  1.84237e+22
11.5546  1.81272e+22
11.6719  1.78416e+22
11.7893  1.75698e+22
11.9066  1.73125e+22
12.0239  1.7069e+22
12.1412  1.68389e+22
12.2585  1.66198e+22
12.3758  1.6409e+22
12.4931  1.62038e+22
12.6104  1.60013e+22
12.7277  1.57997e+22
12.845  1.55973e+22
12.9623  1.53936e+22
13.0796  1.51888e+22
13.1969  1.49837e+22
13.3142  1.47802e+22
13.4315  1.45792e+22
13.5488  1.43827e+22
13.6661  1.41916e+22
13.7834  1.4007e+22
13.9007  1.38288e+22
14.018  1.3656e+22
14.1354  1.34878e+22
14.2527  1.33219e+22
14.37  1.31562e+22
14.4873  1.29878e+22
14.6046  1.2814e+22
14.7219  1.26333e+22
14.8392  1.24436e+22
14.9565  1.22441e+22
15.0738  1.20357e+22
15.1911  1.18184e+22
15.3084  1.15948e+22
15.4257  1.13669e+22
15.543  1.11376e+22
15.6603  1.09085e+22
15.7776  1.06823e+22
15.8949  1.046e+22
16.0122  1.02427e+22
16.1295  1.00302e+22
16.2468  9.82204e+21
16.3641  9.61695e+21
16.4815  9.41434e+21
16.5988  9.21272e+21
16.7161  9.01076e+21
16.8334  8.80839e+21
16.9507  8.60564e+21
17.068  8.4032e+21
17.1853  8.20243e+21
17.3026  8.00514e+21
17.4199  7.81334e+21
17.5372  7.62836e+21
17.6545  7.45167e+21
17.7718  7.2832e+21
17.8891  7.12181e+21
18.0064  6.96633e+21
18.1237  6.81363e+21
18.241  6.6609e+21
18.3583  6.50557e+21
18.4756  6.34565e+21
18.5929  6.18014e+21
18.7102  6.00925e+21
18.8275  5.83484e+21
18.9449  5.65932e+21
19.0622  5.48626e+21
19.1795  5.31916e+21
19.2968  5.16131e+21
19.4141  5.01596e+21
19.5314  4.88497e+21
19.6487  4.76949e+21
19.766  4.66996e+21
19.8833  4.58502e+21
20.0006  4.51307e+21
20.1179  4.45085e+21
20.2352  4.39467e+21
20.3525  4.33949e+21
20.4698  4.28055e+21
20.5871  4.21304e+21
20.7044  4.13275e+21
20.8217  4.037e+21
20.939  3.92456e+21
21.0563  3.79615e+21
21.1736  3.65477e+21
21.291  3.50437e+21
21.4083  3.3503e+21
21.5256  3.19775e+21
21.6429  3.05173e+21
21.7602  2.916e+21
21.8775  2.7929e+21
21.9948  2.68333e+21
22.1121  2.58687e+21
22.2294  2.50175e+21
22.3467  2.42586e+21
22.464  2.35646e+21
22.5813  2.29087e+21
22.6986  2.22689e+21
22.8159  2.16266e+21
22.9332  2.09668e+21
23.0505  2.02875e+21
23.1678  1.95897e+21
23.2851  1.88867e+21
23.4024  1.81988e+21
23.5198  1.75517e+21
23.6371  1.6975e+21
23.7544  1.6496e+21
23.8717  1.6136e+21
23.989  1.59058e+21
24.1063  1.58004e+21
24.2236  1.58028e+21
24.3409  1.5881e+21
24.4582  1.59959e+21
24.5755  1.61037e+21
24.6928  1.61643e+21
24.8101  1.61449e+21
24.9274  1.60228e+21
25.0447  1.57902e+21
25.162  1.54505e+21
25.2793  1.50184e+21
25.3966  1.4515e+21
25.5139  1.39688e+21
25.6312  1.34091e+21
25.7485  1.28643e+21
25.8658  1.23585e+21
25.9832  1.19101e+21
26.1005  1.15339e+21
26.2178  1.1233e+21
26.3351  1.10034e+21
26.4524  1.08331e+21
26.5697  1.07028e+21
26.687  1.05881e+21
26.8043  1.04675e+21
26.9216  1.03169e+21
27.0389  1.01203e+21
27.1562  9.87239e+20
27.2735  9.57518e+20
27.3908  9.23761e+20
27.5081  8.879e+20
27.6254  8.51781e+20
27.7427  8.1742e+20
27.86  7.86417e+20
27.9773  7.59886e+20
28.0946  7.3851e+20
28.212  7.21936e+20
28.3293  7.09804e+20
28.4466  7.01353e+20
28.5639  6.95542e+20
28.6812  6.9191e+20
28.7985  6.8944e+20
28.9158  6.87989e+20
29.0331  6.87416e+20
29.1504  6.8737e+20
29.2677  6.88367e+20
29.385  6.902e+20
29.5023  6.93018e+20
29.6196  6.96737e+20
29.7369  7.01213e+20
29.8542  7.06095e+20
29.9715  7.10797e+20
30.0888  7.14654e+20
30.2061  7.17247e+20
30.3234  7.1812e+20
30.4407  7.17026e+20
30.558  7.14016e+20
30.6754  7.09307e+20
30.7927  7.03531e+20
30.91  6.976e+20
31.0273  6.92452e+20
31.1446  6.89227e+20
31.2619  6.8884e+20
31.3792  6.9224e+20
31.4965  6.99955e+20
31.6138  7.12089e+20
31.7311  7.28035e+20
31.8484  7.47179e+20
31.9657  7.679e+20
32.083  7.88114e+20
32.2003  8.0574e+20
32.3176  8.18416e+20
32.4349  8.23873e+20
32.5522  8.20539e+20
32.6695  8.07437e+20
32.7868  7.84603e+20
32.9042  7.52722e+20
33.0215  7.1386e+20
33.1388  6.70233e+20
33.2561  6.24621e+20
33.3734  5.7986e+20
33.4907  5.38212e+20
33.608  5.01636e+20
33.7253  4.71234e+20
33.8426  4.47096e+20
33.9599  4.29071e+20
34.0772  4.16062e+20
34.1945  4.069e+20
34.3118  4.00102e+20
34.4291  3.94533e+20
34.5464  3.89277e+20
34.6637  3.83835e+20
34.781  3.78248e+20
34.8983  3.73033e+20
35.0156  3.69122e+20
35.1329  3.67706e+20
35.2503  3.70017e+20
35.3676  3.77068e+20
35.4849  3.89396e+20
35.6022  4.06973e+20
35.7195  4.28921e+20
35.8368  4.53691e+20
35.9541  4.79186e+20
36.0714  5.03023e+20
36.1887  5.22695e+20
36.306  5.36316e+20
36.4233  5.42312e+20
36.5406  5.40188e+20
36.6579  5.30088e+20
36.7752  5.13054e+20
36.8925  4.90602e+20
37.0098  4.64703e+20
37.1271  4.37313e+20
37.2444  4.10265e+20
37.3617  3.85145e+20
37.479  3.63085e+20
37.5964  3.44743e+20
37.7137  3.30495e+20
37.831  3.20201e+20
37.9483  3.13541e+20
38.0656  3.09825e+20
38.1829  3.08392e+20
38.3002  3.08321e+20
38.4175  3.08857e+20
38.5348  3.09365e+20
38.6521  3.0943e+20
38.7694  3.08926e+20
38.8867  3.07992e+20
39.004  3.06954e+20
39.1213  3.06275e+20
39.2386  3.06445e+20
39.3559  3.07693e+20
39.4732  3.0996e+20
39.5905  3.13011e+20
39.7078  3.16394e+20
39.8251  3.19493e+20
39.9425  3.21645e+20
40.0598  3.22377e+20
40.1771  3.21363e+20
40.2944  3.18624e+20
40.4117  3.14208e+20
40.529  3.08403e+20
40.6463  3.01621e+20
40.7636  2.94127e+20
40.8809  2.86188e+20
40.9982  2.78226e+20
41.1155  2.70463e+20
41.2328  2.63265e+20
41.3501  2.56911e+20
41.4674  2.51766e+20
41.5847  2.48003e+20
41.702  2.45546e+20
41.8193  2.44204e+20
41.9366  2.43394e+20
42.0539  2.42472e+20
42.1712  2.40754e+20
42.2885  2.37733e+20
42.4059  2.33151e+20
42.5232  2.27313e+20
42.6405  2.20972e+20
42.7578  2.15135e+20
42.8751  2.10998e+20
42.9924  2.09543e+20
43.1097  2.11426e+20
43.227  2.16639e+20
43.3443  2.247e+20
43.4616  2.34437e+20
43.5789  2.44449e+20
43.6962  2.53257e+20
43.8135  2.59596e+20
43.9308  2.62665e+20
44.0481  2.61989e+20
44.1654  2.57778e+20
44.2827  2.5072e+20
44.4  2.4172e+20
44.5173  2.31856e+20
44.6347  2.22287e+20
44.752  2.141e+20
44.8693  2.08205e+20
44.9866  2.05468e+20
45.1039  2.06329e+20
45.2212  2.10995e+20
45.3385  2.19277e+20
45.4558  2.30452e+20
45.5731  2.43439e+20
45.6904  2.56711e+20
45.8077  2.68489e+20
45.925  2.77137e+20
46.0423  2.81317e+20
46.1596  2.80074e+20
46.2769  2.73141e+20
46.3942  2.61052e+20
46.5115  2.44816e+20
46.6288  2.25794e+20
46.7461  2.05576e+20
46.8634  1.85669e+20
46.9808  1.672e+20
47.0981  1.50985e+20
47.2154  1.37487e+20
47.3327  1.26769e+20
47.45  1.18791e+20
47.5673  1.13341e+20
47.6846  1.10241e+20
47.8019  1.09152e+20
47.9192  1.09805e+20
48.0365  1.11816e+20
48.1538  1.1473e+20
48.2711  1.18034e+20
48.3884  1.21223e+20
48.5057  1.23865e+20
48.623  1.25672e+20
48.7403  1.26576e+20
48.8576  1.26728e+20
48.9749  1.26444e+20
49.0922  1.26135e+20
49.2095  1.2616e+20
49.3269  1.26776e+20
49.4442  1.28171e+20
49.5615  1.30264e+20
49.6788  1.32922e+20
49.7961  1.35905e+20
49.9134  1.39065e+20
50.0307  1.42184e+20
50.148  1.45196e+20
50.2653  1.48144e+20
50.3826  1.51019e+20
50.4999  1.53947e+20
50.6172  1.56987e+20
50.7345  1.60184e+20
50.8518  1.63523e+20
50.9691  1.6694e+20
