#S 1 spectral density
#N 2
#UFWHM 24.1648
#L  abscissas [um]  spectral density
-58.5938  1.55557e+20
-58.4764  1.54951e+20
-58.3591  1.54355e+20
-58.2418  1.53343e+20
-58.1245  1.51541e+20
-58.0072  1.48804e+20
-57.8899  1.45185e+20
-57.7726  1.41039e+20
-57.6553  1.37041e+20
-57.538  1.33961e+20
-57.4207  1.32512e+20
-57.3034  1.33219e+20
-57.1861  1.36241e+20
-57.0688  1.41234e+20
-56.9515  1.47493e+20
-56.8342  1.53876e+20
-56.7169  1.59237e+20
-56.5996  1.6257e+20
-56.4823  1.63273e+20
-56.365  1.61137e+20
-56.2477  1.56688e+20
-56.1303  1.50738e+20
-56.013  1.44519e+20
-55.8957  1.39226e+20
-55.7784  1.35959e+20
-55.6611  1.35309e+20
-55.5438  1.37474e+20
-55.4265  1.42264e+20
-55.3092  1.48994e+20
-55.1919  1.56773e+20
-55.0746  1.64687e+20
-54.9573  1.71787e+20
-54.84  1.77357e+20
-54.7227  1.80854e+20
-54.6054  1.82011e+20
-54.4881  1.808e+20
-54.3708  1.77279e+20
-54.2535  1.71781e+20
-54.1362  1.64637e+20
-54.0189  1.56285e+20
-53.9016  1.47144e+20
-53.7842  1.37746e+20
-53.6669  1.28503e+20
-53.5496  1.19885e+20
-53.4323  1.12292e+20
-53.315  1.06084e+20
-53.1977  1.01555e+20
-53.0804  9.88561e+19
-52.9631  9.80931e+19
-52.8458  9.92352e+19
-52.7285  1.02121e+20
-52.6112  1.06481e+20
-52.4939  1.11974e+20
-52.3766  1.18267e+20
-52.2593  1.25025e+20
-52.142  1.32019e+20
-52.0247  1.39145e+20
-51.9074  1.46345e+20
-51.7901  1.53693e+20
-51.6728  1.61369e+20
-51.5555  1.69414e+20
-51.4381  1.77786e+20
-51.3208  1.86393e+20
-51.2035  1.9488e+20
-51.0862  2.02913e+20
-50.9689  2.0991e+20
-50.8516  2.15416e+20
-50.7343  2.18954e+20
-50.617  2.20159e+20
-50.4997  2.18852e+20
-50.3824  2.1492e+20
-50.2651  2.08465e+20
-50.1478  1.99836e+20
-50.0305  1.89366e+20
-49.9132  1.77794e+20
-49.7959  1.6576e+20
-49.6786  1.54085e+20
-49.5613  1.43577e+20
-49.444  1.34961e+20
-49.3267  1.28686e+20
-49.2094  1.24993e+20
-49.092  1.23767e+20
-48.9747  1.24626e+20
-48.8574  1.27005e+20
-48.7401  1.30189e+20
-48.6228  1.33616e+20
-48.5055  1.36863e+20
-48.3882  1.39795e+20
-48.2709  1.42464e+20
-48.1536  1.45159e+20
-48.0363  1.4807e+20
-47.919  1.5144e+20
-47.8017  1.552e+20
-47.6844  1.59151e+20
-47.5671  1.62766e+20
-47.4498  1.65587e+20
-47.3325  1.6705e+20
-47.2152  1.66863e+20
-47.0979  1.64951e+20
-46.9806  1.61543e+20
-46.8633  1.57164e+20
-46.7459  1.52522e+20
-46.6286  1.48459e+20
-46.5113  1.45766e+20
-46.394  1.4527e+20
-46.2767  1.47543e+20
-46.1594  1.53004e+20
-46.0421  1.61721e+20
-45.9248  1.73554e+20
-45.8075  1.87883e+20
-45.6902  2.03655e+20
-45.5729  2.19636e+20
-45.4556  2.34206e+20
-45.3383  2.45791e+20
-45.221  2.52887e+20
-45.1037  2.54393e+20
-44.9864  2.49954e+20
-44.8691  2.39866e+20
-44.7518  2.25075e+20
-44.6345  2.07201e+20
-44.5172  1.88089e+20
-44.3998  1.69613e+20
-44.2825  1.53194e+20
-44.1652  1.39964e+20
-44.0479  1.30427e+20
-43.9306  1.24463e+20
-43.8133  1.21768e+20
-43.696  1.21779e+20
-43.5787  1.24023e+20
-43.4614  1.28067e+20
-43.3441  1.33796e+20
-43.2268  1.41117e+20
-43.1095  1.5006e+20
-42.9922  1.6038e+20
-42.8749  1.71856e+20
-42.7576  1.8399e+20
-42.6403  1.96307e+20
-42.523  2.0831e+20
-42.4057  2.19688e+20
-42.2884  2.30334e+20
-42.171  2.40371e+20
-42.0537  2.50039e+20
-41.9364  2.59608e+20
-41.8191  2.6902e+20
-41.7018  2.78125e+20
-41.5845  2.86336e+20
-41.4672  2.92891e+20
-41.3499  2.97043e+20
-41.2326  2.97921e+20
-41.1153  2.95166e+20
-40.998  2.88692e+20
-40.8807  2.78793e+20
-40.7634  2.66244e+20
-40.6461  2.51996e+20
-40.5288  2.37014e+20
-40.4115  2.2219e+20
-40.2942  2.08421e+20
-40.1769  1.96083e+20
-40.0596  1.85597e+20
-39.9423  1.77171e+20
-39.825  1.70924e+20
-39.7076  1.66953e+20
-39.5903  1.65168e+20
-39.473  1.65517e+20
-39.3557  1.67902e+20
-39.2384  1.71961e+20
-39.1211  1.77292e+20
-39.0038  1.83626e+20
-38.8865  1.90687e+20
-38.7692  1.98373e+20
-38.6519  2.06994e+20
-38.5346  2.16977e+20
-38.4173  2.28946e+20
-38.3  2.43469e+20
-38.1827  2.60971e+20
-38.0654  2.81442e+20
-37.9481  3.04409e+20
-37.8308  3.28903e+20
-37.7135  3.53566e+20
-37.5962  3.76767e+20
-37.4789  3.96956e+20
-37.3615  4.12934e+20
-37.2442  4.23845e+20
-37.1269  4.29641e+20
-37.0096  4.30544e+20
-36.8923  4.2762e+20
-36.775  4.2222e+20
-36.6577  4.15887e+20
-36.5404  4.10049e+20
-36.4231  4.05931e+20
-36.3058  4.04513e+20
-36.1885  4.0623e+20
-36.0712  4.11113e+20
-35.9539  4.18621e+20
-35.8366  4.27993e+20
-35.7193  4.38243e+20
-35.602  4.4815e+20
-35.4847  4.56537e+20
-35.3674  4.62627e+20
-35.2501  4.65812e+20
-35.1328  4.65945e+20
-35.0154  4.6343e+20
-34.8981  4.59011e+20
-34.7808  4.536e+20
-34.6635  4.48042e+20
-34.5462  4.43343e+20
-34.4289  4.39879e+20
-34.3116  4.37869e+20
-34.1943  4.36962e+20
-34.077  4.36765e+20
-33.9597  4.36537e+20
-33.8424  4.35655e+20
-33.7251  4.33449e+20
-33.6078  4.29817e+20
-33.4905  4.24756e+20
-33.3732  4.18656e+20
-33.2559  4.12203e+20
-33.1386  4.06325e+20
-33.0213  4.01987e+20
-32.904  4.00129e+20
-32.7867  4.01808e+20
-32.6693  4.07793e+20
-32.552  4.18498e+20
-32.4347  4.34424e+20
-32.3174  4.55074e+20
-32.2001  4.80116e+20
-32.0828  5.08423e+20
-31.9655  5.38538e+20
-31.8482  5.6886e+20
-31.7309  5.974e+20
-31.6136  6.2243e+20
-31.4963  6.42381e+20
-31.379  6.56173e+20
-31.2617  6.63138e+20
-31.1444  6.63199e+20
-31.0271  6.57025e+20
-30.9098  6.45548e+20
-30.7925  6.30346e+20
-30.6752  6.13018e+20
-30.5579  5.95232e+20
-30.4406  5.78599e+20
-30.3232  5.64602e+20
-30.2059  5.54351e+20
-30.0886  5.48353e+20
-29.9713  5.46708e+20
-29.854  5.49183e+20
-29.7367  5.55144e+20
-29.6194  5.63567e+20
-29.5021  5.73207e+20
-29.3848  5.83018e+20
-29.2675  5.92137e+20
-29.1502  5.99525e+20
-29.0329  6.04798e+20
-28.9156  6.07717e+20
-28.7983  6.08334e+20
-28.681  6.06916e+20
-28.5637  6.03886e+20
-28.4464  5.99855e+20
-28.3291  5.95462e+20
-28.2118  5.91392e+20
-28.0944  5.88592e+20
-27.9771  5.87573e+20
-27.8598  5.89023e+20
-27.7425  5.93741e+20
-27.6252  6.02058e+20
-27.5079  6.14657e+20
-27.3906  6.31869e+20
-27.2733  6.54182e+20
-27.156  6.82367e+20
-27.0387  7.16568e+20
-26.9214  7.57381e+20
-26.8041  8.04747e+20
-26.6868  8.58299e+20
-26.5695  9.16758e+20
-26.4522  9.78302e+20
-26.3349  1.0404e+21
-26.2176  1.10005e+21
-26.1003  1.15417e+21
-25.983  1.19986e+21
-25.8657  1.23497e+21
-25.7483  1.2586e+21
-25.631  1.27105e+21
-25.5137  1.27404e+21
-25.3964  1.26972e+21
-25.2791  1.26159e+21
-25.1618  1.25266e+21
-25.0445  1.24597e+21
-24.9272  1.24365e+21
-24.8099  1.24693e+21
-24.6926  1.25592e+21
-24.5753  1.27035e+21
-24.458  1.28828e+21
-24.3407  1.3082e+21
-24.2234  1.32779e+21
-24.1061  1.34497e+21
-23.9888  1.35781e+21
-23.8715  1.36488e+21
-23.7542  1.36548e+21
-23.6369  1.35975e+21
-23.5196  1.34876e+21
-23.4023  1.33477e+21
-23.2849  1.32048e+21
-23.1676  1.30943e+21
-23.0503  1.30506e+21
-22.933  1.31031e+21
-22.8157  1.32745e+21
-22.6984  1.35721e+21
-22.5811  1.39943e+21
-22.4638  1.45273e+21
-22.3465  1.51461e+21
-22.2292  1.58269e+21
-22.1119  1.65435e+21
-21.9946  1.72735e+21
-21.8773  1.80039e+21
-21.76  1.87283e+21
-21.6427  1.94488e+21
-21.5254  2.01742e+21
-21.4081  2.09191e+21
-21.2908  2.17008e+21
-21.1735  2.25396e+21
-21.0561  2.34588e+21
-20.9388  2.44773e+21
-20.8215  2.56158e+21
-20.7042  2.68835e+21
-20.5869  2.8284e+21
-20.4696  2.98033e+21
-20.3523  3.14172e+21
-20.235  3.30807e+21
-20.1177  3.47432e+21
-20.0004  3.63451e+21
-19.8831  3.78285e+21
-19.7658  3.91444e+21
-19.6485  4.0266e+21
-19.5312  4.1188e+21
-19.4139  4.19262e+21
-19.2966  4.25221e+21
-19.1793  4.30356e+21
-19.062  4.35338e+21
-18.9447  4.40873e+21
-18.8274  4.4761e+21
-18.71  4.56071e+21
-18.5927  4.66613e+21
-18.4754  4.79429e+21
-18.3581  4.9451e+21
-18.2408  5.11751e+21
-18.1235  5.30843e+21
-18.0062  5.51405e+21
-17.8889  5.73015e+21
-17.7716  5.95222e+21
-17.6543  6.17602e+21
-17.537  6.39797e+21
-17.4197  6.61525e+21
-17.3024  6.82622e+21
-17.1851  7.0307e+21
-17.0678  7.22937e+21
-16.9505  7.42425e+21
-16.8332  7.61744e+21
-16.7159  7.81176e+21
-16.5986  8.00945e+21
-16.4813  8.21256e+21
-16.364  8.42238e+21
-16.2466  8.63877e+21
-16.1293  8.86151e+21
-16.012  9.08963e+21
-15.8947  9.32175e+21
-15.7774  9.55652e+21
-15.6601  9.79295e+21
-15.5428  1.003e+22
-15.4255  1.0267e+22
-15.3082  1.05043e+22
-15.1909  1.07414e+22
-15.0736  1.09787e+22
-14.9563  1.12164e+22
-14.839  1.14551e+22
-14.7217  1.16949e+22
-14.6044  1.19357e+22
-14.4871  1.21779e+22
-14.3698  1.24212e+22
-14.2525  1.26652e+22
-14.1352  1.29101e+22
-14.0178  1.31558e+22
-13.9005  1.34022e+22
-13.7832  1.36499e+22
-13.6659  1.38991e+22
-13.5486  1.41518e+22
-13.4313  1.44079e+22
-13.314  1.4669e+22
-13.1967  1.49363e+22
-13.0794  1.52102e+22
-12.9621  1.54913e+22
-12.8448  1.5779e+22
-12.7275  1.60717e+22
-12.6102  1.63679e+22
-12.4929  1.66649e+22
-12.3756  1.69592e+22
-12.2583  1.72475e+22
-12.141  1.75262e+22
-12.0237  1.77916e+22
-11.9064  1.80413e+22
-11.7891  1.82741e+22
-11.6718  1.84898e+22
-11.5544  1.86896e+22
-11.4371  1.88769e+22
-11.3198  1.9056e+22
-11.2025  1.92325e+22
-11.0852  1.94131e+22
-10.9679  1.96033e+22
-10.8506  1.98089e+22
-10.7333  2.00334e+22
-10.616  2.02792e+22
-10.4987  2.05459e+22
-10.3814  2.08315e+22
-10.2641  2.11317e+22
-10.1468  2.14416e+22
-10.0295  2.17548e+22
-9.91217  2.20651e+22
-9.79487  2.23679e+22
-9.67756  2.26586e+22
-9.56026  2.29343e+22
-9.44295  2.31947e+22
-9.32565  2.34406e+22
-9.20834  2.3674e+22
-9.09104  2.38981e+22
-8.97373  2.41165e+22
-8.85643  2.43344e+22
-8.73913  2.45532e+22
-8.62182  2.47765e+22
-8.50452  2.50051e+22
-8.38721  2.52386e+22
-8.26991  2.54757e+22
-8.1526  2.57132e+22
-8.03529  2.59473e+22
-7.91799  2.6174e+22
-7.80069  2.639e+22
-7.68338  2.65914e+22
-7.56608  2.67766e+22
-7.44877  2.69449e+22
-7.33146  2.70971e+22
-7.21416  2.72353e+22
-7.09685  2.73631e+22
-6.97955  2.74842e+22
-6.86224  2.76036e+22
-6.74494  2.77256e+22
-6.62763  2.78535e+22
-6.51033  2.79903e+22
-6.39302  2.81374e+22
-6.27572  2.82949e+22
-6.15842  2.84619e+22
-6.04111  2.8636e+22
-5.92381  2.88144e+22
-5.8065  2.89945e+22
-5.68919  2.91739e+22
-5.57189  2.93514e+22
-5.45458  2.95261e+22
-5.33728  2.97003e+22
-5.21997  2.98761e+22
-5.10267  3.00579e+22
-4.98536  3.02502e+22
-4.86806  3.04578e+22
-4.75075  3.06851e+22
-4.63345  3.09353e+22
-4.51614  3.12103e+22
-4.39884  3.15092e+22
-4.28154  3.18298e+22
-4.16423  3.21675e+22
-4.04692  3.2515e+22
-3.92962  3.28643e+22
-3.81231  3.32058e+22
-3.69501  3.3529e+22
-3.5777  3.38243e+22
-3.4604  3.40831e+22
-3.34309  3.42988e+22
-3.22579  3.44676e+22
-3.10849  3.45898e+22
-2.99118  3.4668e+22
-2.87387  3.47086e+22
-2.75657  3.47201e+22
-2.63926  3.47126e+22
-2.52196  3.46962e+22
-2.40465  3.46802e+22
-2.28735  3.46712e+22
-2.17005  3.46745e+22
-2.05274  3.46922e+22
-1.93544  3.47227e+22
-1.81813  3.47634e+22
-1.70083  3.48092e+22
-1.58352  3.48542e+22
-1.46622  3.48925e+22
-1.34891  3.49181e+22
-1.2316  3.49263e+22
-1.1143  3.49142e+22
-0.996995  3.48802e+22
-0.87969  3.48259e+22
-0.762385  3.47534e+22
-0.64508  3.46692e+22
-0.527775  3.45802e+22
-0.41047  3.44945e+22
-0.293165  3.44204e+22
-0.17586  3.43657e+22
-0.058555  3.43363e+22
0.05875  3.43347e+22
0.176055  3.43615e+22
0.29336  3.44131e+22
0.410665  3.44845e+22
0.52797  3.45673e+22
0.645275  3.46537e+22
0.76258  3.47352e+22
0.879885  3.48051e+22
0.99719  3.48574e+22
1.1145  3.48893e+22
1.2318  3.48994e+22
1.3491  3.48894e+22
1.46641  3.48619e+22
1.58371  3.48217e+22
1.70102  3.47748e+22
1.81832  3.4727e+22
1.93563  3.46842e+22
2.05294  3.46511e+22
2.17024  3.46311e+22
2.28754  3.4625e+22
2.40485  3.46307e+22
2.52216  3.46434e+22
2.63946  3.46562e+22
2.75677  3.46596e+22
2.87407  3.4644e+22
2.99137  3.45991e+22
3.10868  3.45165e+22
3.22599  3.43902e+22
3.34329  3.42169e+22
3.4606  3.39974e+22
3.5779  3.37351e+22
3.69521  3.34366e+22
3.81251  3.31107e+22
3.92982  3.27667e+22
4.04712  3.2415e+22
4.16443  3.20656e+22
4.28173  3.1726e+22
4.39903  3.14036e+22
4.51634  3.11028e+22
4.63364  3.08264e+22
4.75095  3.05742e+22
4.86825  3.03449e+22
4.98556  3.01349e+22
5.10286  2.99408e+22
5.22017  2.97563e+22
5.33748  2.95781e+22
5.45478  2.94018e+22
5.57209  2.92247e+22
5.68939  2.90453e+22
5.8067  2.88641e+22
5.924  2.86822e+22
6.0413  2.85024e+22
6.15861  2.83273e+22
6.27591  2.81595e+22
6.39322  2.80014e+22
6.51052  2.78538e+22
6.62783  2.77167e+22
6.74514  2.75882e+22
6.86244  2.7466e+22
6.97975  2.73461e+22
7.09705  2.72242e+22
7.21436  2.70957e+22
7.33166  2.69563e+22
7.44897  2.68029e+22
7.56627  2.66332e+22
7.68358  2.64464e+22
7.80088  2.62433e+22
7.91819  2.60257e+22
8.03549  2.57971e+22
8.1528  2.55612e+22
8.2701  2.53221e+22
8.38741  2.50836e+22
8.50471  2.48485e+22
8.62202  2.46186e+22
8.73932  2.43939e+22
8.85662  2.41738e+22
8.97393  2.39551e+22
9.09123  2.37351e+22
9.20854  2.35098e+22
9.32584  2.32752e+22
9.44315  2.30282e+22
9.56045  2.27663e+22
9.67776  2.24891e+22
9.79506  2.21972e+22
9.91237  2.18928e+22
10.0297  2.1581e+22
10.147  2.12667e+22
10.2643  2.09554e+22
10.3816  2.0654e+22
10.4989  2.03671e+22
10.6162  2.0099e+22
10.7335  1.98521e+22
10.8508  1.96266e+22
10.9681  1.942e+22
11.0854  1.92288e+22
11.2027  1.90474e+22
11.32  1.887e+22
11.4373  1.86903e+22
11.5546  1.85028e+22
11.6719  1.83026e+22
11.7893  1.80871e+22
11.9066  1.78549e+22
12.0239  1.76054e+22
12.1412  1.73408e+22
12.2585  1.70633e+22
12.3758  1.67763e+22
12.4931  1.64832e+22
12.6104  1.61876e+22
12.7277  1.58929e+22
12.845  1.56014e+22
12.9623  1.53153e+22
13.0796  1.50357e+22
13.1969  1.47628e+22
13.3142  1.44969e+22
13.4315  1.42369e+22
13.5488  1.39819e+22
13.6661  1.37307e+22
13.7834  1.34823e+22
13.9007  1.32358e+22
14.018  1.29903e+22
14.1354  1.27458e+22
14.2527  1.25019e+22
14.37  1.2259e+22
14.4873  1.2017e+22
14.6046  1.17758e+22
14.7219  1.15364e+22
14.8392  1.1298e+22
14.9565  1.10605e+22
15.0738  1.08243e+22
15.1911  1.05882e+22
15.3084  1.03526e+22
15.4257  1.01171e+22
15.543  9.88178e+21
15.6603  9.64631e+21
15.7776  9.41173e+21
15.8949  9.17869e+21
16.0122  8.94838e+21
16.1295  8.72225e+21
16.2468  8.50147e+21
16.3641  8.28672e+21
16.4815  8.07902e+21
16.5988  7.87774e+21
16.7161  7.68175e+21
16.8334  7.48929e+21
16.9507  7.29798e+21
17.068  7.1051e+21
17.1853  6.90832e+21
17.3026  6.7059e+21
17.4199  6.49706e+21
17.5372  6.28201e+21
17.6545  6.06265e+21
17.7718  5.84141e+21
17.8891  5.62179e+21
18.0064  5.40866e+21
18.1237  5.20589e+21
18.241  5.01783e+21
18.3583  4.84838e+21
18.4756  4.7002e+21
18.5929  4.57466e+21
18.7102  4.47156e+21
18.8275  4.38926e+21
18.9449  4.32387e+21
19.0622  4.27028e+21
19.1795  4.222e+21
19.2968  4.17201e+21
19.4141  4.11365e+21
19.5314  4.041e+21
19.6487  3.95002e+21
19.766  3.83924e+21
19.8833  3.70893e+21
20.0006  3.56249e+21
20.1179  3.40439e+21
20.2352  3.2405e+21
20.3525  3.0765e+21
20.4698  2.91782e+21
20.5871  2.76851e+21
20.7044  2.63112e+21
20.8217  2.5069e+21
20.939  2.39559e+21
21.0563  2.29594e+21
21.1736  2.20629e+21
21.291  2.12435e+21
21.4083  2.04813e+21
21.5256  1.97547e+21
21.6429  1.90467e+21
21.7602  1.83423e+21
21.8775  1.76344e+21
21.9948  1.69194e+21
22.1121  1.62054e+21
22.2294  1.55052e+21
22.3467  1.48403e+21
22.464  1.42364e+21
22.5813  1.37192e+21
22.6986  1.33117e+21
22.8159  1.30288e+21
22.9332  1.28714e+21
23.0505  1.28312e+21
23.1678  1.2885e+21
23.2851  1.30037e+21
23.4024  1.31538e+21
23.5198  1.33004e+21
23.6371  1.34146e+21
23.7544  1.34767e+21
23.8717  1.34748e+21
23.989  1.341e+21
24.1063  1.32866e+21
24.2236  1.3121e+21
24.3409  1.29326e+21
24.4582  1.27407e+21
24.5755  1.25692e+21
24.6928  1.24353e+21
24.8101  1.23535e+21
24.9274  1.23292e+21
25.0447  1.23607e+21
25.162  1.24355e+21
25.2793  1.25309e+21
25.3966  1.26169e+21
25.5139  1.26619e+21
25.6312  1.26349e+21
25.7485  1.25115e+21
25.8658  1.22755e+21
25.9832  1.1924e+21
26.1005  1.14679e+21
26.2178  1.09279e+21
26.3351  1.03328e+21
26.4524  9.71398e+20
26.5697  9.10155e+20
26.687  8.52017e+20
26.8043  7.99071e+20
26.9216  7.52178e+20
27.0389  7.11735e+20
27.1562  6.77917e+20
27.2735  6.50292e+20
27.3908  6.28214e+20
27.5081  6.11362e+20
27.6254  5.9916e+20
27.7427  5.91115e+20
27.86  5.86696e+20
27.9773  5.85341e+20
28.0946  5.86594e+20
28.212  5.89521e+20
28.3293  5.93526e+20
28.4466  5.97939e+20
28.5639  6.01845e+20
28.6812  6.04858e+20
28.7985  6.06103e+20
28.9158  6.05343e+20
29.0331  6.02408e+20
29.1504  5.96898e+20
29.2677  5.89501e+20
29.385  5.80398e+20
29.5023  5.70516e+20
29.6196  5.60833e+20
29.7369  5.52538e+20
29.8542  5.46761e+20
29.9715  5.44384e+20
30.0888  5.46081e+20
30.2061  5.52188e+20
30.3234  5.62544e+20
30.4407  5.76515e+20
30.558  5.93105e+20
30.6754  6.10828e+20
30.7927  6.28056e+20
30.91  6.43155e+20
31.0273  6.54343e+20
31.1446  6.60321e+20
31.2619  6.59916e+20
31.3792  6.52765e+20
31.4965  6.38828e+20
31.6138  6.18762e+20
31.7311  5.9352e+20
31.8484  5.64983e+20
31.9657  5.34753e+20
32.083  5.04651e+20
32.2003  4.76452e+20
32.3176  4.51581e+20
32.4349  4.30991e+20
32.5522  4.15319e+20
32.6695  4.04713e+20
32.7868  3.98974e+20
32.9042  3.97342e+20
33.0215  3.9931e+20
33.1388  4.0371e+20
33.2561  4.09663e+20
33.3734  4.16103e+20
33.4907  4.22167e+20
33.608  4.27239e+20
33.7253  4.30941e+20
33.8426  4.33035e+20
33.9599  4.33994e+20
34.0772  4.34201e+20
34.1945  4.34457e+20
34.3118  4.35316e+20
34.4291  4.37365e+20
34.5464  4.40855e+20
34.6637  4.45641e+20
34.781  4.51111e+20
34.8983  4.56519e+20
35.0156  4.6087e+20
35.1329  4.63266e+20
35.2503  4.62999e+20
35.3676  4.59745e+20
35.4849  4.53609e+20
35.6022  4.45203e+20
35.7195  4.3533e+20
35.8368  4.25138e+20
35.9541  4.15814e+20
36.0714  4.08407e+20
36.1887  4.03635e+20
36.306  4.02096e+20
36.4233  4.03621e+20
36.5406  4.07805e+20
36.6579  4.13683e+20
36.7752  4.20059e+20
36.8925  4.25333e+20
37.0098  4.28145e+20
37.1271  4.27067e+20
37.2444  4.21189e+20
37.3617  4.10124e+20
37.479  3.94065e+20
37.5964  3.73792e+20
37.7137  3.5062e+20
37.831  3.25994e+20
37.9483  3.01618e+20
38.0656  2.78751e+20
38.1829  2.58478e+20
38.3002  2.41138e+20
38.4175  2.26733e+20
38.5348  2.14917e+20
38.6521  2.0505e+20
38.7694  1.96546e+20
38.8867  1.88905e+20
39.004  1.81951e+20
39.1213  1.75708e+20
39.2386  1.70482e+20
39.3559  1.66575e+20
39.4732  1.64351e+20
39.5905  1.64078e+20
39.7078  1.65991e+20
39.8251  1.70139e+20
39.9425  1.76493e+20
40.0598  1.85022e+20
40.1771  1.95581e+20
40.2944  2.07988e+20
40.4117  2.21878e+20
40.529  2.3664e+20
40.6463  2.51679e+20
40.7636  2.65939e+20
40.8809  2.78398e+20
40.9982  2.88205e+20
41.1155  2.94633e+20
41.2328  2.97307e+20
41.3501  2.96304e+20
41.4674  2.92125e+20
41.5847  2.85523e+20
41.702  2.77295e+20
41.8193  2.68261e+20
41.9366  2.58847e+20
42.0539  2.49333e+20
42.1712  2.39662e+20
42.2885  2.29634e+20
42.4059  2.18958e+20
42.5232  2.07561e+20
42.6405  1.95553e+20
42.7578  1.83248e+20
42.8751  1.71118e+20
42.9924  1.5967e+20
43.1097  1.4938e+20
43.227  1.40501e+20
43.3443  1.33232e+20
43.4616  1.27557e+20
43.5789  1.23542e+20
43.6962  1.21379e+20
43.8135  1.21462e+20
43.9308  1.24276e+20
44.0481  1.30293e+20
44.1654  1.3997e+20
44.2827  1.53294e+20
44.4  1.69779e+20
44.5173  1.88354e+20
44.6347  2.0746e+20
44.752  2.25244e+20
44.8693  2.39842e+20
44.9866  2.49753e+20
45.1039  2.53991e+20
45.2212  2.52217e+20
45.3385  2.44962e+20
45.4558  2.33248e+20
45.5731  2.18603e+20
45.6904  2.02608e+20
45.8077  1.86825e+20
45.925  1.72589e+20
46.0423  1.60903e+20
46.1596  1.52298e+20
46.2769  1.46958e+20
46.3942  1.44812e+20
46.5115  1.45418e+20
46.6288  1.48143e+20
46.7461  1.52251e+20
46.8634  1.56906e+20
46.9808  1.61254e+20
47.0981  1.64587e+20
47.2154  1.66461e+20
47.3327  1.66554e+20
47.45  1.65013e+20
47.5673  1.62119e+20
47.6846  1.58469e+20
47.8019  1.54514e+20
47.9192  1.50738e+20
48.0365  1.47371e+20
48.1538  1.44442e+20
48.2711  1.41776e+20
48.3884  1.39108e+20
48.5057  1.36194e+20
48.623  1.32926e+20
48.7403  1.29511e+20
48.8576  1.26386e+20
48.9749  1.24072e+20
49.0922  1.23276e+20
49.2095  1.24614e+20
49.3269  1.28399e+20
49.4442  1.34785e+20
49.5615  1.43502e+20
49.6788  1.5408e+20
49.7961  1.65762e+20
49.9134  1.7783e+20
50.0307  1.89406e+20
50.148  1.99759e+20
50.2653  2.08361e+20
50.3826  2.14689e+20
50.4999  2.18522e+20
50.6172  2.19733e+20
50.7345  2.18428e+20
50.8518  2.14797e+20
