#S 1 spectral density
#N 2
#UFWHM 15.015
#L  abscissas [um]  spectral density
-58.5938  1.04777e+20
-58.4764  1.00849e+20
-58.3591  9.75321e+19
-58.2418  9.50228e+19
-58.1245  9.34014e+19
-58.0072  9.26904e+19
-57.8899  9.28417e+19
-57.7726  9.38578e+19
-57.6553  9.57603e+19
-57.538  9.86207e+19
-57.4207  1.02492e+20
-57.3034  1.07419e+20
-57.1861  1.13219e+20
-57.0688  1.19632e+20
-56.9515  1.26166e+20
-56.8342  1.3231e+20
-56.7169  1.37417e+20
-56.5996  1.40997e+20
-56.4823  1.42671e+20
-56.365  1.42404e+20
-56.2477  1.40253e+20
-56.1303  1.36633e+20
-56.013  1.31949e+20
-55.8957  1.26751e+20
-55.7784  1.21472e+20
-55.6611  1.16505e+20
-55.5438  1.12226e+20
-55.4265  1.08718e+20
-55.3092  1.06141e+20
-55.1919  1.04609e+20
-55.0746  1.04189e+20
-54.9573  1.05006e+20
-54.84  1.07075e+20
-54.7227  1.10391e+20
-54.6054  1.14843e+20
-54.4881  1.20243e+20
-54.3708  1.26288e+20
-54.2535  1.32487e+20
-54.1362  1.38471e+20
-54.0189  1.43742e+20
-53.9016  1.47851e+20
-53.7842  1.50465e+20
-53.6669  1.51495e+20
-53.5496  1.50904e+20
-53.4323  1.48738e+20
-53.315  1.45407e+20
-53.1977  1.41137e+20
-53.0804  1.36384e+20
-52.9631  1.31593e+20
-52.8458  1.27122e+20
-52.7285  1.23209e+20
-52.6112  1.20091e+20
-52.4939  1.17771e+20
-52.3766  1.16263e+20
-52.2593  1.15476e+20
-52.142  1.15403e+20
-52.0247  1.15966e+20
-51.9074  1.17202e+20
-51.7901  1.19109e+20
-51.6728  1.21764e+20
-51.5555  1.25102e+20
-51.4381  1.29005e+20
-51.3208  1.33279e+20
-51.2035  1.37618e+20
-51.0862  1.41728e+20
-50.9689  1.45263e+20
-50.8516  1.48091e+20
-50.7343  1.50067e+20
-50.617  1.51185e+20
-50.4997  1.51578e+20
-50.3824  1.51408e+20
-50.2651  1.5079e+20
-50.1478  1.49859e+20
-50.0305  1.48582e+20
-49.9132  1.47014e+20
-49.7959  1.45165e+20
-49.6786  1.43064e+20
-49.5613  1.40828e+20
-49.444  1.3882e+20
-49.3267  1.37314e+20
-49.2094  1.36584e+20
-49.092  1.36918e+20
-48.9747  1.38467e+20
-48.8574  1.412e+20
-48.7401  1.44809e+20
-48.6228  1.49085e+20
-48.5055  1.53454e+20
-48.3882  1.57543e+20
-48.2709  1.61041e+20
-48.1536  1.63669e+20
-48.0363  1.65274e+20
-47.919  1.65863e+20
-47.8017  1.654e+20
-47.6844  1.63956e+20
-47.5671  1.61651e+20
-47.4498  1.5864e+20
-47.3325  1.55065e+20
-47.2152  1.51252e+20
-47.0979  1.47491e+20
-46.9806  1.44195e+20
-46.8633  1.41741e+20
-46.7459  1.404e+20
-46.6286  1.40405e+20
-46.5113  1.41759e+20
-46.394  1.44414e+20
-46.2767  1.48079e+20
-46.1594  1.52474e+20
-46.0421  1.57294e+20
-45.9248  1.62145e+20
-45.8075  1.66792e+20
-45.6902  1.71036e+20
-45.5729  1.74664e+20
-45.4556  1.77637e+20
-45.3383  1.79834e+20
-45.221  1.8135e+20
-45.1037  1.82287e+20
-44.9864  1.82835e+20
-44.8691  1.83268e+20
-44.7518  1.84037e+20
-44.6345  1.85449e+20
-44.5172  1.87721e+20
-44.3998  1.90942e+20
-44.2825  1.94963e+20
-44.1652  1.99374e+20
-44.0479  2.03564e+20
-43.9306  2.07e+20
-43.8133  2.08943e+20
-43.696  2.0912e+20
-43.5787  2.07453e+20
-43.4614  2.04165e+20
-43.3441  1.99782e+20
-43.2268  1.95033e+20
-43.1095  1.90585e+20
-42.9922  1.87086e+20
-42.8749  1.85064e+20
-42.7576  1.84726e+20
-42.6403  1.86092e+20
-42.523  1.8909e+20
-42.4057  1.93496e+20
-42.2884  1.99058e+20
-42.171  2.05505e+20
-42.0537  2.12573e+20
-41.9364  2.19883e+20
-41.8191  2.26989e+20
-41.7018  2.3334e+20
-41.5845  2.38305e+20
-41.4672  2.41316e+20
-41.3499  2.41999e+20
-41.2326  2.39997e+20
-41.1153  2.35458e+20
-40.998  2.28816e+20
-40.8807  2.20672e+20
-40.7634  2.11939e+20
-40.6461  2.03447e+20
-40.5288  1.96106e+20
-40.4115  1.90605e+20
-40.2942  1.87411e+20
-40.1769  1.86723e+20
-40.0596  1.88731e+20
-39.9423  1.93396e+20
-39.825  2.00597e+20
-39.7076  2.1013e+20
-39.5903  2.21758e+20
-39.473  2.34952e+20
-39.3557  2.49056e+20
-39.2384  2.63274e+20
-39.1211  2.76514e+20
-39.0038  2.87787e+20
-38.8865  2.96151e+20
-38.7692  3.0087e+20
-38.6519  3.01622e+20
-38.5346  2.98466e+20
-38.4173  2.91868e+20
-38.3  2.82612e+20
-38.1827  2.71843e+20
-38.0654  2.60615e+20
-37.9481  2.50042e+20
-37.8308  2.41033e+20
-37.7135  2.34331e+20
-37.5962  2.30391e+20
-37.4789  2.29481e+20
-37.3615  2.31747e+20
-37.2442  2.37003e+20
-37.1269  2.45036e+20
-37.0096  2.55325e+20
-36.8923  2.6728e+20
-36.775  2.8008e+20
-36.6577  2.92877e+20
-36.5404  3.04706e+20
-36.4231  3.14769e+20
-36.3058  3.22429e+20
-36.1885  3.2723e+20
-36.0712  3.29042e+20
-35.9539  3.28043e+20
-35.8366  3.24707e+20
-35.7193  3.19598e+20
-35.602  3.13479e+20
-35.4847  3.0688e+20
-35.3674  3.00579e+20
-35.2501  2.95125e+20
-35.1328  2.90873e+20
-35.0154  2.88122e+20
-34.8981  2.87067e+20
-34.7808  2.87649e+20
-34.6635  2.89762e+20
-34.5462  2.93043e+20
-34.4289  2.97122e+20
-34.3116  3.01466e+20
-34.1943  3.0562e+20
-34.077  3.09136e+20
-33.9597  3.11699e+20
-33.8424  3.13138e+20
-33.7251  3.13507e+20
-33.6078  3.12929e+20
-33.4905  3.11754e+20
-33.3732  3.10188e+20
-33.2559  3.08591e+20
-33.1386  3.07114e+20
-33.0213  3.05947e+20
-32.904  3.05159e+20
-32.7867  3.04844e+20
-32.6693  3.0511e+20
-32.552  3.06054e+20
-32.4347  3.07901e+20
-32.3174  3.10834e+20
-32.2001  3.151e+20
-32.0828  3.20794e+20
-31.9655  3.28019e+20
-31.8482  3.36734e+20
-31.7309  3.4679e+20
-31.6136  3.57966e+20
-31.4963  3.69879e+20
-31.379  3.82089e+20
-31.2617  3.94145e+20
-31.1444  4.05585e+20
-31.0271  4.15805e+20
-30.9098  4.24388e+20
-30.7925  4.30682e+20
-30.6752  4.3447e+20
-30.5579  4.355e+20
-30.4406  4.33693e+20
-30.3232  4.2935e+20
-30.2059  4.22946e+20
-30.0886  4.15131e+20
-29.9713  4.06869e+20
-29.854  3.99058e+20
-29.7367  3.92837e+20
-29.6194  3.89122e+20
-29.5021  3.88868e+20
-29.3848  3.9272e+20
-29.2675  4.0117e+20
-29.1502  4.14155e+20
-29.0329  4.3152e+20
-28.9156  4.52423e+20
-28.7983  4.75793e+20
-28.681  5.00148e+20
-28.5637  5.23819e+20
-28.4464  5.45122e+20
-28.3291  5.6254e+20
-28.2118  5.74883e+20
-28.0944  5.81653e+20
-27.9771  5.82649e+20
-27.8598  5.78477e+20
-27.7425  5.70192e+20
-27.6252  5.59112e+20
-27.5079  5.46985e+20
-27.3906  5.3526e+20
-27.2733  5.25542e+20
-27.156  5.19306e+20
-27.0387  5.17431e+20
-26.9214  5.20898e+20
-26.8041  5.29979e+20
-26.6868  5.44644e+20
-26.5695  5.64291e+20
-26.4522  5.87952e+20
-26.3349  6.14045e+20
-26.2176  6.40743e+20
-26.1003  6.65889e+20
-25.983  6.87489e+20
-25.8657  7.03769e+20
-25.7483  7.13508e+20
-25.631  7.16323e+20
-25.5137  7.12547e+20
-25.3964  7.03039e+20
-25.2791  6.89609e+20
-25.1618  6.73956e+20
-25.0445  6.58282e+20
-24.9272  6.44322e+20
-24.8099  6.33723e+20
-24.6926  6.2759e+20
-24.5753  6.26779e+20
-24.458  6.31249e+20
-24.3407  6.41135e+20
-24.2234  6.5573e+20
-24.1061  6.74206e+20
-23.9888  6.95382e+20
-23.8715  7.179e+20
-23.7542  7.40418e+20
-23.6369  7.61666e+20
-23.5196  7.80592e+20
-23.4023  7.9685e+20
-23.2849  8.10199e+20
-23.1676  8.2127e+20
-23.0503  8.30994e+20
-22.933  8.40422e+20
-22.8157  8.51028e+20
-22.6984  8.63629e+20
-22.5811  8.79194e+20
-22.4638  8.98329e+20
-22.3465  9.20931e+20
-22.2292  9.47114e+20
-22.1119  9.76412e+20
-21.9946  1.00823e+21
-21.8773  1.04177e+21
-21.76  1.07627e+21
-21.6427  1.11078e+21
-21.5254  1.1442e+21
-21.4081  1.17564e+21
-21.2908  1.20413e+21
-21.1735  1.229e+21
-21.0561  1.25015e+21
-20.9388  1.26793e+21
-20.8215  1.28313e+21
-20.7042  1.29695e+21
-20.5869  1.3109e+21
-20.4696  1.32612e+21
-20.3523  1.34372e+21
-20.235  1.36401e+21
-20.1177  1.38687e+21
-20.0004  1.41174e+21
-19.8831  1.43747e+21
-19.7658  1.46285e+21
-19.6485  1.48711e+21
-19.5312  1.50947e+21
-19.4139  1.52953e+21
-19.2966  1.54764e+21
-19.1793  1.56395e+21
-19.062  1.57915e+21
-18.9447  1.5938e+21
-18.8274  1.60844e+21
-18.71  1.62367e+21
-18.5927  1.64001e+21
-18.4754  1.65832e+21
-18.3581  1.67916e+21
-18.2408  1.70346e+21
-18.1235  1.73218e+21
-18.0062  1.76558e+21
-17.8889  1.80393e+21
-17.7716  1.84707e+21
-17.6543  1.8941e+21
-17.537  1.94392e+21
-17.4197  1.99512e+21
-17.3024  2.0461e+21
-17.1851  2.09542e+21
-17.0678  2.14226e+21
-16.9505  2.18601e+21
-16.8332  2.22652e+21
-16.7159  2.26454e+21
-16.5986  2.30071e+21
-16.4813  2.33592e+21
-16.364  2.37159e+21
-16.2466  2.40859e+21
-16.1293  2.44755e+21
-16.012  2.48966e+21
-15.8947  2.53525e+21
-15.7774  2.58457e+21
-15.6601  2.63787e+21
-15.5428  2.69482e+21
-15.4255  2.75514e+21
-15.3082  2.81857e+21
-15.1909  2.88407e+21
-15.0736  2.95127e+21
-14.9563  3.01981e+21
-14.839  3.08975e+21
-14.7217  3.16086e+21
-14.6044  3.23431e+21
-14.4871  3.31104e+21
-14.3698  3.39256e+21
-14.2525  3.48059e+21
-14.1352  3.57694e+21
-14.0178  3.68335e+21
-13.9005  3.80138e+21
-13.7832  3.93257e+21
-13.6659  4.07727e+21
-13.5486  4.23659e+21
-13.4313  4.41014e+21
-13.314  4.5972e+21
-13.1967  4.79678e+21
-13.0794  5.00753e+21
-12.9621  5.22796e+21
-12.8448  5.45639e+21
-12.7275  5.69155e+21
-12.6102  5.93235e+21
-12.4929  6.17859e+21
-12.3756  6.43037e+21
-12.2583  6.68878e+21
-12.141  6.9551e+21
-12.0237  7.23178e+21
-11.9064  7.5208e+21
-11.7891  7.82462e+21
-11.6718  8.14564e+21
-11.5544  8.48559e+21
-11.4371  8.84503e+21
-11.3198  9.22487e+21
-11.2025  9.62431e+21
-11.0852  1.00418e+22
-10.9679  1.04754e+22
-10.8506  1.09217e+22
-10.7333  1.13771e+22
-10.616  1.18386e+22
-10.4987  1.23015e+22
-10.3814  1.2763e+22
-10.2641  1.32209e+22
-10.1468  1.3674e+22
-10.0295  1.41218e+22
-9.91217  1.45663e+22
-9.79487  1.50101e+22
-9.67756  1.5457e+22
-9.56026  1.59112e+22
-9.44295  1.63777e+22
-9.32565  1.68609e+22
-9.20834  1.73649e+22
-9.09104  1.78929e+22
-8.97373  1.84462e+22
-8.85643  1.90265e+22
-8.73913  1.96317e+22
-8.62182  2.02596e+22
-8.50452  2.09067e+22
-8.38721  2.1568e+22
-8.26991  2.22388e+22
-8.1526  2.29135e+22
-8.03529  2.35871e+22
-7.91799  2.42551e+22
-7.80069  2.49154e+22
-7.68338  2.55656e+22
-7.56608  2.62062e+22
-7.44877  2.68381e+22
-7.33146  2.74647e+22
-7.21416  2.80886e+22
-7.09685  2.87141e+22
-6.97955  2.93447e+22
-6.86224  2.99838e+22
-6.74494  3.0633e+22
-6.62763  3.12933e+22
-6.51033  3.19641e+22
-6.39302  3.26431e+22
-6.27572  3.33269e+22
-6.15842  3.40108e+22
-6.04111  3.46891e+22
-5.92381  3.53571e+22
-5.8065  3.60083e+22
-5.68919  3.66387e+22
-5.57189  3.72452e+22
-5.45458  3.7826e+22
-5.33728  3.83811e+22
-5.21997  3.8913e+22
-5.10267  3.94251e+22
-4.98536  3.99222e+22
-4.86806  4.04096e+22
-4.75075  4.08931e+22
-4.63345  4.13775e+22
-4.51614  4.18675e+22
-4.39884  4.23657e+22
-4.28154  4.28736e+22
-4.16423  4.33922e+22
-4.04692  4.39187e+22
-3.92962  4.44505e+22
-3.81231  4.49836e+22
-3.69501  4.55122e+22
-3.5777  4.60311e+22
-3.4604  4.6534e+22
-3.34309  4.70155e+22
-3.22579  4.7471e+22
-3.10849  4.7898e+22
-2.99118  4.82947e+22
-2.87387  4.86618e+22
-2.75657  4.9001e+22
-2.63926  4.93158e+22
-2.52196  4.96097e+22
-2.40465  4.98869e+22
-2.28735  5.01507e+22
-2.17005  5.04044e+22
-2.05274  5.06499e+22
-1.93544  5.08878e+22
-1.81813  5.11183e+22
-1.70083  5.13404e+22
-1.58352  5.15524e+22
-1.46622  5.17525e+22
-1.34891  5.19386e+22
-1.2316  5.21088e+22
-1.1143  5.22612e+22
-0.996995  5.23943e+22
-0.87969  5.2508e+22
-0.762385  5.26014e+22
-0.64508  5.26761e+22
-0.527775  5.27336e+22
-0.41047  5.2776e+22
-0.293165  5.28057e+22
-0.17586  5.28253e+22
-0.058555  5.28366e+22
0.05875  5.28403e+22
0.176055  5.28367e+22
0.29336  5.28245e+22
0.410665  5.2802e+22
0.52797  5.27664e+22
0.645275  5.27153e+22
0.76258  5.26465e+22
0.879885  5.25588e+22
0.99719  5.24508e+22
1.1145  5.2323e+22
1.2318  5.21759e+22
1.3491  5.20111e+22
1.46641  5.18304e+22
1.58371  5.16356e+22
1.70102  5.14295e+22
1.81832  5.12136e+22
1.93563  5.09895e+22
2.05294  5.07581e+22
2.17024  5.05196e+22
2.28754  5.02729e+22
2.40485  5.00157e+22
2.52216  4.97453e+22
2.63946  4.9458e+22
2.75677  4.91494e+22
2.87407  4.8816e+22
2.99137  4.84545e+22
3.10868  4.80627e+22
3.22599  4.76403e+22
3.34329  4.71892e+22
3.4606  4.67119e+22
3.5779  4.62132e+22
3.69521  4.56987e+22
3.81251  4.51743e+22
3.92982  4.46456e+22
4.04712  4.41183e+22
4.16443  4.35965e+22
4.28173  4.30831e+22
4.39903  4.25798e+22
4.51634  4.20866e+22
4.63364  4.16018e+22
4.75095  4.11221e+22
4.86825  4.06434e+22
4.98556  4.01603e+22
5.10286  3.96676e+22
5.22017  3.91586e+22
5.33748  3.86297e+22
5.45478  3.80768e+22
5.57209  3.74981e+22
5.68939  3.68935e+22
5.8067  3.62643e+22
5.924  3.56141e+22
6.0413  3.49475e+22
6.15861  3.42702e+22
6.27591  3.3587e+22
6.39322  3.29043e+22
6.51052  3.22263e+22
6.62783  3.15569e+22
6.74514  3.08974e+22
6.86244  3.02493e+22
6.97975  2.96113e+22
7.09705  2.89812e+22
7.21436  2.83559e+22
7.33166  2.77318e+22
7.44897  2.7105e+22
7.56627  2.64719e+22
7.68358  2.58302e+22
7.80088  2.5178e+22
7.91819  2.45157e+22
8.03549  2.38451e+22
8.1528  2.31685e+22
8.2701  2.24911e+22
8.38741  2.18176e+22
8.50471  2.11529e+22
8.62202  2.0503e+22
8.73932  1.98723e+22
8.85662  1.92641e+22
8.97393  1.86814e+22
9.09123  1.81248e+22
9.20854  1.75941e+22
9.32584  1.70869e+22
9.44315  1.66007e+22
9.56045  1.61308e+22
9.67776  1.56731e+22
9.79506  1.52226e+22
9.91237  1.47743e+22
10.0297  1.43251e+22
10.147  1.38722e+22
10.2643  1.34139e+22
10.3816  1.29508e+22
10.4989  1.24835e+22
10.6162  1.2015e+22
10.7335  1.15481e+22
10.8508  1.10873e+22
10.9681  1.06354e+22
11.0854  1.01966e+22
11.2027  9.77391e+21
11.32  9.3698e+21
11.4373  8.98511e+21
11.5546  8.62089e+21
11.6719  8.27652e+21
11.7893  7.95107e+21
11.9066  7.64261e+21
12.0239  7.34908e+21
12.1412  7.06804e+21
12.2585  6.79706e+21
12.3758  6.53429e+21
12.4931  6.27797e+21
12.6104  6.02728e+21
12.7277  5.78212e+21
12.845  5.54244e+21
12.9623  5.30992e+21
13.0796  5.08557e+21
13.1969  4.8707e+21
13.3142  4.66759e+21
13.4315  4.47721e+21
13.5488  4.3003e+21
13.6661  4.13805e+21
13.7834  3.99017e+21
13.9007  3.8563e+21
14.018  3.73535e+21
14.1354  3.62645e+21
14.2527  3.52754e+21
14.37  3.43709e+21
14.4873  3.35313e+21
14.6046  3.27403e+21
14.7219  3.19821e+21
14.8392  3.12463e+21
14.9565  3.05249e+21
15.0738  2.98194e+21
15.1911  2.91259e+21
15.3084  2.84531e+21
15.4257  2.78027e+21
15.543  2.71848e+21
15.6603  2.66015e+21
15.7776  2.60567e+21
15.8949  2.55526e+21
16.0122  2.50892e+21
16.1295  2.46603e+21
16.2468  2.42613e+21
16.3641  2.38852e+21
16.4815  2.35228e+21
16.5988  2.31622e+21
16.7161  2.27952e+21
16.8334  2.24087e+21
16.9507  2.19961e+21
17.068  2.15534e+21
17.1853  2.10796e+21
17.3026  2.05808e+21
17.4199  2.00677e+21
17.5372  1.95514e+21
17.6545  1.90516e+21
17.7718  1.85798e+21
17.8891  1.81472e+21
18.0064  1.77638e+21
18.1237  1.74314e+21
18.241  1.71449e+21
18.3583  1.69031e+21
18.4756  1.66948e+21
18.5929  1.65128e+21
18.7102  1.63491e+21
18.8275  1.61983e+21
18.9449  1.60523e+21
19.0622  1.59068e+21
19.1795  1.57548e+21
19.2968  1.55923e+21
19.4141  1.54107e+21
19.5314  1.52084e+21
19.6487  1.4984e+21
19.766  1.47413e+21
19.8833  1.44858e+21
20.0006  1.42291e+21
20.1179  1.39805e+21
20.2352  1.3752e+21
20.3525  1.35489e+21
20.4698  1.33728e+21
20.5871  1.32199e+21
20.7044  1.30805e+21
20.8217  1.294e+21
20.939  1.27853e+21
21.0563  1.26048e+21
21.1736  1.239e+21
21.291  1.21369e+21
21.4083  1.18491e+21
21.5256  1.1531e+21
21.6429  1.11934e+21
21.7602  1.08455e+21
21.8775  1.04973e+21
21.9948  1.01587e+21
22.1121  9.8396e+20
22.2294  9.54465e+20
22.3467  9.28114e+20
22.464  9.05238e+20
22.5813  8.85954e+20
22.6986  8.70127e+20
22.8159  8.57325e+20
22.9332  8.46503e+20
23.0505  8.36789e+20
23.1678  8.26697e+20
23.2851  8.15171e+20
23.4024  8.01403e+20
23.5198  7.84784e+20
23.6371  7.65362e+20
23.7544  7.43815e+20
23.8717  7.20951e+20
23.989  6.98282e+20
24.1063  6.76889e+20
24.2236  6.58283e+20
24.3409  6.43698e+20
24.4582  6.33792e+20
24.5755  6.29319e+20
24.6928  6.30314e+20
24.8101  6.36531e+20
24.9274  6.47194e+20
25.0447  6.61176e+20
25.162  6.7689e+20
25.2793  6.92428e+20
25.3966  7.05843e+20
25.5139  7.15065e+20
25.6312  7.18636e+20
25.7485  7.1556e+20
25.8658  7.05508e+20
25.9832  6.89016e+20
26.1005  6.67178e+20
26.2178  6.41817e+20
26.3351  6.15117e+20
26.4524  5.89023e+20
26.5697  5.65394e+20
26.687  5.45807e+20
26.8043  5.31406e+20
26.9216  5.22583e+20
27.0389  5.19329e+20
27.1562  5.21363e+20
27.2735  5.27866e+20
27.3908  5.37721e+20
27.5081  5.49577e+20
27.6254  5.61866e+20
27.7427  5.72983e+20
27.86  5.81243e+20
27.9773  5.85276e+20
28.0946  5.84157e+20
28.212  5.77263e+20
28.3293  5.64645e+20
28.4466  5.47123e+20
28.5639  5.25653e+20
28.6812  5.01946e+20
28.7985  4.77527e+20
28.9158  4.54129e+20
29.0331  4.33312e+20
29.1504  4.1601e+20
29.2677  4.03125e+20
29.385  3.94853e+20
29.5023  3.91141e+20
29.6196  3.91522e+20
29.7369  3.95309e+20
29.8542  4.01621e+20
29.9715  4.09428e+20
30.0888  4.17782e+20
30.2061  4.25505e+20
30.3234  4.31854e+20
30.4407  4.36111e+20
30.558  4.37728e+20
30.6754  4.36657e+20
30.7927  4.32657e+20
30.91  4.26133e+20
31.0273  4.17507e+20
31.1446  4.07179e+20
31.2619  3.95607e+20
31.3792  3.8344e+20
31.4965  3.71164e+20
31.6138  3.59245e+20
31.7311  3.48042e+20
31.8484  3.37965e+20
31.9657  3.29223e+20
32.083  3.22006e+20
32.2003  3.16289e+20
32.3176  3.12055e+20
32.4349  3.091e+20
32.5522  3.07243e+20
32.6695  3.06235e+20
32.7868  3.05937e+20
32.9042  3.06205e+20
33.0215  3.0691e+20
33.1388  3.08053e+20
33.2561  3.095e+20
33.3734  3.11055e+20
33.4907  3.12562e+20
33.608  3.13688e+20
33.7253  3.14228e+20
33.8426  3.138e+20
33.9599  3.12308e+20
34.0772  3.09727e+20
34.1945  3.06217e+20
34.3118  3.0206e+20
34.4291  2.97681e+20
34.5464  2.93601e+20
34.6637  2.90332e+20
34.781  2.88322e+20
34.8983  2.87753e+20
35.0156  2.8887e+20
35.1329  2.91655e+20
35.2503  2.95901e+20
35.3676  3.01458e+20
35.4849  3.07706e+20
35.6022  3.14238e+20
35.7195  3.20419e+20
35.8368  3.2551e+20
35.9541  3.28779e+20
36.0714  3.29703e+20
36.1887  3.27777e+20
36.306  3.22938e+20
36.4233  3.1524e+20
36.5406  3.05143e+20
36.6579  2.93248e+20
36.7752  2.80504e+20
36.8925  2.67715e+20
37.0098  2.55846e+20
37.1271  2.45634e+20
37.2444  2.37731e+20
37.3617  2.32578e+20
37.479  2.30462e+20
37.5964  2.31492e+20
37.7137  2.35559e+20
37.831  2.42386e+20
37.9483  2.51524e+20
38.0656  2.62132e+20
38.1829  2.73403e+20
38.3002  2.8415e+20
38.4175  2.93298e+20
38.5348  2.99812e+20
38.6521  3.0282e+20
38.7694  3.01925e+20
38.8867  2.97041e+20
39.004  2.88545e+20
39.1213  2.77089e+20
39.2386  2.63713e+20
39.3559  2.49496e+20
39.4732  2.35345e+20
39.5905  2.22147e+20
39.7078  2.10571e+20
39.8251  2.01068e+20
39.9425  1.93895e+20
40.0598  1.89311e+20
40.1771  1.8736e+20
40.2944  1.88117e+20
40.4117  1.91409e+20
40.529  1.96988e+20
40.6463  2.04361e+20
40.7636  2.12855e+20
40.8809  2.2154e+20
40.9982  2.29621e+20
41.1155  2.36215e+20
41.2328  2.40637e+20
41.3501  2.42437e+20
41.4674  2.41684e+20
41.5847  2.38498e+20
41.702  2.33445e+20
41.8193  2.27011e+20
41.9366  2.19875e+20
42.0539  2.12536e+20
42.1712  2.05468e+20
42.2885  1.99064e+20
42.4059  1.93558e+20
42.5232  1.89193e+20
42.6405  1.86281e+20
42.7578  1.84969e+20
42.8751  1.8543e+20
42.9924  1.87528e+20
43.1097  1.9103e+20
43.227  1.95557e+20
43.3443  2.00325e+20
43.4616  2.04697e+20
43.5789  2.0793e+20
43.6962  2.09569e+20
43.8135  2.09249e+20
43.9308  2.07227e+20
44.0481  2.03861e+20
44.1654  1.99603e+20
44.2827  1.95213e+20
44.4  1.91242e+20
44.5173  1.88059e+20
44.6347  1.85799e+20
44.752  1.84473e+20
44.8693  1.83738e+20
44.9866  1.83314e+20
45.1039  1.8278e+20
45.2212  1.81845e+20
45.3385  1.80316e+20
45.4558  1.781e+20
45.5731  1.75093e+20
45.6904  1.71411e+20
45.8077  1.67174e+20
45.925  1.62513e+20
46.0423  1.57601e+20
46.1596  1.52797e+20
46.2769  1.48372e+20
46.3942  1.44743e+20
46.5115  1.42105e+20
46.6288  1.40795e+20
46.7461  1.40833e+20
46.8634  1.42213e+20
46.9808  1.44745e+20
47.0981  1.48084e+20
47.2154  1.51853e+20
47.3327  1.55665e+20
47.45  1.59234e+20
47.5673  1.62276e+20
47.6846  1.64556e+20
47.8019  1.65904e+20
47.9192  1.66372e+20
48.0365  1.65734e+20
48.1538  1.6405e+20
48.2711  1.61351e+20
48.3884  1.57825e+20
48.5057  1.53613e+20
48.623  1.49224e+20
48.7403  1.45017e+20
48.8576  1.41364e+20
48.9749  1.38691e+20
49.0922  1.3717e+20
49.2095  1.36852e+20
49.3269  1.3759e+20
49.4442  1.39179e+20
49.5615  1.41228e+20
49.6788  1.43447e+20
49.7961  1.4556e+20
49.9134  1.47414e+20
50.0307  1.48959e+20
50.148  1.50224e+20
50.2653  1.51155e+20
50.3826  1.51725e+20
50.4999  1.51881e+20
50.6172  1.5145e+20
50.7345  1.5026e+20
50.8518  1.48254e+20
50.9691  1.45376e+20
