#S 1 spectral density
#N 2
#UFWHM 35.1915
#L  abscissas [um]  spectral density
-58.5938  2.13894e+20
-58.4764  2.24944e+20
-58.3591  2.36463e+20
-58.2418  2.47215e+20
-58.1245  2.56041e+20
-58.0072  2.61828e+20
-57.8899  2.64053e+20
-57.7726  2.62708e+20
-57.6553  2.58126e+20
-57.538  2.51287e+20
-57.4207  2.43655e+20
-57.3034  2.36669e+20
-57.1861  2.31746e+20
-57.0688  2.29916e+20
-56.9515  2.31898e+20
-56.8342  2.37703e+20
-56.7169  2.46807e+20
-56.5996  2.58407e+20
-56.4823  2.71371e+20
-56.365  2.84528e+20
-56.2477  2.96799e+20
-56.1303  3.07486e+20
-56.013  3.16062e+20
-55.8957  3.22411e+20
-55.7784  3.26689e+20
-55.6611  3.29371e+20
-55.5438  3.31225e+20
-55.4265  3.33038e+20
-55.3092  3.35789e+20
-55.1919  3.40247e+20
-55.0746  3.47119e+20
-54.9573  3.56704e+20
-54.84  3.6894e+20
-54.7227  3.83275e+20
-54.6054  3.98761e+20
-54.4881  4.14098e+20
-54.3708  4.27913e+20
-54.2535  4.38698e+20
-54.1362  4.45278e+20
-54.0189  4.47047e+20
-53.9016  4.43766e+20
-53.7842  4.3601e+20
-53.6669  4.24933e+20
-53.5496  4.11863e+20
-53.4323  3.98607e+20
-53.315  3.86778e+20
-53.1977  3.77825e+20
-53.0804  3.72835e+20
-52.9631  3.72164e+20
-52.8458  3.7571e+20
-52.7285  3.82789e+20
-52.6112  3.92324e+20
-52.4939  4.03024e+20
-52.3766  4.13662e+20
-52.2593  4.2301e+20
-52.142  4.30459e+20
-52.0247  4.35658e+20
-51.9074  4.38771e+20
-51.7901  4.40158e+20
-51.6728  4.40406e+20
-51.5555  4.40114e+20
-51.4381  4.39753e+20
-51.3208  4.39374e+20
-51.2035  4.3897e+20
-51.0862  4.37986e+20
-50.9689  4.36151e+20
-50.8516  4.32931e+20
-50.7343  4.27834e+20
-50.617  4.20792e+20
-50.4997  4.11858e+20
-50.3824  4.01279e+20
-50.2651  3.89602e+20
-50.1478  3.77204e+20
-50.0305  3.64856e+20
-49.9132  3.53098e+20
-49.7959  3.42615e+20
-49.6786  3.34232e+20
-49.5613  3.28511e+20
-49.444  3.26093e+20
-49.3267  3.27495e+20
-49.2094  3.32985e+20
-49.092  3.42454e+20
-48.9747  3.55519e+20
-48.8574  3.71435e+20
-48.7401  3.89187e+20
-48.6228  4.0766e+20
-48.5055  4.25696e+20
-48.3882  4.42398e+20
-48.2709  4.5715e+20
-48.1536  4.69748e+20
-48.0363  4.80349e+20
-47.919  4.89396e+20
-47.8017  4.97741e+20
-47.6844  5.0623e+20
-47.5671  5.15636e+20
-47.4498  5.26842e+20
-47.3325  5.40349e+20
-47.2152  5.56697e+20
-47.0979  5.75703e+20
-46.9806  5.97017e+20
-46.8633  6.20055e+20
-46.7459  6.43589e+20
-46.6286  6.66167e+20
-46.5113  6.86279e+20
-46.394  7.02317e+20
-46.2767  7.13274e+20
-46.1594  7.18224e+20
-46.0421  7.17067e+20
-45.9248  7.10322e+20
-45.8075  6.99101e+20
-45.6902  6.84811e+20
-45.5729  6.69194e+20
-45.4556  6.53715e+20
-45.3383  6.39742e+20
-45.221  6.27871e+20
-45.1037  6.18526e+20
-44.9864  6.11603e+20
-44.8691  6.06502e+20
-44.7518  6.02512e+20
-44.6345  5.98844e+20
-44.5172  5.94612e+20
-44.3998  5.89443e+20
-44.2825  5.82608e+20
-44.1652  5.74148e+20
-44.0479  5.64364e+20
-43.9306  5.53637e+20
-43.8133  5.42907e+20
-43.696  5.33218e+20
-43.5787  5.25814e+20
-43.4614  5.21714e+20
-43.3441  5.21921e+20
-43.2268  5.26586e+20
-43.1095  5.35727e+20
-42.9922  5.48319e+20
-42.8749  5.63035e+20
-42.7576  5.78191e+20
-42.6403  5.91862e+20
-42.523  6.02779e+20
-42.4057  6.09867e+20
-42.2884  6.12823e+20
-42.171  6.12388e+20
-42.0537  6.09501e+20
-41.9364  6.05972e+20
-41.8191  6.03461e+20
-41.7018  6.03587e+20
-41.5845  6.07702e+20
-41.4672  6.16426e+20
-41.3499  6.30184e+20
-41.2326  6.48469e+20
-41.1153  6.70457e+20
-40.998  6.9503e+20
-40.8807  7.20644e+20
-40.7634  7.45631e+20
-40.6461  7.68247e+20
-40.5288  7.86802e+20
-40.4115  8.00088e+20
-40.2942  8.07216e+20
-40.1769  8.07918e+20
-40.0596  8.02709e+20
-39.9423  7.92814e+20
-39.825  7.8007e+20
-39.7076  7.67074e+20
-39.5903  7.56037e+20
-39.473  7.49069e+20
-39.3557  7.47917e+20
-39.2384  7.53099e+20
-39.1211  7.64246e+20
-39.0038  7.80169e+20
-38.8865  7.98755e+20
-38.7692  8.17528e+20
-38.6519  8.3418e+20
-38.5346  8.46274e+20
-38.4173  8.52519e+20
-38.3  8.52027e+20
-38.1827  8.4505e+20
-38.0654  8.32554e+20
-37.9481  8.1623e+20
-37.8308  7.98345e+20
-37.7135  7.8136e+20
-37.5962  7.67655e+20
-37.4789  7.59614e+20
-37.3615  7.5885e+20
-37.2442  7.66558e+20
-37.1269  7.82875e+20
-37.0096  8.06944e+20
-36.8923  8.37199e+20
-36.775  8.71216e+20
-36.6577  9.06271e+20
-36.5404  9.39301e+20
-36.4231  9.67608e+20
-36.3058  9.89314e+20
-36.1885  1.00314e+21
-36.0712  1.009e+21
-35.9539  1.0076e+21
-35.8366  1.00061e+21
-35.7193  9.90354e+20
-35.602  9.79241e+20
-35.4847  9.69586e+20
-35.3674  9.63266e+20
-35.2501  9.61632e+20
-35.1328  9.65424e+20
-35.0154  9.74517e+20
-34.8981  9.88374e+20
-34.7808  1.00573e+21
-34.6635  1.0251e+21
-34.5462  1.04492e+21
-34.4289  1.06342e+21
-34.3116  1.07938e+21
-34.1943  1.0917e+21
-34.077  1.10003e+21
-33.9597  1.10452e+21
-33.8424  1.10585e+21
-33.7251  1.10522e+21
-33.6078  1.10422e+21
-33.4905  1.10451e+21
-33.3732  1.10763e+21
-33.2559  1.115e+21
-33.1386  1.12743e+21
-33.0213  1.14523e+21
-32.904  1.16817e+21
-32.7867  1.19555e+21
-32.6693  1.22641e+21
-32.552  1.25944e+21
-32.4347  1.29351e+21
-32.3174  1.32731e+21
-32.2001  1.35998e+21
-32.0828  1.391e+21
-31.9655  1.42016e+21
-31.8482  1.44777e+21
-31.7309  1.47465e+21
-31.6136  1.50204e+21
-31.4963  1.53137e+21
-31.379  1.56446e+21
-31.2617  1.60281e+21
-31.1444  1.64781e+21
-31.0271  1.70062e+21
-30.9098  1.76149e+21
-30.7925  1.83022e+21
-30.6752  1.9058e+21
-30.5579  1.98676e+21
-30.4406  2.07112e+21
-30.3232  2.1566e+21
-30.2059  2.24122e+21
-30.0886  2.32294e+21
-29.9713  2.39989e+21
-29.854  2.47133e+21
-29.7367  2.53642e+21
-29.6194  2.59525e+21
-29.5021  2.64809e+21
-29.3848  2.69618e+21
-29.2675  2.74036e+21
-29.1502  2.78189e+21
-29.0329  2.82148e+21
-28.9156  2.86014e+21
-28.7983  2.89786e+21
-28.681  2.93464e+21
-28.5637  2.97016e+21
-28.4464  3.00379e+21
-28.3291  3.03508e+21
-28.2118  3.06372e+21
-28.0944  3.08989e+21
-27.9771  3.11405e+21
-27.8598  3.13697e+21
-27.7425  3.15986e+21
-27.6252  3.18384e+21
-27.5079  3.20993e+21
-27.3906  3.23905e+21
-27.2733  3.27169e+21
-27.156  3.3084e+21
-27.0387  3.34916e+21
-26.9214  3.39431e+21
-26.8041  3.44382e+21
-26.6868  3.49808e+21
-26.5695  3.55713e+21
-26.4522  3.62105e+21
-26.3349  3.69021e+21
-26.2176  3.76424e+21
-26.1003  3.84342e+21
-25.983  3.92759e+21
-25.8657  4.01687e+21
-25.7483  4.11146e+21
-25.631  4.21184e+21
-25.5137  4.31836e+21
-25.3964  4.43164e+21
-25.2791  4.55119e+21
-25.1618  4.67705e+21
-25.0445  4.80805e+21
-24.9272  4.94248e+21
-24.8099  5.07803e+21
-24.6926  5.21261e+21
-24.5753  5.34361e+21
-24.458  5.46916e+21
-24.3407  5.58737e+21
-24.2234  5.698e+21
-24.1061  5.80056e+21
-23.9888  5.8959e+21
-23.8715  5.98551e+21
-23.7542  6.071e+21
-23.6369  6.15465e+21
-23.5196  6.23836e+21
-23.4023  6.3247e+21
-23.2849  6.41513e+21
-23.1676  6.51079e+21
-23.0503  6.61195e+21
-22.933  6.71826e+21
-22.8157  6.82749e+21
-22.6984  6.93696e+21
-22.5811  7.04275e+21
-22.4638  7.14155e+21
-22.3465  7.22907e+21
-22.2292  7.3029e+21
-22.1119  7.36131e+21
-21.9946  7.40507e+21
-21.8773  7.43627e+21
-21.76  7.45885e+21
-21.6427  7.47848e+21
-21.5254  7.50121e+21
-21.4081  7.53416e+21
-21.2908  7.5835e+21
-21.1735  7.65514e+21
-21.0561  7.75345e+21
-20.9388  7.88141e+21
-20.8215  8.03987e+21
-20.7042  8.22758e+21
-20.5869  8.44077e+21
-20.4696  8.67406e+21
-20.3523  8.92007e+21
-20.235  9.16982e+21
-20.1177  9.41378e+21
-20.0004  9.64284e+21
-19.8831  9.84943e+21
-19.7658  1.00274e+22
-19.6485  1.01734e+22
-19.5312  1.02879e+22
-19.4139  1.03733e+22
-19.2966  1.0435e+22
-19.1793  1.04805e+22
-19.062  1.05178e+22
-18.9447  1.05553e+22
-18.8274  1.06002e+22
-18.71  1.06595e+22
-18.5927  1.0737e+22
-18.4754  1.08353e+22
-18.3581  1.09547e+22
-18.2408  1.10941e+22
-18.1235  1.12503e+22
-18.0062  1.1419e+22
-17.8889  1.15946e+22
-17.7716  1.17725e+22
-17.6543  1.19465e+22
-17.537  1.21126e+22
-17.4197  1.22667e+22
-17.3024  1.24075e+22
-17.1851  1.25347e+22
-17.0678  1.26498e+22
-16.9505  1.27557e+22
-16.8332  1.28563e+22
-16.7159  1.29556e+22
-16.5986  1.30572e+22
-16.4813  1.31642e+22
-16.364  1.32778e+22
-16.2466  1.33982e+22
-16.1293  1.35243e+22
-16.012  1.3653e+22
-15.8947  1.37815e+22
-15.7774  1.39063e+22
-15.6601  1.40241e+22
-15.5428  1.41324e+22
-15.4255  1.42295e+22
-15.3082  1.43151e+22
-15.1909  1.4391e+22
-15.0736  1.44587e+22
-14.9563  1.45221e+22
-14.839  1.45852e+22
-14.7217  1.46528e+22
-14.6044  1.47288e+22
-14.4871  1.48175e+22
-14.3698  1.49217e+22
-14.2525  1.50425e+22
-14.1352  1.518e+22
-14.0178  1.53332e+22
-13.9005  1.54989e+22
-13.7832  1.56733e+22
-13.6659  1.58521e+22
-13.5486  1.60311e+22
-13.4313  1.62054e+22
-13.314  1.63717e+22
-13.1967  1.65271e+22
-13.0794  1.66705e+22
-12.9621  1.68007e+22
-12.8448  1.69189e+22
-12.7275  1.7026e+22
-12.6102  1.71245e+22
-12.4929  1.72168e+22
-12.3756  1.73054e+22
-12.2583  1.73927e+22
-12.141  1.74808e+22
-12.0237  1.75702e+22
-11.9064  1.76612e+22
-11.7891  1.77532e+22
-11.6718  1.78445e+22
-11.5544  1.79337e+22
-11.4371  1.80196e+22
-11.3198  1.80998e+22
-11.2025  1.81744e+22
-11.0852  1.82436e+22
-10.9679  1.83087e+22
-10.8506  1.83724e+22
-10.7333  1.84377e+22
-10.616  1.85082e+22
-10.4987  1.8589e+22
-10.3814  1.86828e+22
-10.2641  1.87934e+22
-10.1468  1.89224e+22
-10.0295  1.90714e+22
-9.91217  1.92388e+22
-9.79487  1.94227e+22
-9.67756  1.96189e+22
-9.56026  1.98219e+22
-9.44295  2.00253e+22
-9.32565  2.02228e+22
-9.20834  2.04073e+22
-9.09104  2.0573e+22
-8.97373  2.07156e+22
-8.85643  2.08322e+22
-8.73913  2.09219e+22
-8.62182  2.09859e+22
-8.50452  2.10277e+22
-8.38721  2.10517e+22
-8.26991  2.10632e+22
-8.1526  2.10687e+22
-8.03529  2.10732e+22
-7.91799  2.1082e+22
-7.80069  2.10986e+22
-7.68338  2.11252e+22
-7.56608  2.11627e+22
-7.44877  2.12105e+22
-7.33146  2.1266e+22
-7.21416  2.13266e+22
-7.09685  2.13887e+22
-6.97955  2.14485e+22
-6.86224  2.15035e+22
-6.74494  2.15525e+22
-6.62763  2.1594e+22
-6.51033  2.16299e+22
-6.39302  2.16627e+22
-6.27572  2.16964e+22
-6.15842  2.17359e+22
-6.04111  2.1786e+22
-5.92381  2.18511e+22
-5.8065  2.19356e+22
-5.68919  2.20408e+22
-5.57189  2.21679e+22
-5.45458  2.23147e+22
-5.33728  2.24787e+22
-5.21997  2.26538e+22
-5.10267  2.2834e+22
-4.98536  2.30112e+22
-4.86806  2.31776e+22
-4.75075  2.33254e+22
-4.63345  2.34483e+22
-4.51614  2.35411e+22
-4.39884  2.36012e+22
-4.28154  2.3629e+22
-4.16423  2.36264e+22
-4.04692  2.35985e+22
-3.92962  2.35521e+22
-3.81231  2.34954e+22
-3.69501  2.34361e+22
-3.5777  2.33816e+22
-3.4604  2.33387e+22
-3.34309  2.33116e+22
-3.22579  2.33025e+22
-3.10849  2.33123e+22
-2.99118  2.3339e+22
-2.87387  2.33801e+22
-2.75657  2.34314e+22
-2.63926  2.34878e+22
-2.52196  2.35444e+22
-2.40465  2.35958e+22
-2.28735  2.36374e+22
-2.17005  2.36657e+22
-2.05274  2.36792e+22
-1.93544  2.36764e+22
-1.81813  2.36593e+22
-1.70083  2.36303e+22
-1.58352  2.35938e+22
-1.46622  2.35546e+22
-1.34891  2.35178e+22
-1.2316  2.34873e+22
-1.1143  2.34664e+22
-0.996995  2.34566e+22
-0.87969  2.3458e+22
-0.762385  2.34688e+22
-0.64508  2.3487e+22
-0.527775  2.3509e+22
-0.41047  2.35314e+22
-0.293165  2.35511e+22
-0.17586  2.35657e+22
-0.058555  2.35733e+22
0.05875  2.35729e+22
0.176055  2.35648e+22
0.29336  2.35492e+22
0.410665  2.3529e+22
0.52797  2.35058e+22
0.645275  2.34828e+22
0.76258  2.34637e+22
0.879885  2.34518e+22
0.99719  2.34492e+22
1.1145  2.34577e+22
1.2318  2.34773e+22
1.3491  2.35067e+22
1.46641  2.35421e+22
1.58371  2.35797e+22
1.70102  2.36146e+22
1.81832  2.36419e+22
1.93563  2.36574e+22
2.05294  2.36586e+22
2.17024  2.36442e+22
2.28754  2.36144e+22
2.40485  2.35715e+22
2.52216  2.35191e+22
2.63946  2.34618e+22
2.75677  2.34042e+22
2.87407  2.33522e+22
2.99137  2.33099e+22
3.10868  2.3282e+22
3.22599  2.32711e+22
3.34329  2.32789e+22
3.4606  2.33049e+22
3.5779  2.33462e+22
3.69521  2.33985e+22
3.81251  2.3456e+22
3.92982  2.35104e+22
4.04712  2.35543e+22
4.16443  2.35798e+22
4.28173  2.35801e+22
4.39903  2.35501e+22
4.51634  2.34877e+22
4.63364  2.33931e+22
4.75095  2.32686e+22
4.86825  2.31195e+22
4.98556  2.2952e+22
5.10286  2.27742e+22
5.22017  2.25938e+22
5.33748  2.24184e+22
5.45478  2.22547e+22
5.57209  2.2108e+22
5.68939  2.19809e+22
5.8067  2.18758e+22
5.924  2.17914e+22
6.0413  2.17262e+22
6.15861  2.16757e+22
6.27591  2.16356e+22
6.39322  2.16011e+22
6.51052  2.15671e+22
6.62783  2.15298e+22
6.74514  2.14868e+22
6.86244  2.14368e+22
6.97975  2.13802e+22
7.09705  2.13188e+22
7.21436  2.12555e+22
7.33166  2.11934e+22
7.44897  2.11365e+22
7.56627  2.10878e+22
7.68358  2.1049e+22
7.80088  2.10212e+22
7.91819  2.10033e+22
8.03549  2.09935e+22
8.1528  2.0988e+22
8.2701  2.09812e+22
8.38741  2.09679e+22
8.50471  2.09427e+22
8.62202  2.08992e+22
8.73932  2.08333e+22
8.85662  2.07422e+22
8.97393  2.0624e+22
9.09123  2.04798e+22
9.20854  2.03125e+22
9.32584  2.01269e+22
9.44315  1.99283e+22
9.56045  1.97235e+22
9.67776  1.95197e+22
9.79506  1.93229e+22
9.91237  1.91384e+22
10.0297  1.89705e+22
10.147  1.88214e+22
10.2643  1.8692e+22
10.3816  1.85811e+22
10.4989  1.8487e+22
10.6162  1.84061e+22
10.7335  1.83351e+22
10.8508  1.82693e+22
10.9681  1.82051e+22
11.0854  1.81396e+22
11.2027  1.80698e+22
11.32  1.79944e+22
11.4373  1.79133e+22
11.5546  1.78269e+22
11.6719  1.7737e+22
11.7893  1.76449e+22
11.9066  1.75524e+22
12.0239  1.74604e+22
12.1412  1.73704e+22
12.2585  1.7282e+22
12.3758  1.7194e+22
12.4931  1.71047e+22
12.6104  1.70118e+22
12.7277  1.69129e+22
12.845  1.68055e+22
12.9623  1.66868e+22
13.0796  1.65561e+22
13.1969  1.64126e+22
13.3142  1.62567e+22
13.4315  1.609e+22
13.5488  1.59156e+22
13.6661  1.57365e+22
13.7834  1.55573e+22
13.9007  1.53825e+22
14.018  1.52169e+22
14.1354  1.50634e+22
14.2527  1.49252e+22
14.37  1.48042e+22
14.4873  1.46996e+22
14.6046  1.46103e+22
14.7219  1.45338e+22
14.8392  1.44658e+22
14.9565  1.44024e+22
15.0738  1.43384e+22
15.1911  1.42703e+22
15.3084  1.41941e+22
15.4257  1.41078e+22
15.543  1.40102e+22
15.6603  1.39015e+22
15.7776  1.37837e+22
15.8949  1.36586e+22
16.0122  1.35297e+22
16.1295  1.34004e+22
16.2468  1.32741e+22
16.3641  1.31532e+22
16.4815  1.30393e+22
16.5988  1.29321e+22
16.7161  1.28296e+22
16.8334  1.27298e+22
16.9507  1.26287e+22
17.068  1.25224e+22
17.1853  1.24068e+22
17.3026  1.22793e+22
17.4199  1.21384e+22
17.5372  1.19844e+22
17.6545  1.18187e+22
17.7718  1.16453e+22
17.8891  1.14685e+22
18.0064  1.12937e+22
18.1237  1.11262e+22
18.241  1.09715e+22
18.3583  1.08333e+22
18.4756  1.07149e+22
18.5929  1.06177e+22
18.7102  1.05412e+22
18.8275  1.04826e+22
18.9449  1.04377e+22
19.0622  1.04005e+22
19.1795  1.03629e+22
19.2968  1.03171e+22
19.4141  1.02547e+22
19.5314  1.01688e+22
19.6487  1.00541e+22
19.766  9.90741e+21
19.8833  9.72949e+21
20.0006  9.52311e+21
20.1179  9.29429e+21
20.2352  9.05122e+21
20.3525  8.80269e+21
20.4698  8.55843e+21
20.5871  8.32681e+21
20.7044  8.11526e+21
20.8217  7.92955e+21
20.939  7.77296e+21
21.0563  7.6465e+21
21.1736  7.54973e+21
21.291  7.4794e+21
21.4083  7.43075e+21
21.5256  7.3987e+21
21.6429  7.37621e+21
21.7602  7.35689e+21
21.8775  7.33412e+21
21.9948  7.30278e+21
22.1121  7.25875e+21
22.2294  7.19991e+21
22.3467  7.12574e+21
22.464  7.03816e+21
22.5813  6.93954e+21
22.6986  6.8339e+21
22.8159  6.72479e+21
22.9332  6.61616e+21
23.0505  6.51063e+21
23.1678  6.41015e+21
23.2851  6.31547e+21
23.4024  6.22608e+21
23.5198  6.14071e+21
23.6371  6.05792e+21
23.7544  5.9753e+21
23.8717  5.89073e+21
23.989  5.80206e+21
24.1063  5.70756e+21
24.2236  5.60593e+21
24.3409  5.49638e+21
24.4582  5.37898e+21
24.5755  5.25451e+21
24.6928  5.1244e+21
24.8101  4.99087e+21
24.9274  4.85642e+21
25.0447  4.72314e+21
25.162  4.59345e+21
25.2793  4.46896e+21
25.3966  4.35052e+21
25.5139  4.23881e+21
25.6312  4.13367e+21
25.7485  4.03455e+21
25.8658  3.94139e+21
25.9832  3.85347e+21
26.1005  3.77064e+21
26.2178  3.69293e+21
26.3351  3.6201e+21
26.4524  3.55232e+21
26.5697  3.48952e+21
26.687  3.43166e+21
26.8043  3.3785e+21
26.9216  3.32983e+21
27.0389  3.28556e+21
27.1562  3.24568e+21
27.2735  3.20975e+21
27.3908  3.17785e+21
27.5081  3.14942e+21
27.6254  3.124e+21
27.7427  3.10071e+21
27.86  3.07854e+21
27.9773  3.05638e+21
28.0946  3.03301e+21
28.212  3.00753e+21
28.3293  2.97971e+21
28.4466  2.94919e+21
28.5639  2.91641e+21
28.6812  2.88165e+21
28.7985  2.8457e+21
28.9158  2.80882e+21
29.0331  2.77096e+21
29.1504  2.73211e+21
29.2677  2.69131e+21
29.385  2.64777e+21
29.5023  2.60037e+21
29.6196  2.54809e+21
29.7369  2.48989e+21
29.8542  2.42545e+21
29.9715  2.35492e+21
30.0888  2.27862e+21
30.2061  2.19795e+21
30.3234  2.11434e+21
30.4407  2.02981e+21
30.558  1.94666e+21
30.6754  1.86685e+21
30.7927  1.79258e+21
30.91  1.72515e+21
31.0273  1.66544e+21
31.1446  1.61381e+21
31.2619  1.56982e+21
31.3792  1.53244e+21
31.4965  1.50027e+21
31.6138  1.47167e+21
31.7311  1.44504e+21
31.8484  1.41884e+21
31.9657  1.39177e+21
32.083  1.36329e+21
32.2003  1.33296e+21
32.3176  1.30086e+21
32.4349  1.26777e+21
32.5522  1.23445e+21
32.6695  1.20219e+21
32.7868  1.17213e+21
32.9042  1.14551e+21
33.0215  1.12339e+21
33.1388  1.10631e+21
33.2561  1.09462e+21
33.3734  1.08787e+21
33.4907  1.08528e+21
33.608  1.08552e+21
33.7253  1.08687e+21
33.8426  1.0879e+21
33.9599  1.08685e+21
34.0772  1.08268e+21
34.1945  1.07463e+21
34.3118  1.06258e+21
34.4291  1.04698e+21
34.5464  1.02883e+21
34.6637  1.00958e+21
34.781  9.90692e+20
34.8983  9.73879e+20
35.0156  9.60569e+20
35.1329  9.5196e+20
35.2503  9.4875e+20
35.3676  9.50731e+20
35.4849  9.57503e+20
35.6022  9.67563e+20
35.7195  9.78901e+20
35.8368  9.89286e+20
35.9541  9.96367e+20
36.0714  9.97821e+20
36.1887  9.92038e+20
36.306  9.78323e+20
36.4233  9.5682e+20
36.5406  9.28698e+20
36.6579  8.95945e+20
36.7752  8.61378e+20
36.8925  8.27931e+20
37.0098  7.98227e+20
37.1271  7.74842e+20
37.2444  7.59186e+20
37.3617  7.52081e+20
37.479  7.53344e+20
37.5964  7.61906e+20
37.7137  7.7592e+20
37.831  7.93163e+20
37.9483  8.11157e+20
38.0656  8.27564e+20
38.1829  8.4002e+20
38.3002  8.46901e+20
38.4175  8.47258e+20
38.5348  8.40981e+20
38.6521  8.28833e+20
38.7694  8.12382e+20
38.8867  7.93689e+20
39.004  7.75324e+20
39.1213  7.59725e+20
39.2386  7.48977e+20
39.3559  7.4424e+20
39.4732  7.45736e+20
39.5905  7.52884e+20
39.7078  7.64125e+20
39.8251  7.77269e+20
39.9425  7.89976e+20
40.0598  7.99762e+20
40.1771  8.04831e+20
40.2944  8.03941e+20
40.4117  7.96698e+20
40.529  7.83169e+20
40.6463  7.64467e+20
40.7636  7.41855e+20
40.8809  7.16951e+20
40.9982  6.91517e+20
41.1155  6.67106e+20
41.2328  6.45319e+20
41.3501  6.27283e+20
41.4674  6.1378e+20
41.5847  6.05325e+20
41.702  6.01465e+20
41.8193  6.01572e+20
41.9366  6.04201e+20
42.0539  6.07785e+20
42.1712  6.10615e+20
42.2885  6.11062e+20
42.4059  6.07901e+20
42.5232  6.00726e+20
42.6405  5.89669e+20
42.7578  5.75924e+20
42.8751  5.60761e+20
42.9924  5.45982e+20
43.1097  5.33449e+20
43.227  5.24383e+20
43.3443  5.19781e+20
43.4616  5.19752e+20
43.5789  5.23889e+20
43.6962  5.31345e+20
43.8135  5.41007e+20
43.9308  5.51835e+20
44.0481  5.62496e+20
44.1654  5.72262e+20
44.2827  5.80586e+20
44.4  5.87306e+20
44.5173  5.92508e+20
44.6347  5.96655e+20
44.752  6.00342e+20
44.8693  6.04276e+20
44.9866  6.09331e+20
45.1039  6.16334e+20
45.2212  6.25559e+20
45.3385  6.37344e+20
45.4558  6.51304e+20
45.5731  6.6672e+20
45.6904  6.82255e+20
45.8077  6.96296e+20
45.925  7.07332e+20
46.0423  7.13835e+20
46.1596  7.14727e+20
46.2769  7.0957e+20
46.3942  6.98453e+20
46.5115  6.8225e+20
46.6288  6.62042e+20
46.7461  6.39403e+20
46.8634  6.15985e+20
46.9808  5.9296e+20
47.0981  5.71664e+20
47.2154  5.52777e+20
47.3327  5.366e+20
47.45  5.23144e+20
47.5673  5.11961e+20
47.6846  5.02617e+20
47.8019  4.94215e+20
47.9192  4.85838e+20
48.0365  4.76773e+20
48.1538  4.66131e+20
48.2711  4.5356e+20
48.3884  4.38773e+20
48.5057  4.22131e+20
48.623  4.04104e+20
48.7403  3.85683e+20
48.8576  3.68066e+20
48.9749  3.52235e+20
49.0922  3.3929e+20
49.2095  3.29974e+20
49.3269  3.24616e+20
49.4442  3.23327e+20
49.5615  3.25805e+20
49.6788  3.31646e+20
49.7961  3.40137e+20
49.9134  3.50633e+20
50.0307  3.62423e+20
50.148  3.74836e+20
50.2653  3.87236e+20
50.3826  3.9905e+20
50.4999  4.09541e+20
50.6172  4.18481e+20
50.7345  4.25497e+20
50.8518  4.30583e+20
