#S 1 spectral density
#N 2
#UFWHM 33.1973
#L  abscissas [um]  spectral density
-58.5938  2.01958e+20
-58.4764  2.04566e+20
-58.3591  2.0963e+20
-58.2418  2.16916e+20
-58.1245  2.25705e+20
-58.0072  2.35065e+20
-57.8899  2.43862e+20
-57.7726  2.5117e+20
-57.6553  2.56138e+20
-57.538  2.58302e+20
-57.4207  2.57771e+20
-57.3034  2.54863e+20
-57.1861  2.50273e+20
-57.0688  2.44709e+20
-56.9515  2.39223e+20
-56.8342  2.34553e+20
-56.7169  2.31349e+20
-56.5996  2.30224e+20
-56.4823  2.31413e+20
-56.365  2.35031e+20
-56.2477  2.40883e+20
-56.1303  2.4853e+20
-56.013  2.57273e+20
-55.8957  2.66123e+20
-55.7784  2.74087e+20
-55.6611  2.79995e+20
-55.5438  2.82969e+20
-55.4265  2.82455e+20
-55.3092  2.78348e+20
-55.1919  2.70945e+20
-55.0746  2.61183e+20
-54.9573  2.50136e+20
-54.84  2.39309e+20
-54.7227  2.29885e+20
-54.6054  2.22948e+20
-54.4881  2.1901e+20
-54.3708  2.18159e+20
-54.2535  2.19984e+20
-54.1362  2.23571e+20
-54.0189  2.27913e+20
-53.9016  2.31872e+20
-53.7842  2.34589e+20
-53.6669  2.35466e+20
-53.5496  2.34267e+20
-53.4323  2.31362e+20
-53.315  2.27321e+20
-53.1977  2.23176e+20
-53.0804  2.2009e+20
-52.9631  2.19033e+20
-52.8458  2.20823e+20
-52.7285  2.26012e+20
-52.6112  2.34609e+20
-52.4939  2.46239e+20
-52.3766  2.60183e+20
-52.2593  2.75364e+20
-52.142  2.90729e+20
-52.0247  3.05109e+20
-51.9074  3.17578e+20
-51.7901  3.27324e+20
-51.6728  3.33881e+20
-51.5555  3.37001e+20
-51.4381  3.36875e+20
-51.3208  3.33718e+20
-51.2035  3.28128e+20
-51.0862  3.20751e+20
-50.9689  3.12567e+20
-50.8516  3.04564e+20
-50.7343  2.97603e+20
-50.617  2.92593e+20
-50.4997  2.90111e+20
-50.3824  2.90331e+20
-50.2651  2.93143e+20
-50.1478  2.97783e+20
-50.0305  3.03391e+20
-49.9132  3.08834e+20
-49.7959  3.13015e+20
-49.6786  3.15249e+20
-49.5613  3.15002e+20
-49.444  3.12412e+20
-49.3267  3.08044e+20
-49.2094  3.0296e+20
-49.092  2.98256e+20
-48.9747  2.95293e+20
-48.8574  2.95046e+20
-48.7401  2.98355e+20
-48.6228  3.05665e+20
-48.5055  3.16999e+20
-48.3882  3.32091e+20
-48.2709  3.50266e+20
-48.1536  3.70814e+20
-48.0363  3.92803e+20
-47.919  4.15313e+20
-47.8017  4.37547e+20
-47.6844  4.58902e+20
-47.5671  4.78862e+20
-47.4498  4.97396e+20
-47.3325  5.14683e+20
-47.2152  5.31159e+20
-47.0979  5.4731e+20
-46.9806  5.63594e+20
-46.8633  5.8019e+20
-46.7459  5.97079e+20
-46.6286  6.13429e+20
-46.5113  6.28399e+20
-46.394  6.40295e+20
-46.2767  6.48007e+20
-46.1594  6.50196e+20
-46.0421  6.45935e+20
-45.9248  6.35142e+20
-45.8075  6.1839e+20
-45.6902  5.96825e+20
-45.5729  5.72429e+20
-45.4556  5.47161e+20
-45.3383  5.23537e+20
-45.221  5.03461e+20
-45.1037  4.88885e+20
-44.9864  4.81243e+20
-44.8691  4.81097e+20
-44.7518  4.88566e+20
-44.6345  5.03077e+20
-44.5172  5.23306e+20
-44.3998  5.4762e+20
-44.2825  5.73644e+20
-44.1652  5.99135e+20
-44.0479  6.21882e+20
-43.9306  6.39822e+20
-43.8133  6.5167e+20
-43.696  6.56675e+20
-43.5787  6.55052e+20
-43.4614  6.47659e+20
-43.3441  6.35917e+20
-43.2268  6.21394e+20
-43.1095  6.06001e+20
-42.9922  5.91072e+20
-42.8749  5.77738e+20
-42.7576  5.666e+20
-42.6403  5.5783e+20
-42.523  5.51445e+20
-42.4057  5.47183e+20
-42.2884  5.44682e+20
-42.171  5.44034e+20
-42.0537  5.44944e+20
-41.9364  5.4755e+20
-41.8191  5.51902e+20
-41.7018  5.58e+20
-41.5845  5.65993e+20
-41.4672  5.75792e+20
-41.3499  5.87611e+20
-41.2326  6.0154e+20
-41.1153  6.17697e+20
-40.998  6.36327e+20
-40.8807  6.57398e+20
-40.7634  6.8056e+20
-40.6461  7.05258e+20
-40.5288  7.30263e+20
-40.4115  7.5423e+20
-40.2942  7.75563e+20
-40.1769  7.92562e+20
-40.0596  8.0402e+20
-39.9423  8.09189e+20
-39.825  8.07953e+20
-39.7076  8.01515e+20
-39.5903  7.9105e+20
-39.473  7.78716e+20
-39.3557  7.66967e+20
-39.2384  7.57857e+20
-39.1211  7.53146e+20
-39.0038  7.54089e+20
-38.8865  7.61121e+20
-38.7692  7.73822e+20
-38.6519  7.9137e+20
-38.5346  8.11822e+20
-38.4173  8.33513e+20
-38.3  8.54101e+20
-38.1827  8.71478e+20
-38.0654  8.83827e+20
-37.9481  8.89688e+20
-37.8308  8.88486e+20
-37.7135  8.80262e+20
-37.5962  8.65904e+20
-37.4789  8.47435e+20
-37.3615  8.26893e+20
-37.2442  8.07241e+20
-37.1269  7.90938e+20
-37.0096  7.8003e+20
-36.8923  7.76007e+20
-36.775  7.79079e+20
-36.6577  7.88814e+20
-36.5404  8.03545e+20
-36.4231  8.21015e+20
-36.3058  8.38945e+20
-36.1885  8.54805e+20
-36.0712  8.66793e+20
-35.9539  8.73446e+20
-35.8366  8.7446e+20
-35.7193  8.7024e+20
-35.602  8.61938e+20
-35.4847  8.51173e+20
-35.3674  8.39908e+20
-35.2501  8.29966e+20
-35.1328  8.23255e+20
-35.0154  8.21164e+20
-34.8981  8.24517e+20
-34.7808  8.33416e+20
-34.6635  8.47474e+20
-34.5462  8.65645e+20
-34.4289  8.86182e+20
-34.3116  9.07425e+20
-34.1943  9.27343e+20
-34.077  9.44321e+20
-33.9597  9.57265e+20
-33.8424  9.65424e+20
-33.7251  9.69015e+20
-33.6078  9.68903e+20
-33.4905  9.66537e+20
-33.3732  9.63755e+20
-33.2559  9.62572e+20
-33.1386  9.65014e+20
-33.0213  9.72607e+20
-32.904  9.86583e+20
-32.7867  1.00757e+21
-32.6693  1.03557e+21
-32.552  1.06997e+21
-32.4347  1.10979e+21
-32.3174  1.15327e+21
-32.2001  1.1988e+21
-32.0828  1.24441e+21
-31.9655  1.28843e+21
-31.8482  1.32931e+21
-31.7309  1.36614e+21
-31.6136  1.39875e+21
-31.4963  1.42735e+21
-31.379  1.45306e+21
-31.2617  1.47717e+21
-31.1444  1.50146e+21
-31.0271  1.52784e+21
-30.9098  1.55772e+21
-30.7925  1.59229e+21
-30.6752  1.63188e+21
-30.5579  1.6763e+21
-30.4406  1.72474e+21
-30.3232  1.77565e+21
-30.2059  1.82753e+21
-30.0886  1.87834e+21
-29.9713  1.92616e+21
-29.854  1.96971e+21
-29.7367  2.00778e+21
-29.6194  2.04001e+21
-29.5021  2.06634e+21
-29.3848  2.08785e+21
-29.2675  2.10553e+21
-29.1502  2.12091e+21
-29.0329  2.13535e+21
-28.9156  2.15041e+21
-28.7983  2.16686e+21
-28.681  2.18535e+21
-28.5637  2.20612e+21
-28.4464  2.22902e+21
-28.3291  2.25374e+21
-28.2118  2.27987e+21
-28.0944  2.30736e+21
-27.9771  2.33625e+21
-27.8598  2.36679e+21
-27.7425  2.39967e+21
-27.6252  2.43553e+21
-27.5079  2.47499e+21
-27.3906  2.51877e+21
-27.2733  2.56735e+21
-27.156  2.6213e+21
-27.0387  2.68094e+21
-26.9214  2.74664e+21
-26.8041  2.81861e+21
-26.6868  2.89697e+21
-26.5695  2.98136e+21
-26.4522  3.07094e+21
-26.3349  3.16474e+21
-26.2176  3.26074e+21
-26.1003  3.35721e+21
-25.983  3.45164e+21
-25.8657  3.54207e+21
-25.7483  3.62687e+21
-25.631  3.70491e+21
-25.5137  3.77603e+21
-25.3964  3.84093e+21
-25.2791  3.90029e+21
-25.1618  3.95614e+21
-25.0445  4.01042e+21
-24.9272  4.06485e+21
-24.8099  4.1211e+21
-24.6926  4.18101e+21
-24.5753  4.24557e+21
-24.458  4.3158e+21
-24.3407  4.39192e+21
-24.2234  4.47446e+21
-24.1061  4.56272e+21
-23.9888  4.65619e+21
-23.8715  4.75423e+21
-23.7542  4.85582e+21
-23.6369  4.96027e+21
-23.5196  5.06697e+21
-23.4023  5.17622e+21
-23.2849  5.28835e+21
-23.1676  5.40407e+21
-23.0503  5.52438e+21
-22.933  5.65033e+21
-22.8157  5.78185e+21
-22.6984  5.91865e+21
-22.5811  6.05894e+21
-22.4638  6.20139e+21
-22.3465  6.34291e+21
-22.2292  6.48112e+21
-22.1119  6.6135e+21
-21.9946  6.73886e+21
-21.8773  6.85648e+21
-21.76  6.96656e+21
-21.6427  7.07073e+21
-21.5254  7.17082e+21
-21.4081  7.27013e+21
-21.2908  7.37117e+21
-21.1735  7.47721e+21
-21.0561  7.59098e+21
-20.9388  7.71448e+21
-20.8215  7.8492e+21
-20.7042  7.99523e+21
-20.5869  8.15116e+21
-20.4696  8.31461e+21
-20.3523  8.48203e+21
-20.235  8.64802e+21
-20.1177  8.80701e+21
-20.0004  8.95346e+21
-19.8831  9.08281e+21
-19.7658  9.19132e+21
-19.6485  9.27738e+21
-19.5312  9.342e+21
-19.4139  9.38776e+21
-19.2966  9.41934e+21
-19.1793  9.44313e+21
-19.062  9.46567e+21
-18.9447  9.49376e+21
-18.8274  9.53358e+21
-18.71  9.59081e+21
-18.5927  9.66912e+21
-18.4754  9.77108e+21
-18.3581  9.89771e+21
-18.2408  1.0049e+22
-18.1235  1.02228e+22
-18.0062  1.04161e+22
-17.8889  1.06243e+22
-17.7716  1.08433e+22
-17.6543  1.1067e+22
-17.537  1.12906e+22
-17.4197  1.15089e+22
-17.3024  1.17189e+22
-17.1851  1.19183e+22
-17.0678  1.21065e+22
-16.9505  1.22849e+22
-16.8332  1.24556e+22
-16.7159  1.26222e+22
-16.5986  1.27879e+22
-16.4813  1.29559e+22
-16.364  1.31285e+22
-16.2466  1.33068e+22
-16.1293  1.34905e+22
-16.012  1.36775e+22
-15.8947  1.3865e+22
-15.7774  1.40491e+22
-15.6601  1.42255e+22
-15.5428  1.43901e+22
-15.4255  1.4539e+22
-15.3082  1.46694e+22
-15.1909  1.47808e+22
-15.0736  1.48727e+22
-14.9563  1.49474e+22
-14.839  1.50082e+22
-14.7217  1.50599e+22
-14.6044  1.51075e+22
-14.4871  1.51571e+22
-14.3698  1.52134e+22
-14.2525  1.52809e+22
-14.1352  1.53627e+22
-14.0178  1.54606e+22
-13.9005  1.55743e+22
-13.7832  1.57026e+22
-13.6659  1.58429e+22
-13.5486  1.59923e+22
-13.4313  1.61466e+22
-13.314  1.63027e+22
-13.1967  1.64575e+22
-13.0794  1.66091e+22
-12.9621  1.67553e+22
-12.8448  1.68965e+22
-12.7275  1.70322e+22
-12.6102  1.71641e+22
-12.4929  1.72939e+22
-12.3756  1.7423e+22
-12.2583  1.75538e+22
-12.141  1.76877e+22
-12.0237  1.7825e+22
-11.9064  1.7966e+22
-11.7891  1.81101e+22
-11.6718  1.82553e+22
-11.5544  1.84e+22
-11.4371  1.85426e+22
-11.3198  1.86803e+22
-11.2025  1.88124e+22
-11.0852  1.89381e+22
-10.9679  1.90577e+22
-10.8506  1.91729e+22
-10.7333  1.92855e+22
-10.616  1.9398e+22
-10.4987  1.95146e+22
-10.3814  1.96372e+22
-10.2641  1.9769e+22
-10.1468  1.99114e+22
-10.0295  2.00657e+22
-9.91217  2.02305e+22
-9.79487  2.04042e+22
-9.67756  2.05831e+22
-9.56026  2.07623e+22
-9.44295  2.09361e+22
-9.32565  2.1099e+22
-9.20834  2.12446e+22
-9.09104  2.13686e+22
-8.97373  2.14673e+22
-8.85643  2.15391e+22
-8.73913  2.1584e+22
-8.62182  2.16048e+22
-8.50452  2.16061e+22
-8.38721  2.15934e+22
-8.26991  2.15732e+22
-8.1526  2.15528e+22
-8.03529  2.1538e+22
-7.91799  2.15346e+22
-7.80069  2.15466e+22
-7.68338  2.15761e+22
-7.56608  2.16239e+22
-7.44877  2.16889e+22
-7.33146  2.17678e+22
-7.21416  2.1857e+22
-7.09685  2.19521e+22
-6.97955  2.20479e+22
-6.86224  2.21406e+22
-6.74494  2.2228e+22
-6.62763  2.23071e+22
-6.51033  2.23789e+22
-6.39302  2.24449e+22
-6.27572  2.25086e+22
-6.15842  2.25745e+22
-6.04111  2.26478e+22
-5.92381  2.27331e+22
-5.8065  2.28357e+22
-5.68919  2.29581e+22
-5.57189  2.31025e+22
-5.45458  2.32679e+22
-5.33728  2.34526e+22
-5.21997  2.36512e+22
-5.10267  2.38575e+22
-4.98536  2.40635e+22
-4.86806  2.42603e+22
-4.75075  2.4439e+22
-4.63345  2.45919e+22
-4.51614  2.47126e+22
-4.39884  2.4797e+22
-4.28154  2.48447e+22
-4.16423  2.48575e+22
-4.04692  2.48403e+22
-3.92962  2.48011e+22
-3.81231  2.4749e+22
-3.69501  2.46933e+22
-3.5777  2.46437e+22
-3.4604  2.46081e+22
-3.34309  2.45922e+22
-3.22579  2.45992e+22
-3.10849  2.46303e+22
-2.99118  2.46832e+22
-2.87387  2.47544e+22
-2.75657  2.48385e+22
-2.63926  2.49286e+22
-2.52196  2.50181e+22
-2.40465  2.51004e+22
-2.28735  2.51691e+22
-2.17005  2.52198e+22
-2.05274  2.52509e+22
-1.93544  2.52605e+22
-1.81813  2.52511e+22
-1.70083  2.52258e+22
-1.58352  2.51896e+22
-1.46622  2.5148e+22
-1.34891  2.51071e+22
-1.2316  2.50713e+22
-1.1143  2.50445e+22
-0.996995  2.50282e+22
-0.87969  2.50233e+22
-0.762385  2.50276e+22
-0.64508  2.50397e+22
-0.527775  2.5056e+22
-0.41047  2.50736e+22
-0.293165  2.50894e+22
-0.17586  2.51012e+22
-0.058555  2.51076e+22
0.05875  2.51074e+22
0.176055  2.51009e+22
0.29336  2.50884e+22
0.410665  2.50722e+22
0.52797  2.5054e+22
0.645275  2.50368e+22
0.76258  2.50238e+22
0.879885  2.50182e+22
0.99719  2.50217e+22
1.1145  2.50364e+22
1.2318  2.50616e+22
1.3491  2.50958e+22
1.46641  2.51349e+22
1.58371  2.51744e+22
1.70102  2.52084e+22
1.81832  2.52316e+22
1.93563  2.52389e+22
2.05294  2.5227e+22
2.17024  2.51946e+22
2.28754  2.51418e+22
2.40485  2.50715e+22
2.52216  2.49879e+22
2.63946  2.48973e+22
2.75677  2.48057e+22
2.87407  2.47206e+22
2.99137  2.46481e+22
3.10868  2.45939e+22
3.22599  2.45615e+22
3.34329  2.45531e+22
3.4606  2.45676e+22
3.5779  2.46014e+22
3.69521  2.46488e+22
3.81251  2.47023e+22
3.92982  2.4752e+22
4.04712  2.47885e+22
4.16443  2.48031e+22
4.28173  2.47877e+22
4.39903  2.47376e+22
4.51634  2.46508e+22
4.63364  2.45284e+22
4.75095  2.43737e+22
4.86825  2.41938e+22
4.98556  2.39961e+22
5.10286  2.37898e+22
5.22017  2.35833e+22
5.33748  2.33847e+22
5.45478  2.32005e+22
5.57209  2.30353e+22
5.68939  2.28911e+22
5.8067  2.27689e+22
5.924  2.26664e+22
6.0413  2.25809e+22
6.15861  2.25073e+22
6.27591  2.24408e+22
6.39322  2.23762e+22
6.51052  2.23091e+22
6.62783  2.22359e+22
6.74514  2.21552e+22
6.86244  2.20671e+22
6.97975  2.19727e+22
7.09705  2.18753e+22
7.21436  2.17793e+22
7.33166  2.16886e+22
7.44897  2.16084e+22
7.56627  2.15427e+22
7.68358  2.14937e+22
7.80088  2.1463e+22
7.91819  2.14497e+22
8.03549  2.1452e+22
8.1528  2.14657e+22
8.2701  2.14847e+22
8.38741  2.1503e+22
8.50471  2.15142e+22
8.62202  2.15109e+22
8.73932  2.14878e+22
8.85662  2.14409e+22
8.97393  2.1367e+22
9.09123  2.12663e+22
9.20854  2.11403e+22
9.32584  2.09929e+22
9.44315  2.08284e+22
9.56045  2.06529e+22
9.67776  2.04726e+22
9.79506  2.02927e+22
9.91237  2.01181e+22
10.0297  1.99527e+22
10.147  1.97982e+22
10.2643  1.96555e+22
10.3816  1.95235e+22
10.4989  1.94008e+22
10.6162  1.92845e+22
10.7335  1.91717e+22
10.8508  1.9059e+22
10.9681  1.89438e+22
11.0854  1.88241e+22
11.2027  1.86982e+22
11.32  1.85656e+22
11.4373  1.84273e+22
11.5546  1.82846e+22
11.6719  1.81393e+22
11.7893  1.79934e+22
11.9066  1.78492e+22
12.0239  1.77071e+22
12.1412  1.75692e+22
12.2585  1.74351e+22
12.3758  1.73038e+22
12.4931  1.71738e+22
12.6104  1.70434e+22
12.7277  1.6911e+22
12.845  1.67749e+22
12.9623  1.66333e+22
13.0796  1.64864e+22
13.1969  1.63347e+22
13.3142  1.61794e+22
13.4315  1.60226e+22
13.5488  1.5868e+22
13.6661  1.57184e+22
13.7834  1.55776e+22
13.9007  1.54488e+22
14.018  1.53348e+22
14.1354  1.52364e+22
14.2527  1.51537e+22
14.37  1.50857e+22
14.4873  1.50284e+22
14.6046  1.4978e+22
14.7219  1.49297e+22
14.8392  1.48771e+22
14.9565  1.48157e+22
15.0738  1.47403e+22
15.1911  1.46478e+22
15.3084  1.45361e+22
15.4257  1.44051e+22
15.543  1.42561e+22
15.6603  1.40914e+22
15.7776  1.39153e+22
15.8949  1.37314e+22
16.0122  1.3544e+22
16.1295  1.33571e+22
16.2468  1.31737e+22
16.3641  1.29955e+22
16.4815  1.2823e+22
16.5988  1.26552e+22
16.7161  1.24891e+22
16.8334  1.23226e+22
16.9507  1.21516e+22
17.068  1.19733e+22
17.1853  1.17849e+22
17.3026  1.15857e+22
17.4199  1.13761e+22
17.5372  1.11582e+22
17.6545  1.09353e+22
17.7718  1.07126e+22
17.8891  1.04949e+22
18.0064  1.02878e+22
18.1237  1.00959e+22
18.241  9.92372e+21
18.3583  9.77382e+21
18.4756  9.64828e+21
18.5929  9.54742e+21
18.7102  9.4702e+21
18.8275  9.41375e+21
18.9449  9.37423e+21
19.0622  9.34666e+21
19.1795  9.32418e+21
19.2968  9.30034e+21
19.4141  9.26848e+21
19.5314  9.22246e+21
19.6487  9.15776e+21
19.766  9.07136e+21
19.8833  8.9629e+21
20.0006  8.83372e+21
20.1179  8.68738e+21
20.2352  8.5291e+21
20.3525  8.36391e+21
20.4698  8.19785e+21
20.5871  8.03556e+21
20.7044  7.88087e+21
20.8217  7.73643e+21
20.939  7.60325e+21
21.0563  7.48095e+21
21.1736  7.36872e+21
21.291  7.26399e+21
21.4083  7.16394e+21
21.5256  7.06593e+21
21.6429  6.96656e+21
21.7602  6.86345e+21
21.8775  6.75402e+21
21.9948  6.63727e+21
22.1121  6.5126e+21
22.2294  6.38075e+21
22.3467  6.2432e+21
22.464  6.10262e+21
22.5813  5.96119e+21
22.6986  5.82173e+21
22.8159  5.68606e+21
22.9332  5.55566e+21
23.0505  5.43092e+21
23.1678  5.31163e+21
23.2851  5.19718e+21
23.4024  5.08632e+21
23.5198  4.97828e+21
23.6371  4.87277e+21
23.7544  4.76963e+21
23.8717  4.66936e+21
23.989  4.5726e+21
24.1063  4.4803e+21
24.2236  4.39338e+21
24.3409  4.31221e+21
24.4582  4.23723e+21
24.5755  4.1682e+21
24.6928  4.10462e+21
24.8101  4.04575e+21
24.9274  3.99045e+21
25.0447  3.93695e+21
25.162  3.88365e+21
25.2793  3.82864e+21
25.3966  3.76999e+21
25.5139  3.70626e+21
25.6312  3.63607e+21
25.7485  3.55886e+21
25.8658  3.47525e+21
25.9832  3.38594e+21
26.1005  3.29271e+21
26.2178  3.19773e+21
26.3351  3.10297e+21
26.4524  3.01065e+21
26.5697  2.92236e+21
26.687  2.83935e+21
26.8043  2.7623e+21
26.9216  2.69148e+21
27.0389  2.62687e+21
27.1562  2.56837e+21
27.2735  2.51543e+21
27.3908  2.46784e+21
27.5081  2.42502e+21
27.6254  2.38644e+21
27.7427  2.35155e+21
27.86  2.31956e+21
27.9773  2.28994e+21
28.0946  2.26198e+21
28.212  2.23534e+21
28.3293  2.2101e+21
28.4466  2.18622e+21
28.5639  2.16419e+21
28.6812  2.1441e+21
28.7985  2.12632e+21
28.9158  2.11062e+21
29.0331  2.09621e+21
29.1504  2.08242e+21
29.2677  2.06757e+21
29.385  2.05043e+21
29.5023  2.02948e+21
29.6196  2.00362e+21
29.7369  1.97199e+21
29.8542  1.93453e+21
29.9715  1.8918e+21
30.0888  1.84462e+21
30.2061  1.79475e+21
30.3234  1.74382e+21
30.4407  1.69376e+21
30.558  1.64638e+21
30.6754  1.60283e+21
30.7927  1.56429e+21
30.91  1.53075e+21
31.0273  1.50166e+21
31.1446  1.47606e+21
31.2619  1.45246e+21
31.3792  1.42891e+21
31.4965  1.40385e+21
31.6138  1.37579e+21
31.7311  1.34378e+21
31.8484  1.30748e+21
31.9657  1.26712e+21
32.083  1.2238e+21
32.2003  1.17889e+21
32.3176  1.1341e+21
32.4349  1.09137e+21
32.5522  1.05241e+21
32.6695  1.0188e+21
32.7868  9.91617e+20
32.9042  9.71419e+20
33.0215  9.58144e+20
33.1388  9.51137e+20
33.2561  9.49259e+20
33.3734  9.50897e+20
33.4907  9.54069e+20
33.608  9.56751e+20
33.7253  9.57037e+20
33.8426  9.53696e+20
33.9599  9.4573e+20
34.0772  9.3312e+20
34.1945  9.16367e+20
34.3118  8.96746e+20
34.4291  8.75905e+20
34.5464  8.55779e+20
34.6637  8.38237e+20
34.781  8.24643e+20
34.8983  8.16181e+20
35.0156  8.13286e+20
35.1329  8.15824e+20
35.2503  8.22901e+20
35.3676  8.33009e+20
35.4849  8.44544e+20
35.6022  8.555e+20
35.7195  8.63858e+20
35.8368  8.68047e+20
35.9541  8.67107e+20
36.0714  8.60436e+20
36.1887  8.4863e+20
36.306  8.32965e+20
36.4233  8.15329e+20
36.5406  7.98151e+20
36.6579  7.83811e+20
36.7752  7.74511e+20
36.8925  7.71889e+20
37.0098  7.76355e+20
37.1271  7.87635e+20
37.2444  8.04233e+20
37.3617  8.24033e+20
37.479  8.44548e+20
37.5964  8.63097e+20
37.7137  8.77247e+20
37.831  8.85336e+20
37.9483  8.86312e+20
38.0656  8.80382e+20
38.1829  8.67924e+20
38.3002  8.50437e+20
38.4175  8.29884e+20
38.5348  8.08269e+20
38.6521  7.87939e+20
38.7694  7.70734e+20
38.8867  7.5821e+20
39.004  7.51418e+20
39.1213  7.50672e+20
39.2386  7.55645e+20
39.3559  7.64923e+20
39.4732  7.76731e+20
39.5905  7.88907e+20
39.7078  7.99234e+20
39.8251  8.05556e+20
39.9425  8.06495e+20
40.0598  8.0113e+20
40.1771  7.89461e+20
40.2944  7.72241e+20
40.4117  7.50873e+20
40.529  7.26724e+20
40.6463  7.01657e+20
40.7636  6.77053e+20
40.8809  6.53972e+20
40.9982  6.33088e+20
41.1155  6.14514e+20
41.2328  5.98431e+20
41.3501  5.84623e+20
41.4674  5.72872e+20
41.5847  5.63191e+20
41.702  5.55306e+20
41.8193  5.49347e+20
41.9366  5.45113e+20
42.0539  5.42588e+20
42.1712  5.41792e+20
42.2885  5.42536e+20
42.4059  5.4501e+20
42.5232  5.49384e+20
42.6405  5.55791e+20
42.7578  5.64597e+20
42.8751  5.75712e+20
42.9924  5.88984e+20
43.1097  6.03887e+20
43.227  6.19131e+20
43.3443  6.33494e+20
43.4616  6.45074e+20
43.5789  6.52257e+20
43.6962  6.5358e+20
43.8135  6.4829e+20
43.9308  6.36313e+20
44.0481  6.18138e+20
44.1654  5.95348e+20
44.2827  5.69771e+20
44.4  5.43732e+20
44.5173  5.1957e+20
44.6347  4.99474e+20
44.752  4.85173e+20
44.8693  4.77893e+20
44.9866  4.78197e+20
45.1039  4.86103e+20
45.2212  5.00704e+20
45.3385  5.20787e+20
45.4558  5.4448e+20
45.5731  5.69653e+20
45.6904  5.94035e+20
45.8077  6.15303e+20
45.925  6.31858e+20
46.0423  6.42384e+20
46.1596  6.46434e+20
46.2769  6.44063e+20
46.3942  6.36176e+20
46.5115  6.24082e+20
46.6288  6.0911e+20
46.7461  5.92682e+20
46.8634  5.75929e+20
46.9808  5.59252e+20
47.0981  5.43027e+20
47.2154  5.26943e+20
47.3327  5.10578e+20
47.45  4.93278e+20
47.5673  4.74762e+20
47.6846  4.54885e+20
47.8019  4.33675e+20
47.9192  4.11493e+20
48.0365  3.89123e+20
48.1538  3.67256e+20
48.2711  3.46922e+20
48.3884  3.28876e+20
48.5057  3.14049e+20
48.623  3.02868e+20
48.7403  2.95708e+20
48.8576  2.92566e+20
48.9749  2.92896e+20
49.0922  2.95954e+20
49.2095  3.00696e+20
49.3269  3.05805e+20
49.4442  3.10109e+20
49.5615  3.126e+20
49.6788  3.12849e+20
49.7961  3.10615e+20
49.9134  3.06416e+20
50.0307  3.01018e+20
50.148  2.95472e+20
50.2653  2.90912e+20
50.3826  2.88342e+20
50.4999  2.88193e+20
50.6172  2.90822e+20
50.7345  2.95951e+20
50.8518  3.03001e+20
