#S 1 spectral density
#N 2
#UFWHM 47.3912
#L  abscissas [um]  spectral density
-58.5938  4.63337e+20
-58.4764  4.60807e+20
-58.3591  4.58761e+20
-58.2418  4.58132e+20
-58.1245  4.59639e+20
-58.0072  4.63494e+20
-57.8899  4.6984e+20
-57.7726  4.78633e+20
-57.6553  4.89604e+20
-57.538  5.02196e+20
-57.4207  5.1597e+20
-57.3034  5.30058e+20
-57.1861  5.43661e+20
-57.0688  5.55561e+20
-56.9515  5.64765e+20
-56.8342  5.70294e+20
-56.7169  5.71231e+20
-56.5996  5.67445e+20
-56.4823  5.59025e+20
-56.365  5.46736e+20
-56.2477  5.31906e+20
-56.1303  5.16133e+20
-56.013  5.0116e+20
-55.8957  4.88455e+20
-55.7784  4.79222e+20
-55.6611  4.73999e+20
-55.5438  4.7273e+20
-55.4265  4.74931e+20
-55.3092  4.79508e+20
-55.1919  4.85083e+20
-55.0746  4.90382e+20
-54.9573  4.94245e+20
-54.84  4.95832e+20
-54.7227  4.9469e+20
-54.6054  4.90804e+20
-54.4881  4.84835e+20
-54.3708  4.77676e+20
-54.2535  4.70478e+20
-54.1362  4.64453e+20
-54.0189  4.60964e+20
-53.9016  4.61031e+20
-53.7842  4.65508e+20
-53.6669  4.74609e+20
-53.5496  4.88238e+20
-53.4323  5.0592e+20
-53.315  5.26608e+20
-53.1977  5.49112e+20
-53.0804  5.72299e+20
-52.9631  5.94794e+20
-52.8458  6.15396e+20
-52.7285  6.33335e+20
-52.6112  6.47932e+20
-52.4939  6.58988e+20
-52.3766  6.66598e+20
-52.2593  6.71102e+20
-52.142  6.73279e+20
-52.0247  6.73664e+20
-51.9074  6.73111e+20
-51.7901  6.72239e+20
-51.6728  6.71332e+20
-51.5555  6.70448e+20
-51.4381  6.69519e+20
-51.3208  6.67929e+20
-51.2035  6.65113e+20
-51.0862  6.60298e+20
-50.9689  6.53078e+20
-50.8516  6.43249e+20
-50.7343  6.30882e+20
-50.617  6.16585e+20
-50.4997  6.01062e+20
-50.3824  5.85465e+20
-50.2651  5.7098e+20
-50.1478  5.58547e+20
-50.0305  5.4924e+20
-49.9132  5.43685e+20
-49.7959  5.42479e+20
-49.6786  5.46023e+20
-49.5613  5.54247e+20
-49.444  5.66941e+20
-49.3267  5.83728e+20
-49.2094  6.03886e+20
-49.092  6.2629e+20
-48.9747  6.49798e+20
-48.8574  6.72765e+20
-48.7401  6.93855e+20
-48.6228  7.11724e+20
-48.5055  7.25402e+20
-48.3882  7.34682e+20
-48.2709  7.39714e+20
-48.1536  7.41339e+20
-48.0363  7.40933e+20
-47.919  7.40002e+20
-47.8017  7.40119e+20
-47.6844  7.42718e+20
-47.5671  7.4864e+20
-47.4498  7.58452e+20
-47.3325  7.72035e+20
-47.2152  7.88837e+20
-47.0979  8.07931e+20
-46.9806  8.28036e+20
-46.8633  8.47876e+20
-46.7459  8.66423e+20
-46.6286  8.82574e+20
-46.5113  8.95798e+20
-46.394  9.05672e+20
-46.2767  9.12661e+20
-46.1594  9.17421e+20
-46.0421  9.20721e+20
-45.9248  9.23778e+20
-45.8075  9.27603e+20
-45.6902  9.33023e+20
-45.5729  9.40422e+20
-45.4556  9.49422e+20
-45.3383  9.59577e+20
-45.221  9.69539e+20
-45.1037  9.7811e+20
-44.9864  9.84089e+20
-44.8691  9.86339e+20
-44.7518  9.84291e+20
-44.6345  9.77936e+20
-44.5172  9.67885e+20
-44.3998  9.54892e+20
-44.2825  9.40522e+20
-44.1652  9.26069e+20
-44.0479  9.13162e+20
-43.9306  9.03419e+20
-43.8133  8.9815e+20
-43.696  8.98731e+20
-43.5787  9.06191e+20
-43.4614  9.21406e+20
-43.3441  9.44757e+20
-43.2268  9.76102e+20
-43.1095  1.01466e+21
-42.9922  1.05913e+21
-42.8749  1.10755e+21
-42.7576  1.15762e+21
-42.6403  1.20709e+21
-42.523  1.25372e+21
-42.4057  1.29577e+21
-42.2884  1.33204e+21
-42.171  1.36221e+21
-42.0537  1.38662e+21
-41.9364  1.40607e+21
-41.8191  1.4219e+21
-41.7018  1.43537e+21
-41.5845  1.44813e+21
-41.4672  1.46147e+21
-41.3499  1.47635e+21
-41.2326  1.49367e+21
-41.1153  1.51394e+21
-40.998  1.53733e+21
-40.8807  1.5637e+21
-40.7634  1.59244e+21
-40.6461  1.6229e+21
-40.5288  1.65378e+21
-40.4115  1.68412e+21
-40.2942  1.71289e+21
-40.1769  1.7393e+21
-40.0596  1.76305e+21
-39.9423  1.78447e+21
-39.825  1.80446e+21
-39.7076  1.82425e+21
-39.5903  1.84526e+21
-39.473  1.86886e+21
-39.3557  1.89581e+21
-39.2384  1.92665e+21
-39.1211  1.96072e+21
-39.0038  1.9969e+21
-38.8865  2.03345e+21
-38.7692  2.06864e+21
-38.6519  2.10057e+21
-38.5346  2.12777e+21
-38.4173  2.14917e+21
-38.3  2.16451e+21
-38.1827  2.17396e+21
-38.0654  2.17843e+21
-37.9481  2.17939e+21
-37.8308  2.17851e+21
-37.7135  2.1778e+21
-37.5962  2.17927e+21
-37.4789  2.18518e+21
-37.3615  2.19745e+21
-37.2442  2.21772e+21
-37.1269  2.24737e+21
-37.0096  2.28704e+21
-36.8923  2.33692e+21
-36.775  2.39629e+21
-36.6577  2.46396e+21
-36.5404  2.53813e+21
-36.4231  2.6167e+21
-36.3058  2.69745e+21
-36.1885  2.7783e+21
-36.0712  2.85751e+21
-35.9539  2.93383e+21
-35.8366  3.00633e+21
-35.7193  3.07494e+21
-35.602  3.13991e+21
-35.4847  3.20168e+21
-35.3674  3.26108e+21
-35.2501  3.31902e+21
-35.1328  3.3761e+21
-35.0154  3.43317e+21
-34.8981  3.4901e+21
-34.7808  3.54691e+21
-34.6635  3.60268e+21
-34.5462  3.65652e+21
-34.4289  3.70681e+21
-34.3116  3.75184e+21
-34.1943  3.78994e+21
-34.077  3.81997e+21
-33.9597  3.84135e+21
-33.8424  3.85402e+21
-33.7251  3.85884e+21
-33.6078  3.85778e+21
-33.4905  3.85301e+21
-33.3732  3.84733e+21
-33.2559  3.84372e+21
-33.1386  3.84495e+21
-33.0213  3.85324e+21
-32.904  3.87017e+21
-32.7867  3.89706e+21
-32.6693  3.93375e+21
-32.552  3.97991e+21
-32.4347  4.03444e+21
-32.3174  4.09581e+21
-32.2001  4.1623e+21
-32.0828  4.23186e+21
-31.9655  4.30291e+21
-31.8482  4.37388e+21
-31.7309  4.44349e+21
-31.6136  4.51112e+21
-31.4963  4.57636e+21
-31.379  4.63954e+21
-31.2617  4.7011e+21
-31.1444  4.76156e+21
-31.0271  4.82194e+21
-30.9098  4.88301e+21
-30.7925  4.94517e+21
-30.6752  5.00896e+21
-30.5579  5.07486e+21
-30.4406  5.14252e+21
-30.3232  5.21246e+21
-30.2059  5.28409e+21
-30.0886  5.35746e+21
-29.9713  5.43209e+21
-29.854  5.50781e+21
-29.7367  5.58421e+21
-29.6194  5.6609e+21
-29.5021  5.73729e+21
-29.3848  5.81291e+21
-29.2675  5.88768e+21
-29.1502  5.96057e+21
-29.0329  6.03088e+21
-28.9156  6.09794e+21
-28.7983  6.16061e+21
-28.681  6.21748e+21
-28.5637  6.26742e+21
-28.4464  6.30921e+21
-28.3291  6.34189e+21
-28.2118  6.3647e+21
-28.0944  6.37838e+21
-27.9771  6.38336e+21
-27.8598  6.38146e+21
-27.7425  6.37523e+21
-27.6252  6.36753e+21
-27.5079  6.36184e+21
-27.3906  6.36181e+21
-27.2733  6.37123e+21
-27.156  6.39362e+21
-27.0387  6.43175e+21
-26.9214  6.48835e+21
-26.8041  6.56434e+21
-26.6868  6.66032e+21
-26.5695  6.77489e+21
-26.4522  6.90527e+21
-26.3349  7.04767e+21
-26.2176  7.19688e+21
-26.1003  7.34699e+21
-25.983  7.49213e+21
-25.8657  7.62697e+21
-25.7483  7.74709e+21
-25.631  7.85037e+21
-25.5137  7.93614e+21
-25.3964  8.00566e+21
-25.2791  8.06182e+21
-25.1618  8.1092e+21
-25.0445  8.15259e+21
-24.9272  8.19728e+21
-24.8099  8.2474e+21
-24.6926  8.30671e+21
-24.5753  8.37798e+21
-24.458  8.46138e+21
-24.3407  8.55613e+21
-24.2234  8.65997e+21
-24.1061  8.76904e+21
-23.9888  8.87815e+21
-23.8715  8.982e+21
-23.7542  9.07509e+21
-23.6369  9.15228e+21
-23.5196  9.2095e+21
-23.4023  9.24534e+21
-23.2849  9.25922e+21
-23.1676  9.2534e+21
-23.0503  9.23245e+21
-22.933  9.20166e+21
-22.8157  9.1681e+21
-22.6984  9.13906e+21
-22.5811  9.12168e+21
-22.4638  9.12235e+21
-22.3465  9.14542e+21
-22.2292  9.19473e+21
-22.1119  9.27077e+21
-21.9946  9.37318e+21
-21.8773  9.49863e+21
-21.76  9.64226e+21
-21.6427  9.79775e+21
-21.5254  9.95748e+21
-21.4081  1.01137e+22
-21.2908  1.02588e+22
-21.1735  1.03862e+22
-21.0561  1.04913e+22
-20.9388  1.05725e+22
-20.8215  1.06306e+22
-20.7042  1.06683e+22
-20.5869  1.06911e+22
-20.4696  1.07061e+22
-20.3523  1.07206e+22
-20.235  1.07421e+22
-20.1177  1.07763e+22
-20.0004  1.08279e+22
-19.8831  1.09006e+22
-19.7658  1.09942e+22
-19.6485  1.1108e+22
-19.5312  1.12395e+22
-19.4139  1.13845e+22
-19.2966  1.15377e+22
-19.1793  1.16933e+22
-19.062  1.18452e+22
-18.9447  1.19872e+22
-18.8274  1.21137e+22
-18.71  1.22211e+22
-18.5927  1.23061e+22
-18.4754  1.23679e+22
-18.3581  1.2408e+22
-18.2408  1.24285e+22
-18.1235  1.24339e+22
-18.0062  1.24286e+22
-17.8889  1.2418e+22
-17.7716  1.2407e+22
-17.6543  1.23983e+22
-17.537  1.23955e+22
-17.4197  1.23992e+22
-17.3024  1.24102e+22
-17.1851  1.24273e+22
-17.0678  1.24496e+22
-16.9505  1.24762e+22
-16.8332  1.25059e+22
-16.7159  1.25383e+22
-16.5986  1.25732e+22
-16.4813  1.26109e+22
-16.364  1.26527e+22
-16.2466  1.27002e+22
-16.1293  1.27561e+22
-16.012  1.28217e+22
-15.8947  1.28995e+22
-15.7774  1.29912e+22
-15.6601  1.30978e+22
-15.5428  1.32195e+22
-15.4255  1.33543e+22
-15.3082  1.35e+22
-15.1909  1.36533e+22
-15.0736  1.38086e+22
-14.9563  1.39608e+22
-14.839  1.41045e+22
-14.7217  1.42345e+22
-14.6044  1.43468e+22
-14.4871  1.44383e+22
-14.3698  1.45076e+22
-14.2525  1.45546e+22
-14.1352  1.45807e+22
-14.0178  1.4589e+22
-13.9005  1.4583e+22
-13.7832  1.45668e+22
-13.6659  1.45454e+22
-13.5486  1.45223e+22
-13.4313  1.45016e+22
-13.314  1.44856e+22
-13.1967  1.4476e+22
-13.0794  1.44741e+22
-12.9621  1.44784e+22
-12.8448  1.44885e+22
-12.7275  1.45026e+22
-12.6102  1.45192e+22
-12.4929  1.45364e+22
-12.3756  1.45534e+22
-12.2583  1.45702e+22
-12.141  1.45874e+22
-12.0237  1.46065e+22
-11.9064  1.46291e+22
-11.7891  1.46574e+22
-11.6718  1.4694e+22
-11.5544  1.47409e+22
-11.4371  1.48006e+22
-11.3198  1.48731e+22
-11.2025  1.49592e+22
-11.0852  1.50577e+22
-10.9679  1.51671e+22
-10.8506  1.52842e+22
-10.7333  1.54051e+22
-10.616  1.55253e+22
-10.4987  1.5641e+22
-10.3814  1.57467e+22
-10.2641  1.58394e+22
-10.1468  1.59161e+22
-10.0295  1.59759e+22
-9.91217  1.60191e+22
-9.79487  1.60477e+22
-9.67756  1.60649e+22
-9.56026  1.60753e+22
-9.44295  1.60835e+22
-9.32565  1.60951e+22
-9.20834  1.61143e+22
-9.09104  1.61448e+22
-8.97373  1.61894e+22
-8.85643  1.62486e+22
-8.73913  1.63219e+22
-8.62182  1.64068e+22
-8.50452  1.64996e+22
-8.38721  1.65961e+22
-8.26991  1.66903e+22
-8.1526  1.67775e+22
-8.03529  1.68531e+22
-7.91799  1.69132e+22
-7.80069  1.69557e+22
-7.68338  1.69797e+22
-7.56608  1.69869e+22
-7.44877  1.69798e+22
-7.33146  1.69623e+22
-7.21416  1.69386e+22
-7.09685  1.69132e+22
-6.97955  1.68904e+22
-6.86224  1.68734e+22
-6.74494  1.68653e+22
-6.62763  1.68656e+22
-6.51033  1.6875e+22
-6.39302  1.68909e+22
-6.27572  1.69112e+22
-6.15842  1.69322e+22
-6.04111  1.69503e+22
-5.92381  1.69618e+22
-5.8065  1.69645e+22
-5.68919  1.69557e+22
-5.57189  1.69359e+22
-5.45458  1.69054e+22
-5.33728  1.68678e+22
-5.21997  1.68265e+22
-5.10267  1.67868e+22
-4.98536  1.6754e+22
-4.86806  1.67334e+22
-4.75075  1.67297e+22
-4.63345  1.67466e+22
-4.51614  1.67861e+22
-4.39884  1.68488e+22
-4.28154  1.69339e+22
-4.16423  1.70385e+22
-4.04692  1.71588e+22
-3.92962  1.72894e+22
-3.81231  1.74243e+22
-3.69501  1.75575e+22
-3.5777  1.76816e+22
-3.4604  1.77913e+22
-3.34309  1.78812e+22
-3.22579  1.79476e+22
-3.10849  1.7989e+22
-2.99118  1.8005e+22
-2.87387  1.79985e+22
-2.75657  1.79731e+22
-2.63926  1.79339e+22
-2.52196  1.7886e+22
-2.40465  1.78348e+22
-2.28735  1.77848e+22
-2.17005  1.77388e+22
-2.05274  1.76995e+22
-1.93544  1.76662e+22
-1.81813  1.76395e+22
-1.70083  1.7617e+22
-1.58352  1.75974e+22
-1.46622  1.7578e+22
-1.34891  1.75574e+22
-1.2316  1.75333e+22
-1.1143  1.75049e+22
-0.996995  1.74706e+22
-0.87969  1.74314e+22
-0.762385  1.73873e+22
-0.64508  1.7341e+22
-0.527775  1.72946e+22
-0.41047  1.72517e+22
-0.293165  1.72153e+22
-0.17586  1.71891e+22
-0.058555  1.71752e+22
0.05875  1.7175e+22
0.176055  1.71885e+22
0.29336  1.72143e+22
0.410665  1.72502e+22
0.52797  1.72928e+22
0.645275  1.73388e+22
0.76258  1.73847e+22
0.879885  1.74282e+22
0.99719  1.74673e+22
1.1145  1.75008e+22
1.2318  1.75292e+22
1.3491  1.75531e+22
1.46641  1.75734e+22
1.58371  1.75922e+22
1.70102  1.76113e+22
1.81832  1.7633e+22
1.93563  1.76591e+22
2.05294  1.76912e+22
2.17024  1.77298e+22
2.28754  1.77744e+22
2.40485  1.78234e+22
2.52216  1.78729e+22
2.63946  1.79195e+22
2.75677  1.7957e+22
2.87407  1.79809e+22
2.99137  1.79858e+22
3.10868  1.79681e+22
3.22599  1.79252e+22
3.34329  1.78578e+22
3.4606  1.77669e+22
3.5779  1.76567e+22
3.69521  1.75316e+22
3.81251  1.73984e+22
3.92982  1.72631e+22
4.04712  1.71326e+22
4.16443  1.70124e+22
4.28173  1.6908e+22
4.39903  1.6823e+22
4.51634  1.67602e+22
4.63364  1.67208e+22
4.75095  1.67036e+22
4.86825  1.67068e+22
4.98556  1.67268e+22
5.10286  1.67589e+22
5.22017  1.67978e+22
5.33748  1.68381e+22
5.45478  1.68746e+22
5.57209  1.69039e+22
5.68939  1.69226e+22
5.8067  1.69301e+22
5.924  1.69267e+22
6.0413  1.69144e+22
6.15861  1.68956e+22
6.27591  1.68741e+22
6.39322  1.68536e+22
6.51052  1.68374e+22
6.62783  1.6828e+22
6.74514  1.68273e+22
6.86244  1.68357e+22
6.97975  1.68525e+22
7.09705  1.68752e+22
7.21436  1.69001e+22
7.33166  1.69236e+22
7.44897  1.69406e+22
7.56627  1.6947e+22
7.68358  1.69389e+22
7.80088  1.69137e+22
7.91819  1.68699e+22
8.03549  1.6809e+22
8.1528  1.67327e+22
8.2701  1.66443e+22
8.38741  1.65489e+22
8.50471  1.64518e+22
8.62202  1.63581e+22
8.73932  1.62724e+22
8.85662  1.61986e+22
8.97393  1.61388e+22
9.09123  1.60935e+22
9.20854  1.60621e+22
9.32584  1.60424e+22
9.44315  1.60301e+22
9.56045  1.60207e+22
9.67776  1.60095e+22
9.79506  1.59911e+22
9.91237  1.59614e+22
10.0297  1.59171e+22
10.147  1.58561e+22
10.2643  1.57785e+22
10.3816  1.56846e+22
10.4989  1.55781e+22
10.6162  1.5462e+22
10.7335  1.53411e+22
10.8508  1.52197e+22
10.9681  1.51025e+22
11.0854  1.49931e+22
11.2027  1.48947e+22
11.32  1.48085e+22
11.4373  1.4736e+22
11.5546  1.46768e+22
11.6719  1.46299e+22
11.7893  1.45935e+22
11.9066  1.45652e+22
12.0239  1.45426e+22
12.1412  1.45237e+22
12.2585  1.45063e+22
12.3758  1.44892e+22
12.4931  1.44717e+22
12.6104  1.44538e+22
12.7277  1.44371e+22
12.845  1.44228e+22
12.9623  1.44118e+22
13.0796  1.44068e+22
13.1969  1.44084e+22
13.3142  1.44171e+22
13.4315  1.44323e+22
13.5488  1.44526e+22
13.6661  1.44749e+22
13.7834  1.44957e+22
13.9007  1.45109e+22
14.018  1.45164e+22
14.1354  1.45072e+22
14.2527  1.44801e+22
14.37  1.44323e+22
14.4873  1.4362e+22
14.6046  1.42697e+22
14.7219  1.41566e+22
14.8392  1.40258e+22
14.9565  1.38818e+22
15.0738  1.37287e+22
15.1911  1.35731e+22
15.3084  1.34195e+22
15.4257  1.32734e+22
15.543  1.3138e+22
15.6603  1.30164e+22
15.7776  1.29097e+22
15.8949  1.2818e+22
16.0122  1.274e+22
16.1295  1.26742e+22
16.2468  1.26187e+22
16.3641  1.25711e+22
16.4815  1.25294e+22
16.5988  1.24918e+22
16.7161  1.24569e+22
16.8334  1.24249e+22
16.9507  1.23951e+22
17.068  1.23685e+22
17.1853  1.23459e+22
17.3026  1.23283e+22
17.4199  1.23173e+22
17.5372  1.23133e+22
17.6545  1.23154e+22
17.7718  1.23232e+22
17.8891  1.23337e+22
18.0064  1.23433e+22
18.1237  1.23474e+22
18.241  1.23412e+22
18.3583  1.23196e+22
18.4756  1.22789e+22
18.5929  1.22162e+22
18.7102  1.21308e+22
18.8275  1.20232e+22
18.9449  1.18965e+22
19.0622  1.17548e+22
19.1795  1.16031e+22
19.2968  1.14482e+22
19.4141  1.12954e+22
19.5314  1.11512e+22
19.6487  1.10204e+22
19.766  1.09067e+22
19.8833  1.08135e+22
20.0006  1.0741e+22
20.1179  1.06889e+22
20.2352  1.06541e+22
20.3525  1.06319e+22
20.4698  1.06165e+22
20.5871  1.06005e+22
20.7044  1.05761e+22
20.8217  1.05368e+22
20.939  1.04776e+22
21.0563  1.0395e+22
21.1736  1.02887e+22
21.291  1.01608e+22
21.4083  1.00152e+22
21.5256  9.85922e+21
21.6429  9.69976e+21
21.7602  9.54498e+21
21.8775  9.40214e+21
21.9948  9.27777e+21
22.1121  9.17665e+21
22.2294  9.10178e+21
22.3467  9.05345e+21
22.464  9.03122e+21
22.5813  9.0314e+21
22.6986  9.04915e+21
22.8159  9.0784e+21
22.9332  9.112e+21
23.0505  9.14256e+21
23.1678  9.16334e+21
23.2851  9.16857e+21
23.4024  9.15426e+21
23.5198  9.118e+21
23.6371  9.0602e+21
23.7544  8.98291e+21
23.8717  8.88967e+21
23.989  8.78595e+21
24.1063  8.67704e+21
24.2236  8.56855e+21
24.3409  8.46542e+21
24.4582  8.37116e+21
24.5755  8.28862e+21
24.6928  8.21816e+21
24.8101  8.1592e+21
24.9274  8.10946e+21
25.0447  8.06514e+21
25.162  8.02219e+21
25.2793  7.975e+21
25.3966  7.91853e+21
25.5139  7.84882e+21
25.6312  7.76282e+21
25.7485  7.65914e+21
25.8658  7.5387e+21
25.9832  7.40393e+21
26.1005  7.25867e+21
26.2178  7.10885e+21
26.3351  6.96004e+21
26.4524  6.8182e+21
26.5697  6.68833e+21
26.687  6.57463e+21
26.8043  6.47948e+21
26.9216  6.40427e+21
27.0389  6.34839e+21
27.1562  6.31094e+21
27.2735  6.28919e+21
27.3908  6.28016e+21
27.5081  6.28042e+21
27.6254  6.28632e+21
27.7427  6.29408e+21
27.86  6.30027e+21
27.9773  6.30191e+21
28.0946  6.29672e+21
28.212  6.28278e+21
28.3293  6.25937e+21
28.4466  6.22646e+21
28.5639  6.18425e+21
28.6812  6.13405e+21
28.7985  6.07699e+21
28.9158  6.01432e+21
29.0331  5.94743e+21
29.1504  5.87718e+21
29.2677  5.80486e+21
29.385  5.73074e+21
29.5023  5.65553e+21
29.6196  5.57982e+21
29.7369  5.50386e+21
29.8542  5.42858e+21
29.9715  5.35379e+21
30.0888  5.27995e+21
30.2061  5.20748e+21
30.3234  5.13656e+21
30.4407  5.0673e+21
30.558  5.00022e+21
30.6754  4.93513e+21
30.7927  4.87159e+21
30.91  4.80989e+21
31.0273  4.74931e+21
31.1446  4.68922e+21
31.2619  4.62896e+21
31.3792  4.56782e+21
31.4965  4.50495e+21
31.6138  4.4401e+21
31.7311  4.37288e+21
31.8484  4.30387e+21
31.9657  4.23354e+21
32.083  4.16312e+21
32.2003  4.09414e+21
32.3176  4.02846e+21
32.4349  3.96784e+21
32.5522  3.91402e+21
32.6695  3.8686e+21
32.7868  3.83266e+21
32.9042  3.8064e+21
33.0215  3.78988e+21
33.1388  3.78207e+21
33.2561  3.78115e+21
33.3734  3.78495e+21
33.4907  3.79076e+21
33.608  3.79557e+21
33.7253  3.79679e+21
33.8426  3.79188e+21
33.9599  3.77936e+21
34.0772  3.75815e+21
34.1945  3.72823e+21
34.3118  3.69035e+21
34.4291  3.6456e+21
34.5464  3.5959e+21
34.6637  3.54261e+21
34.781  3.48729e+21
34.8983  3.43111e+21
35.0156  3.37471e+21
35.1329  3.31821e+21
35.2503  3.26167e+21
35.3676  3.2044e+21
35.4849  3.14543e+21
35.6022  3.08427e+21
35.7195  3.01999e+21
35.8368  2.95191e+21
35.9541  2.88002e+21
36.0714  2.8045e+21
36.1887  2.72608e+21
36.306  2.64607e+21
36.4233  2.56621e+21
36.5406  2.48871e+21
36.6579  2.41548e+21
36.7752  2.34887e+21
36.8925  2.29044e+21
37.0098  2.24152e+21
37.1271  2.20268e+21
37.2444  2.17379e+21
37.3617  2.15421e+21
37.479  2.14263e+21
37.5964  2.13715e+21
37.7137  2.13608e+21
37.831  2.13717e+21
37.9483  2.13841e+21
38.0656  2.13764e+21
38.1829  2.13339e+21
38.3002  2.12418e+21
38.4175  2.10917e+21
38.5348  2.08807e+21
38.6521  2.06123e+21
38.7694  2.02965e+21
38.8867  1.9949e+21
39.004  1.95877e+21
39.1213  1.92311e+21
39.2386  1.88962e+21
39.3559  1.8594e+21
39.4732  1.8329e+21
39.5905  1.80982e+21
39.7078  1.78926e+21
39.8251  1.76986e+21
39.9425  1.75025e+21
40.0598  1.72915e+21
40.1771  1.70574e+21
40.2944  1.67982e+21
40.4117  1.65157e+21
40.529  1.62167e+21
40.6463  1.59131e+21
40.7636  1.56158e+21
40.8809  1.53339e+21
40.9982  1.5077e+21
41.1155  1.48489e+21
41.2328  1.46525e+21
41.3501  1.44836e+21
41.4674  1.43394e+21
41.5847  1.42103e+21
41.702  1.4086e+21
41.8193  1.39534e+21
41.9366  1.37974e+21
42.0539  1.36055e+21
42.1712  1.33645e+21
42.2885  1.30645e+21
42.4059  1.27053e+21
42.5232  1.2289e+21
42.6405  1.18284e+21
42.7578  1.13386e+21
42.8751  1.0844e+21
42.9924  1.03677e+21
43.1097  9.93108e+20
43.227  9.55343e+20
43.3443  9.24776e+20
43.4616  9.02141e+20
43.5789  8.87578e+20
43.6962  8.80647e+20
43.8135  8.80574e+20
43.9308  8.86185e+20
44.0481  8.96297e+20
44.1654  9.09398e+20
44.2827  9.23983e+20
44.4  9.38509e+20
44.5173  9.51493e+20
44.6347  9.61677e+20
44.752  9.67956e+20
44.8693  9.70101e+20
44.9866  9.68041e+20
45.1039  9.62256e+20
45.2212  9.53847e+20
45.3385  9.44147e+20
45.4558  9.34397e+20
45.5731  9.2562e+20
45.6904  9.18676e+20
45.8077  9.13576e+20
45.925  9.10059e+20
46.0423  9.07224e+20
46.1596  9.04122e+20
46.2769  8.99631e+20
46.3942  8.92764e+20
46.5115  8.82962e+20
46.6288  8.69886e+20
46.7461  8.53938e+20
46.8634  8.35668e+20
46.9808  8.16024e+20
47.0981  7.96273e+20
47.2154  7.77558e+20
47.3327  7.61235e+20
47.45  7.48021e+20
47.5673  7.38594e+20
47.6846  7.33101e+20
47.8019  7.30852e+20
47.9192  7.31034e+20
48.0365  7.32178e+20
48.1538  7.3278e+20
48.2711  7.31217e+20
48.3884  7.26257e+20
48.5057  7.17057e+20
48.623  7.03344e+20
48.7403  6.85588e+20
48.8576  6.64636e+20
48.9749  6.41807e+20
49.0922  6.18576e+20
49.2095  5.96413e+20
49.3269  5.76643e+20
49.4442  5.60049e+20
49.5615  5.47722e+20
49.6788  5.39919e+20
49.7961  5.36723e+20
49.9134  5.38202e+20
50.0307  5.4401e+20
50.148  5.53534e+20
50.2653  5.66092e+20
50.3826  5.80806e+20
50.4999  5.96473e+20
50.6172  6.12059e+20
50.7345  6.26437e+20
50.8518  6.38833e+20
