#S 1 spectral density
#N 2
#UFWHM 38.3587
#L  abscissas [um]  spectral density
-58.5938  3.27351e+20
-58.4764  3.24051e+20
-58.3591  3.21123e+20
-58.2418  3.18891e+20
-58.1245  3.17671e+20
-58.0072  3.17846e+20
-57.8899  3.19538e+20
-57.7726  3.22973e+20
-57.6553  3.28234e+20
-57.538  3.35552e+20
-57.4207  3.44882e+20
-57.3034  3.56142e+20
-57.1861  3.68923e+20
-57.0688  3.8266e+20
-56.9515  3.96426e+20
-56.8342  4.09328e+20
-56.7169  4.2039e+20
-56.5996  4.28727e+20
-56.4823  4.33768e+20
-56.365  4.35305e+20
-56.2477  4.33346e+20
-56.1303  4.28455e+20
-56.013  4.21246e+20
-55.8957  4.1265e+20
-55.7784  4.0333e+20
-55.6611  3.94254e+20
-55.5438  3.86067e+20
-55.4265  3.79262e+20
-55.3092  3.74408e+20
-55.1919  3.7174e+20
-55.0746  3.71577e+20
-54.9573  3.7407e+20
-54.84  3.79246e+20
-54.7227  3.86914e+20
-54.6054  3.96776e+20
-54.4881  4.08401e+20
-54.3708  4.21146e+20
-54.2535  4.3422e+20
-54.1362  4.46774e+20
-54.0189  4.5794e+20
-53.9016  4.67057e+20
-53.7842  4.73487e+20
-53.6669  4.77104e+20
-53.5496  4.776e+20
-53.4323  4.75184e+20
-53.315  4.70322e+20
-53.1977  4.63606e+20
-53.0804  4.55787e+20
-52.9631  4.47563e+20
-52.8458  4.39859e+20
-52.7285  4.33351e+20
-52.6112  4.28574e+20
-52.4939  4.25899e+20
-52.3766  4.25641e+20
-52.2593  4.27674e+20
-52.142  4.32044e+20
-52.0247  4.38514e+20
-51.9074  4.46739e+20
-51.7901  4.56356e+20
-51.6728  4.66837e+20
-51.5555  4.77502e+20
-51.4381  4.87766e+20
-51.3208  4.96878e+20
-51.2035  5.04263e+20
-51.0862  5.09205e+20
-50.9689  5.11584e+20
-50.8516  5.11358e+20
-50.7343  5.0888e+20
-50.617  5.04792e+20
-50.4997  4.99923e+20
-50.3824  4.95338e+20
-50.2651  4.91992e+20
-50.1478  4.90657e+20
-50.0305  4.91844e+20
-49.9132  4.9588e+20
-49.7959  5.02809e+20
-49.6786  5.12347e+20
-49.5613  5.24095e+20
-49.444  5.37392e+20
-49.3267  5.51433e+20
-49.2094  5.65453e+20
-49.092  5.7862e+20
-48.9747  5.90017e+20
-48.8574  5.98665e+20
-48.7401  6.03878e+20
-48.6228  6.05042e+20
-48.5055  6.01895e+20
-48.3882  5.94692e+20
-48.2709  5.83813e+20
-48.1536  5.70249e+20
-48.0363  5.55219e+20
-47.919  5.3993e+20
-47.8017  5.25626e+20
-47.6844  5.13498e+20
-47.5671  5.04333e+20
-47.4498  4.98732e+20
-47.3325  4.9689e+20
-47.2152  4.98746e+20
-47.0979  5.03969e+20
-46.9806  5.11856e+20
-46.8633  5.21675e+20
-46.7459  5.32623e+20
-46.6286  5.4369e+20
-46.5113  5.54018e+20
-46.394  5.62614e+20
-46.2767  5.68955e+20
-46.1594  5.72668e+20
-46.0421  5.73769e+20
-45.9248  5.72508e+20
-45.8075  5.69554e+20
-45.6902  5.6582e+20
-45.5729  5.62252e+20
-45.4556  5.59904e+20
-45.3383  5.59638e+20
-45.221  5.62198e+20
-45.1037  5.68152e+20
-44.9864  5.77783e+20
-44.8691  5.91132e+20
-44.7518  6.07882e+20
-44.6345  6.27412e+20
-44.5172  6.48892e+20
-44.3998  6.7125e+20
-44.2825  6.92925e+20
-44.1652  7.1233e+20
-44.0479  7.27998e+20
-43.9306  7.38488e+20
-43.8133  7.42817e+20
-43.696  7.4076e+20
-43.5787  7.32438e+20
-43.4614  7.18842e+20
-43.3441  7.01576e+20
-43.2268  6.82367e+20
-43.1095  6.63242e+20
-42.9922  6.45962e+20
-42.8749  6.32223e+20
-42.7576  6.23064e+20
-42.6403  6.19141e+20
-42.523  6.20764e+20
-42.4057  6.27674e+20
-42.2884  6.39212e+20
-42.171  6.54727e+20
-42.0537  6.73206e+20
-41.9364  6.93311e+20
-41.8191  7.13749e+20
-41.7018  7.32974e+20
-41.5845  7.49609e+20
-41.4672  7.6235e+20
-41.3499  7.70453e+20
-41.2326  7.73296e+20
-41.1153  7.71097e+20
-40.998  7.64511e+20
-40.8807  7.54698e+20
-40.7634  7.43173e+20
-40.6461  7.31512e+20
-40.5288  7.21264e+20
-40.4115  7.13853e+20
-40.2942  7.104e+20
-40.1769  7.11617e+20
-40.0596  7.17895e+20
-39.9423  7.29248e+20
-39.825  7.45635e+20
-39.7076  7.66672e+20
-39.5903  7.91531e+20
-39.473  8.19293e+20
-39.3557  8.48878e+20
-39.2384  8.78749e+20
-39.1211  9.0733e+20
-39.0038  9.33237e+20
-38.8865  9.55023e+20
-38.7692  9.71663e+20
-38.6519  9.82754e+20
-38.5346  9.88362e+20
-38.4173  9.89212e+20
-38.3  9.86204e+20
-38.1827  9.80964e+20
-38.0654  9.74888e+20
-37.9481  9.69435e+20
-37.8308  9.66075e+20
-37.7135  9.65732e+20
-37.5962  9.69181e+20
-37.4789  9.76992e+20
-37.3615  9.89386e+20
-37.2442  1.00639e+21
-37.1269  1.02773e+21
-37.0096  1.05294e+21
-36.8923  1.08132e+21
-36.775  1.11193e+21
-36.6577  1.14396e+21
-36.5404  1.1761e+21
-36.4231  1.20752e+21
-36.3058  1.23728e+21
-36.1885  1.26483e+21
-36.0712  1.28984e+21
-35.9539  1.31232e+21
-35.8366  1.33256e+21
-35.7193  1.35101e+21
-35.602  1.36838e+21
-35.4847  1.38525e+21
-35.3674  1.4023e+21
-35.2501  1.4201e+21
-35.1328  1.43927e+21
-35.0154  1.46021e+21
-34.8981  1.48322e+21
-34.7808  1.50838e+21
-34.6635  1.53587e+21
-34.5462  1.56536e+21
-34.4289  1.59646e+21
-34.3116  1.62885e+21
-34.1943  1.66185e+21
-34.077  1.69479e+21
-33.9597  1.72726e+21
-33.8424  1.75881e+21
-33.7251  1.7893e+21
-33.6078  1.81857e+21
-33.4905  1.84686e+21
-33.3732  1.87437e+21
-33.2559  1.9013e+21
-33.1386  1.92813e+21
-33.0213  1.95504e+21
-32.904  1.98256e+21
-32.7867  2.01105e+21
-32.6693  2.04093e+21
-32.552  2.07278e+21
-32.4347  2.10694e+21
-32.3174  2.14401e+21
-32.2001  2.18401e+21
-32.0828  2.22707e+21
-31.9655  2.2732e+21
-31.8482  2.32192e+21
-31.7309  2.37272e+21
-31.6136  2.42499e+21
-31.4963  2.47797e+21
-31.379  2.53096e+21
-31.2617  2.58341e+21
-31.1444  2.63488e+21
-31.0271  2.68506e+21
-30.9098  2.73391e+21
-30.7925  2.78151e+21
-30.6752  2.82819e+21
-30.5579  2.87448e+21
-30.4406  2.92099e+21
-30.3232  2.96862e+21
-30.2059  3.0182e+21
-30.0886  3.07025e+21
-29.9713  3.12569e+21
-29.854  3.18484e+21
-29.7367  3.24779e+21
-29.6194  3.31463e+21
-29.5021  3.38497e+21
-29.3848  3.45795e+21
-29.2675  3.5329e+21
-29.1502  3.60846e+21
-29.0329  3.68367e+21
-28.9156  3.75696e+21
-28.7983  3.8272e+21
-28.681  3.89315e+21
-28.5637  3.95363e+21
-28.4464  4.00813e+21
-28.3291  4.05629e+21
-28.2118  4.09877e+21
-28.0944  4.13658e+21
-27.9771  4.17115e+21
-27.8598  4.20482e+21
-27.7425  4.23976e+21
-27.6252  4.27866e+21
-27.5079  4.32331e+21
-27.3906  4.37554e+21
-27.2733  4.43696e+21
-27.156  4.50806e+21
-27.0387  4.58897e+21
-26.9214  4.67938e+21
-26.8041  4.77821e+21
-26.6868  4.88411e+21
-26.5695  4.99519e+21
-26.4522  5.10916e+21
-26.3349  5.22353e+21
-26.2176  5.33559e+21
-26.1003  5.44274e+21
-25.983  5.54266e+21
-25.8657  5.63383e+21
-25.7483  5.71504e+21
-25.631  5.78667e+21
-25.5137  5.8499e+21
-25.3964  5.90609e+21
-25.2791  5.95833e+21
-25.1618  6.00921e+21
-25.0445  6.06167e+21
-24.9272  6.11828e+21
-24.8099  6.18139e+21
-24.6926  6.25205e+21
-24.5753  6.33146e+21
-24.458  6.41908e+21
-24.3407  6.51464e+21
-24.2234  6.6163e+21
-24.1061  6.72262e+21
-23.9888  6.83075e+21
-23.8715  6.9383e+21
-23.7542  7.04248e+21
-23.6369  7.14084e+21
-23.5196  7.23167e+21
-23.4023  7.31432e+21
-23.2849  7.38823e+21
-23.1676  7.45487e+21
-23.0503  7.51622e+21
-22.933  7.5753e+21
-22.8157  7.63487e+21
-22.6984  7.69846e+21
-22.5811  7.76921e+21
-22.4638  7.84978e+21
-22.3465  7.94167e+21
-22.2292  8.04641e+21
-22.1119  8.1635e+21
-21.9946  8.2923e+21
-21.8773  8.43078e+21
-21.76  8.57585e+21
-21.6427  8.72401e+21
-21.5254  8.87096e+21
-21.4081  9.01221e+21
-21.2908  9.14358e+21
-21.1735  9.26151e+21
-21.0561  9.36311e+21
-20.9388  9.44772e+21
-20.8215  9.51626e+21
-20.7042  9.57026e+21
-20.5869  9.6139e+21
-20.4696  9.65159e+21
-20.3523  9.68872e+21
-20.235  9.73005e+21
-20.1177  9.78055e+21
-20.0004  9.84383e+21
-19.8831  9.92349e+21
-19.7658  1.00204e+22
-19.6485  1.0136e+22
-19.5312  1.02695e+22
-19.4139  1.04197e+22
-19.2966  1.05835e+22
-19.1793  1.07578e+22
-19.062  1.09377e+22
-18.9447  1.11182e+22
-18.8274  1.12941e+22
-18.71  1.1461e+22
-18.5927  1.16139e+22
-18.4754  1.175e+22
-18.3581  1.18679e+22
-18.2408  1.19677e+22
-18.1235  1.20504e+22
-18.0062  1.21189e+22
-17.8889  1.21765e+22
-17.7716  1.22276e+22
-17.6543  1.22753e+22
-17.537  1.23238e+22
-17.4197  1.23754e+22
-17.3024  1.24324e+22
-17.1851  1.24962e+22
-17.0678  1.25669e+22
-16.9505  1.26448e+22
-16.8332  1.27291e+22
-16.7159  1.2819e+22
-16.5986  1.2913e+22
-16.4813  1.30096e+22
-16.364  1.31073e+22
-16.2466  1.3205e+22
-16.1293  1.33026e+22
-16.012  1.33992e+22
-15.8947  1.34956e+22
-15.7774  1.3593e+22
-15.6601  1.36931e+22
-15.5428  1.37972e+22
-15.4255  1.39071e+22
-15.3082  1.40241e+22
-15.1909  1.41493e+22
-15.0736  1.42819e+22
-14.9563  1.44217e+22
-14.839  1.45669e+22
-14.7217  1.47152e+22
-14.6044  1.48635e+22
-14.4871  1.5009e+22
-14.3698  1.51482e+22
-14.2525  1.52781e+22
-14.1352  1.53959e+22
-14.0178  1.55001e+22
-13.9005  1.55892e+22
-13.7832  1.56629e+22
-13.6659  1.57228e+22
-13.5486  1.57703e+22
-13.4313  1.58085e+22
-13.314  1.58407e+22
-13.1967  1.58704e+22
-13.0794  1.59024e+22
-12.9621  1.59392e+22
-12.8448  1.59848e+22
-12.7275  1.60409e+22
-12.6102  1.61094e+22
-12.4929  1.61908e+22
-12.3756  1.62846e+22
-12.2583  1.63899e+22
-12.141  1.65049e+22
-12.0237  1.66273e+22
-11.9064  1.67542e+22
-11.7891  1.68829e+22
-11.6718  1.70105e+22
-11.5544  1.71347e+22
-11.4371  1.72539e+22
-11.3198  1.73663e+22
-11.2025  1.74714e+22
-11.0852  1.75693e+22
-10.9679  1.76607e+22
-10.8506  1.77461e+22
-10.7333  1.78264e+22
-10.616  1.79028e+22
-10.4987  1.79764e+22
-10.3814  1.80472e+22
-10.2641  1.81158e+22
-10.1468  1.81824e+22
-10.0295  1.82466e+22
-9.91217  1.83081e+22
-9.79487  1.83666e+22
-9.67756  1.84218e+22
-9.56026  1.84734e+22
-9.44295  1.8521e+22
-9.32565  1.85651e+22
-9.20834  1.86059e+22
-9.09104  1.86436e+22
-8.97373  1.86799e+22
-8.85643  1.87155e+22
-8.73913  1.87521e+22
-8.62182  1.87911e+22
-8.50452  1.88339e+22
-8.38721  1.88823e+22
-8.26991  1.89363e+22
-8.1526  1.89973e+22
-8.03529  1.90646e+22
-7.91799  1.9138e+22
-7.80069  1.92167e+22
-7.68338  1.92993e+22
-7.56608  1.93847e+22
-7.44877  1.94714e+22
-7.33146  1.9558e+22
-7.21416  1.96431e+22
-7.09685  1.97257e+22
-6.97955  1.98048e+22
-6.86224  1.98798e+22
-6.74494  1.9951e+22
-6.62763  2.00181e+22
-6.51033  2.00815e+22
-6.39302  2.01423e+22
-6.27572  2.02014e+22
-6.15842  2.02595e+22
-6.04111  2.03169e+22
-5.92381  2.03746e+22
-5.8065  2.04328e+22
-5.68919  2.04912e+22
-5.57189  2.0549e+22
-5.45458  2.06062e+22
-5.33728  2.06617e+22
-5.21997  2.07146e+22
-5.10267  2.07643e+22
-4.98536  2.08097e+22
-4.86806  2.085e+22
-4.75075  2.08843e+22
-4.63345  2.09126e+22
-4.51614  2.09345e+22
-4.39884  2.095e+22
-4.28154  2.09605e+22
-4.16423  2.09668e+22
-4.04692  2.09712e+22
-3.92962  2.09753e+22
-3.81231  2.0981e+22
-3.69501  2.09904e+22
-3.5777  2.10042e+22
-3.4604  2.10234e+22
-3.34309  2.10477e+22
-3.22579  2.10766e+22
-3.10849  2.11091e+22
-2.99118  2.11439e+22
-2.87387  2.11799e+22
-2.75657  2.12161e+22
-2.63926  2.12512e+22
-2.52196  2.12842e+22
-2.40465  2.13142e+22
-2.28735  2.13404e+22
-2.17005  2.13619e+22
-2.05274  2.13784e+22
-1.93544  2.13897e+22
-1.81813  2.13956e+22
-1.70083  2.13971e+22
-1.58352  2.1395e+22
-1.46622  2.13905e+22
-1.34891  2.13849e+22
-1.2316  2.13793e+22
-1.1143  2.13747e+22
-0.996995  2.13714e+22
-0.87969  2.13692e+22
-0.762385  2.13681e+22
-0.64508  2.13675e+22
-0.527775  2.13671e+22
-0.41047  2.13667e+22
-0.293165  2.13665e+22
-0.17586  2.13665e+22
-0.058555  2.13669e+22
0.05875  2.13677e+22
0.176055  2.13691e+22
0.29336  2.13707e+22
0.410665  2.13725e+22
0.52797  2.13739e+22
0.645275  2.13753e+22
0.76258  2.1377e+22
0.879885  2.13789e+22
0.99719  2.13816e+22
1.1145  2.13855e+22
1.2318  2.13906e+22
1.3491  2.13965e+22
1.46641  2.14026e+22
1.58371  2.14076e+22
1.70102  2.14104e+22
1.81832  2.14098e+22
1.93563  2.14048e+22
2.05294  2.13947e+22
2.17024  2.13794e+22
2.28754  2.13592e+22
2.40485  2.13345e+22
2.52216  2.1306e+22
2.63946  2.12744e+22
2.75677  2.1241e+22
2.87407  2.12061e+22
2.99137  2.11714e+22
3.10868  2.11376e+22
3.22599  2.11061e+22
3.34329  2.10779e+22
3.4606  2.10544e+22
3.5779  2.10357e+22
3.69521  2.10224e+22
3.81251  2.10136e+22
3.92982  2.10084e+22
4.04712  2.10048e+22
4.16443  2.10011e+22
4.28173  2.09954e+22
4.39903  2.09857e+22
4.51634  2.09712e+22
4.63364  2.09507e+22
4.75095  2.09236e+22
4.86825  2.08905e+22
4.98556  2.08517e+22
5.10286  2.08078e+22
5.22017  2.07595e+22
5.33748  2.07078e+22
5.45478  2.06536e+22
5.57209  2.05978e+22
5.68939  2.05407e+22
5.8067  2.04836e+22
5.924  2.04263e+22
6.0413  2.03694e+22
6.15861  2.03126e+22
6.27591  2.02554e+22
6.39322  2.01971e+22
6.51052  2.01371e+22
6.62783  2.00743e+22
6.74514  2.00081e+22
6.86244  1.99381e+22
6.97975  1.98638e+22
7.09705  1.97858e+22
7.21436  1.97044e+22
7.33166  1.96202e+22
7.44897  1.95348e+22
7.56627  1.94492e+22
7.68358  1.93648e+22
7.80088  1.9283e+22
7.91819  1.92052e+22
8.03549  1.91326e+22
8.1528  1.90662e+22
8.2701  1.90059e+22
8.38741  1.89524e+22
8.50471  1.89049e+22
8.62202  1.88627e+22
8.73932  1.88243e+22
8.85662  1.87885e+22
8.97393  1.87538e+22
9.09123  1.87184e+22
9.20854  1.86815e+22
9.32584  1.86422e+22
9.44315  1.85991e+22
9.56045  1.85525e+22
9.67776  1.85022e+22
9.79506  1.84482e+22
9.91237  1.83907e+22
10.0297  1.83301e+22
10.147  1.82669e+22
10.2643  1.82014e+22
10.3816  1.81332e+22
10.4989  1.8063e+22
10.6162  1.79899e+22
10.7335  1.79137e+22
10.8508  1.78335e+22
10.9681  1.77482e+22
11.0854  1.76572e+22
11.2027  1.75594e+22
11.32  1.74543e+22
11.4373  1.7342e+22
11.5546  1.72234e+22
11.6719  1.70993e+22
11.7893  1.69723e+22
11.9066  1.68444e+22
12.0239  1.67182e+22
12.1412  1.65967e+22
12.2585  1.64828e+22
12.3758  1.63785e+22
12.4931  1.62856e+22
12.6104  1.62052e+22
12.7277  1.61379e+22
12.845  1.60828e+22
12.9623  1.60381e+22
13.0796  1.60019e+22
13.1969  1.5971e+22
13.3142  1.59415e+22
13.4315  1.59099e+22
13.5488  1.58723e+22
13.6661  1.58251e+22
13.7834  1.57657e+22
13.9007  1.56921e+22
14.018  1.56037e+22
14.1354  1.54998e+22
14.2527  1.53821e+22
14.37  1.52527e+22
14.4873  1.51137e+22
14.6046  1.49686e+22
14.7219  1.48205e+22
14.8392  1.46726e+22
14.9565  1.4528e+22
15.0738  1.43883e+22
15.1911  1.42559e+22
15.3084  1.41311e+22
15.4257  1.40143e+22
15.543  1.39045e+22
15.6603  1.38005e+22
15.7776  1.3701e+22
15.8949  1.36038e+22
16.0122  1.35075e+22
16.1295  1.34112e+22
16.2468  1.33143e+22
16.3641  1.32168e+22
16.4815  1.31198e+22
16.5988  1.3024e+22
16.7161  1.29306e+22
16.8334  1.28414e+22
16.9507  1.27578e+22
17.068  1.26804e+22
17.1853  1.26101e+22
17.3026  1.25467e+22
17.4199  1.24902e+22
17.5372  1.24389e+22
17.6545  1.23904e+22
17.7718  1.23422e+22
17.8891  1.22911e+22
18.0064  1.22326e+22
18.1237  1.21635e+22
18.241  1.20803e+22
18.3583  1.19799e+22
18.4756  1.18613e+22
18.5929  1.17243e+22
18.7102  1.1571e+22
18.8275  1.14039e+22
18.9449  1.12274e+22
19.0622  1.10469e+22
19.1795  1.08669e+22
19.2968  1.0693e+22
19.4141  1.05294e+22
19.5314  1.03796e+22
19.6487  1.02465e+22
19.766  1.01312e+22
19.8833  1.00344e+22
20.0006  9.95512e+21
20.1179  9.89183e+21
20.2352  9.84134e+21
20.3525  9.79963e+21
20.4698  9.76244e+21
20.5871  9.72419e+21
20.7044  9.67976e+21
20.8217  9.62482e+21
20.939  9.55569e+21
21.0563  9.47e+21
21.1736  9.36743e+21
21.291  9.24893e+21
21.4083  9.1168e+21
21.5256  8.97486e+21
21.6429  8.82751e+21
21.7602  8.67891e+21
21.8775  8.53351e+21
21.9948  8.39488e+21
22.1121  8.26624e+21
22.2294  8.14916e+21
22.3467  8.04455e+21
22.464  7.95244e+21
22.5813  7.87212e+21
22.6986  7.80112e+21
22.8159  7.73735e+21
22.9332  7.6777e+21
23.0505  7.61846e+21
23.1678  7.55662e+21
23.2851  7.48935e+21
23.4024  7.41485e+21
23.5198  7.33168e+21
23.6371  7.23994e+21
23.7544  7.14082e+21
23.8717  7.03587e+21
23.989  6.92774e+21
24.1063  6.81894e+21
24.2236  6.71206e+21
24.3409  6.60972e+21
24.4582  6.51367e+21
24.5755  6.42543e+21
24.6928  6.34563e+21
24.8101  6.27443e+21
24.9274  6.21099e+21
25.0447  6.15366e+21
25.162  6.10071e+21
25.2793  6.04923e+21
25.3966  5.99623e+21
25.5139  5.93903e+21
25.6312  5.87515e+21
25.7485  5.80253e+21
25.8658  5.72028e+21
25.9832  5.62821e+21
26.1005  5.52721e+21
26.2178  5.41898e+21
26.3351  5.30607e+21
26.4524  5.19076e+21
26.5697  5.0759e+21
26.687  4.96391e+21
26.8043  4.85741e+21
26.9216  4.75791e+21
27.0389  4.66695e+21
27.1562  4.58537e+21
27.2735  4.51383e+21
27.3908  4.45189e+21
27.5081  4.39906e+21
27.6254  4.35402e+21
27.7427  4.31473e+21
27.86  4.27909e+21
27.9773  4.24474e+21
28.0946  4.20934e+21
28.212  4.17085e+21
28.3293  4.12733e+21
28.4466  4.07812e+21
28.5639  4.02257e+21
28.6812  3.96106e+21
28.7985  3.89417e+21
28.9158  3.82278e+21
29.0331  3.74841e+21
29.1504  3.67222e+21
29.2677  3.59563e+21
29.385  3.51987e+21
29.5023  3.44601e+21
29.6196  3.375e+21
29.7369  3.30736e+21
29.8542  3.24371e+21
29.9715  3.18396e+21
30.0888  3.12788e+21
30.2061  3.07507e+21
30.3234  3.02501e+21
30.4407  2.97678e+21
30.558  2.92954e+21
30.6754  2.88253e+21
30.7927  2.83505e+21
30.91  2.78661e+21
31.0273  2.73694e+21
31.1446  2.68586e+21
31.2619  2.63346e+21
31.3792  2.57998e+21
31.4965  2.52606e+21
31.6138  2.47223e+21
31.7311  2.41912e+21
31.8484  2.36742e+21
31.9657  2.31792e+21
32.083  2.27106e+21
32.2003  2.22725e+21
32.3176  2.18664e+21
32.4349  2.14904e+21
32.5522  2.11421e+21
32.6695  2.08176e+21
32.7868  2.05127e+21
32.9042  2.02226e+21
33.0215  1.99413e+21
33.1388  1.96656e+21
33.2561  1.93916e+21
33.3734  1.91152e+21
33.4907  1.88339e+21
33.608  1.8544e+21
33.7253  1.82436e+21
33.8426  1.79314e+21
33.9599  1.7608e+21
34.0772  1.72759e+21
34.1945  1.6939e+21
34.3118  1.66024e+21
34.4291  1.62721e+21
34.5464  1.59547e+21
34.6637  1.56542e+21
34.781  1.53737e+21
34.8983  1.51155e+21
35.0156  1.48808e+21
35.1329  1.46667e+21
35.2503  1.44696e+21
35.3676  1.42857e+21
35.4849  1.41096e+21
35.6022  1.39354e+21
35.7195  1.37554e+21
35.8368  1.35638e+21
35.9541  1.33552e+21
36.0714  1.31228e+21
36.1887  1.28655e+21
36.306  1.25836e+21
36.4233  1.22788e+21
36.5406  1.19582e+21
36.6579  1.16301e+21
36.7752  1.1305e+21
36.8925  1.09935e+21
37.0098  1.07054e+21
37.1271  1.045e+21
37.2444  1.02335e+21
37.3617  1.00606e+21
37.479  9.93464e+20
37.5964  9.85446e+20
37.7137  9.8181e+20
37.831  9.81948e+20
37.9483  9.85173e+20
38.0656  9.90282e+20
38.1829  9.96053e+20
38.3002  1.00097e+21
38.4175  1.00344e+21
38.5348  1.0021e+21
38.6521  9.95883e+20
38.7694  9.84158e+20
38.8867  9.66897e+20
39.004  9.44461e+20
39.1213  9.18024e+20
39.2386  8.88874e+20
39.3559  8.58578e+20
39.4732  8.28574e+20
39.5905  8.00393e+20
39.7078  7.7527e+20
39.8251  7.54121e+20
39.9425  7.37549e+20
40.0598  7.26029e+20
40.1771  7.19697e+20
40.2944  7.18473e+20
40.4117  7.2189e+20
40.529  7.29134e+20
40.6463  7.39328e+20
40.7636  7.50831e+20
40.8809  7.62166e+20
40.9982  7.71747e+20
41.1155  7.77972e+20
41.2328  7.7982e+20
41.3501  7.76524e+20
41.4674  7.68067e+20
41.5847  7.54892e+20
41.702  7.37874e+20
41.8193  7.18357e+20
41.9366  6.97686e+20
42.0539  6.77387e+20
42.1712  6.58847e+20
42.2885  6.43258e+20
42.4059  6.31707e+20
42.5232  6.24895e+20
42.6405  6.23393e+20
42.7578  6.2741e+20
42.8751  6.36653e+20
42.9924  6.50528e+20
43.1097  6.67794e+20
43.227  6.86909e+20
43.3443  7.06062e+20
43.4616  7.23225e+20
43.5789  7.36547e+20
43.6962  7.44498e+20
43.8135  7.46305e+20
43.9308  7.41597e+20
44.0481  7.30857e+20
44.1654  7.14897e+20
44.2827  6.9523e+20
44.4  6.73359e+20
44.5173  6.50974e+20
44.6347  6.29437e+20
44.752  6.09867e+20
44.8693  5.93166e+20
44.9866  5.79967e+20
45.1039  5.70451e+20
45.2212  5.64553e+20
45.3385  5.62082e+20
45.4558  5.62429e+20
45.5731  5.64847e+20
45.6904  5.68419e+20
45.8077  5.72138e+20
45.925  5.7504e+20
46.0423  5.76173e+20
46.1596  5.74929e+20
46.2769  5.71099e+20
46.3942  5.64574e+20
46.5115  5.55811e+20
46.6288  5.4542e+20
46.7461  5.34288e+20
46.8634  5.23316e+20
46.9808  5.13482e+20
47.0981  5.05703e+20
47.2154  5.0059e+20
47.3327  4.98867e+20
47.45  5.00875e+20
47.5673  5.0664e+20
47.6846  5.15949e+20
47.8019  5.28249e+20
47.9192  5.42634e+20
48.0365  5.58056e+20
48.1538  5.73168e+20
48.2711  5.86675e+20
48.3884  5.97439e+20
48.5057  6.04602e+20
48.623  6.0761e+20
48.7403  6.06378e+20
48.8576  6.01031e+20
48.9749  5.92247e+20
49.0922  5.80738e+20
49.2095  5.67526e+20
49.3269  5.5349e+20
49.4442  5.3939e+20
49.5615  5.26138e+20
49.6788  5.14564e+20
49.7961  5.05057e+20
49.9134  4.98258e+20
50.0307  4.94306e+20
50.148  4.93229e+20
50.2653  4.94675e+20
50.3826  4.98165e+20
50.4999  5.02788e+20
50.6172  5.0769e+20
50.7345  5.11777e+20
50.8518  5.14186e+20
