#S 1 spectral density
#N 2
#UFWHM 51.6142
#L  abscissas [um]  spectral density
-58.5938  1.02208e+21
-58.4764  1.04174e+21
-58.3591  1.06262e+21
-58.2418  1.08387e+21
-58.1245  1.10472e+21
-58.0072  1.12405e+21
-57.8899  1.14152e+21
-57.7726  1.15648e+21
-57.6553  1.16906e+21
-57.538  1.17934e+21
-57.4207  1.18793e+21
-57.3034  1.19535e+21
-57.1861  1.20238e+21
-57.0688  1.20931e+21
-56.9515  1.21672e+21
-56.8342  1.22446e+21
-56.7169  1.23242e+21
-56.5996  1.24037e+21
-56.4823  1.24801e+21
-56.365  1.25522e+21
-56.2477  1.26194e+21
-56.1303  1.26793e+21
-56.013  1.27333e+21
-55.8957  1.27803e+21
-55.7784  1.28242e+21
-55.6611  1.28604e+21
-55.5438  1.28887e+21
-55.4265  1.29091e+21
-55.3092  1.29221e+21
-55.1919  1.29287e+21
-55.0746  1.29312e+21
-54.9573  1.29335e+21
-54.84  1.29414e+21
-54.7227  1.29599e+21
-54.6054  1.29943e+21
-54.4881  1.30473e+21
-54.3708  1.31182e+21
-54.2535  1.32106e+21
-54.1362  1.33217e+21
-54.0189  1.34489e+21
-53.9016  1.35885e+21
-53.7842  1.37364e+21
-53.6669  1.38894e+21
-53.5496  1.40454e+21
-53.4323  1.42024e+21
-53.315  1.43597e+21
-53.1977  1.45217e+21
-53.0804  1.46868e+21
-52.9631  1.48598e+21
-52.8458  1.50434e+21
-52.7285  1.52386e+21
-52.6112  1.54469e+21
-52.4939  1.56696e+21
-52.3766  1.59055e+21
-52.2593  1.6153e+21
-52.142  1.64101e+21
-52.0247  1.66734e+21
-51.9074  1.69396e+21
-51.7901  1.72041e+21
-51.6728  1.74656e+21
-51.5555  1.77185e+21
-51.4381  1.79563e+21
-51.3208  1.81731e+21
-51.2035  1.83651e+21
-51.0862  1.85303e+21
-50.9689  1.86642e+21
-50.8516  1.87674e+21
-50.7343  1.88417e+21
-50.617  1.88941e+21
-50.4997  1.8928e+21
-50.3824  1.89507e+21
-50.2651  1.89665e+21
-50.1478  1.8979e+21
-50.0305  1.89902e+21
-49.9132  1.90008e+21
-49.7959  1.90092e+21
-49.6786  1.9012e+21
-49.5613  1.90133e+21
-49.444  1.90124e+21
-49.3267  1.90134e+21
-49.2094  1.90198e+21
-49.092  1.90341e+21
-48.9747  1.9065e+21
-48.8574  1.91143e+21
-48.7401  1.91826e+21
-48.6228  1.92732e+21
-48.5055  1.93878e+21
-48.3882  1.95227e+21
-48.2709  1.96796e+21
-48.1536  1.98578e+21
-48.0363  2.00553e+21
-47.919  2.02694e+21
-47.8017  2.04969e+21
-47.6844  2.07356e+21
-47.5671  2.09809e+21
-47.4498  2.12291e+21
-47.3325  2.14787e+21
-47.2152  2.17275e+21
-47.0979  2.19775e+21
-46.9806  2.22324e+21
-46.8633  2.24965e+21
-46.7459  2.27724e+21
-46.6286  2.30643e+21
-46.5113  2.33765e+21
-46.394  2.37078e+21
-46.2767  2.40561e+21
-46.1594  2.44175e+21
-46.0421  2.47822e+21
-45.9248  2.51448e+21
-45.8075  2.54902e+21
-45.6902  2.58103e+21
-45.5729  2.60893e+21
-45.4556  2.63149e+21
-45.3383  2.6475e+21
-45.221  2.65604e+21
-45.1037  2.65673e+21
-44.9864  2.6492e+21
-44.8691  2.63451e+21
-44.7518  2.61369e+21
-44.6345  2.58866e+21
-44.5172  2.56143e+21
-44.3998  2.53419e+21
-44.2825  2.51002e+21
-44.1652  2.49065e+21
-44.0479  2.47802e+21
-43.9306  2.47381e+21
-43.8133  2.47918e+21
-43.696  2.49455e+21
-43.5787  2.52032e+21
-43.4614  2.55627e+21
-43.3441  2.60179e+21
-43.2268  2.65533e+21
-43.1095  2.71515e+21
-42.9922  2.77906e+21
-42.8749  2.8445e+21
-42.7576  2.90849e+21
-42.6403  2.96873e+21
-42.523  3.02264e+21
-42.4057  3.06881e+21
-42.2884  3.10616e+21
-42.171  3.13474e+21
-42.0537  3.15493e+21
-41.9364  3.16765e+21
-41.8191  3.17481e+21
-41.7018  3.17752e+21
-41.5845  3.17746e+21
-41.4672  3.17589e+21
-41.3499  3.17386e+21
-41.2326  3.17249e+21
-41.1153  3.17204e+21
-40.998  3.17349e+21
-40.8807  3.17679e+21
-40.7634  3.18215e+21
-40.6461  3.18925e+21
-40.5288  3.19768e+21
-40.4115  3.20735e+21
-40.2942  3.21718e+21
-40.1769  3.22733e+21
-40.0596  3.23735e+21
-39.9423  3.24739e+21
-39.825  3.25794e+21
-39.7076  3.26966e+21
-39.5903  3.28418e+21
-39.473  3.30197e+21
-39.3557  3.32397e+21
-39.2384  3.3508e+21
-39.1211  3.38276e+21
-39.0038  3.41939e+21
-38.8865  3.45996e+21
-38.7692  3.50372e+21
-38.6519  3.54985e+21
-38.5346  3.59693e+21
-38.4173  3.64402e+21
-38.3  3.6903e+21
-38.1827  3.73498e+21
-38.0654  3.77704e+21
-37.9481  3.81611e+21
-37.8308  3.85139e+21
-37.7135  3.88271e+21
-37.5962  3.90972e+21
-37.4789  3.93277e+21
-37.3615  3.95222e+21
-37.2442  3.9687e+21
-37.1269  3.98382e+21
-37.0096  3.9982e+21
-36.8923  4.01324e+21
-36.775  4.02977e+21
-36.6577  4.04865e+21
-36.5404  4.07049e+21
-36.4231  4.09499e+21
-36.3058  4.12261e+21
-36.1885  4.15277e+21
-36.0712  4.18521e+21
-35.9539  4.21922e+21
-35.8366  4.25411e+21
-35.7193  4.28986e+21
-35.602  4.32538e+21
-35.4847  4.36053e+21
-35.3674  4.39456e+21
-35.2501  4.42703e+21
-35.1328  4.45772e+21
-35.0154  4.4862e+21
-34.8981  4.51295e+21
-34.7808  4.53742e+21
-34.6635  4.55986e+21
-34.5462  4.58049e+21
-34.4289  4.5993e+21
-34.3116  4.6164e+21
-34.1943  4.63178e+21
-34.077  4.64582e+21
-33.9597  4.65915e+21
-33.8424  4.67184e+21
-33.7251  4.68487e+21
-33.6078  4.69906e+21
-33.4905  4.71552e+21
-33.3732  4.73497e+21
-33.2559  4.75846e+21
-33.1386  4.78664e+21
-33.0213  4.82005e+21
-32.904  4.85853e+21
-32.7867  4.9024e+21
-32.6693  4.95127e+21
-32.552  5.00448e+21
-32.4347  5.06209e+21
-32.3174  5.1225e+21
-32.2001  5.18548e+21
-32.0828  5.24969e+21
-31.9655  5.31443e+21
-31.8482  5.37867e+21
-31.7309  5.44124e+21
-31.6136  5.50192e+21
-31.4963  5.55983e+21
-31.379  5.61479e+21
-31.2617  5.66661e+21
-31.1444  5.71509e+21
-31.0271  5.76083e+21
-30.9098  5.80394e+21
-30.7925  5.84461e+21
-30.6752  5.88274e+21
-30.5579  5.91831e+21
-30.4406  5.9511e+21
-30.3232  5.98077e+21
-30.2059  6.00732e+21
-30.0886  6.02961e+21
-29.9713  6.04769e+21
-29.854  6.06128e+21
-29.7367  6.0701e+21
-29.6194  6.07464e+21
-29.5021  6.07534e+21
-29.3848  6.0733e+21
-29.2675  6.07072e+21
-29.1502  6.06894e+21
-29.0329  6.07064e+21
-28.9156  6.07817e+21
-28.7983  6.0939e+21
-28.681  6.11982e+21
-28.5637  6.15768e+21
-28.4464  6.20846e+21
-28.3291  6.27249e+21
-28.2118  6.34908e+21
-28.0944  6.43724e+21
-27.9771  6.53506e+21
-27.8598  6.63971e+21
-27.7425  6.74826e+21
-27.6252  6.85649e+21
-27.5079  6.96087e+21
-27.3906  7.05734e+21
-27.2733  7.1425e+21
-27.156  7.21373e+21
-27.0387  7.26916e+21
-26.9214  7.30884e+21
-26.8041  7.33382e+21
-26.6868  7.34642e+21
-26.5695  7.35015e+21
-26.4522  7.34881e+21
-26.3349  7.34713e+21
-26.2176  7.34946e+21
-26.1003  7.35909e+21
-25.983  7.37887e+21
-25.8657  7.41044e+21
-25.7483  7.45452e+21
-25.631  7.51074e+21
-25.5137  7.57779e+21
-25.3964  7.65296e+21
-25.2791  7.73358e+21
-25.1618  7.81605e+21
-25.0445  7.89639e+21
-24.9272  7.97119e+21
-24.8099  8.03715e+21
-24.6926  8.09179e+21
-24.5753  8.13435e+21
-24.458  8.16439e+21
-24.3407  8.18375e+21
-24.2234  8.1947e+21
-24.1061  8.20097e+21
-23.9888  8.20654e+21
-23.8715  8.21541e+21
-23.7542  8.23167e+21
-23.6369  8.25822e+21
-23.5196  8.29704e+21
-23.4023  8.34963e+21
-23.2849  8.41584e+21
-23.1676  8.49449e+21
-23.0503  8.58337e+21
-22.933  8.67895e+21
-22.8157  8.77756e+21
-22.6984  8.87474e+21
-22.5811  8.9661e+21
-22.4638  9.04785e+21
-22.3465  9.11665e+21
-22.2292  9.17096e+21
-22.1119  9.21032e+21
-21.9946  9.23612e+21
-21.8773  9.25126e+21
-21.76  9.25916e+21
-21.6427  9.26496e+21
-21.5254  9.27363e+21
-21.4081  9.28963e+21
-21.2908  9.31697e+21
-21.1735  9.35866e+21
-21.0561  9.41651e+21
-20.9388  9.49142e+21
-20.8215  9.58234e+21
-20.7042  9.68712e+21
-20.5869  9.80268e+21
-20.4696  9.92444e+21
-20.3523  1.0047e+22
-20.235  1.01648e+22
-20.1177  1.02718e+22
-20.0004  1.03626e+22
-19.8831  1.04333e+22
-19.7658  1.04809e+22
-19.6485  1.05052e+22
-19.5312  1.05073e+22
-19.4139  1.04905e+22
-19.2966  1.04597e+22
-19.1793  1.04205e+22
-19.062  1.03792e+22
-18.9447  1.03413e+22
-18.8274  1.03119e+22
-18.71  1.02953e+22
-18.5927  1.02942e+22
-18.4754  1.03102e+22
-18.3581  1.0344e+22
-18.2408  1.03945e+22
-18.1235  1.04605e+22
-18.0062  1.05395e+22
-17.8889  1.06285e+22
-17.7716  1.07242e+22
-17.6543  1.08225e+22
-17.537  1.092e+22
-17.4197  1.10133e+22
-17.3024  1.11e+22
-17.1851  1.11783e+22
-17.0678  1.12475e+22
-16.9505  1.13083e+22
-16.8332  1.13621e+22
-16.7159  1.14106e+22
-16.5986  1.14561e+22
-16.4813  1.1501e+22
-16.364  1.1547e+22
-16.2466  1.15956e+22
-16.1293  1.16473e+22
-16.012  1.17023e+22
-15.8947  1.17603e+22
-15.7774  1.18201e+22
-15.6601  1.18802e+22
-15.5428  1.19391e+22
-15.4255  1.19951e+22
-15.3082  1.20465e+22
-15.1909  1.20922e+22
-15.0736  1.21312e+22
-14.9563  1.21632e+22
-14.839  1.21884e+22
-14.7217  1.22077e+22
-14.6044  1.22227e+22
-14.4871  1.22351e+22
-14.3698  1.22472e+22
-14.2525  1.22609e+22
-14.1352  1.22781e+22
-14.0178  1.23005e+22
-13.9005  1.23289e+22
-13.7832  1.23635e+22
-13.6659  1.24041e+22
-13.5486  1.24499e+22
-13.4313  1.24991e+22
-13.314  1.25501e+22
-13.1967  1.26009e+22
-13.0794  1.26495e+22
-12.9621  1.26941e+22
-12.8448  1.27327e+22
-12.7275  1.27643e+22
-12.6102  1.27884e+22
-12.4929  1.28049e+22
-12.3756  1.28146e+22
-12.2583  1.28187e+22
-12.141  1.28192e+22
-12.0237  1.28178e+22
-11.9064  1.28169e+22
-11.7891  1.28185e+22
-11.6718  1.28249e+22
-11.5544  1.28377e+22
-11.4371  1.28584e+22
-11.3198  1.2888e+22
-11.2025  1.29272e+22
-11.0852  1.29762e+22
-10.9679  1.30348e+22
-10.8506  1.31025e+22
-10.7333  1.3178e+22
-10.616  1.32598e+22
-10.4987  1.33463e+22
-10.3814  1.34354e+22
-10.2641  1.3525e+22
-10.1468  1.36131e+22
-10.0295  1.3698e+22
-9.91217  1.37781e+22
-9.79487  1.38523e+22
-9.67756  1.39195e+22
-9.56026  1.39792e+22
-9.44295  1.4031e+22
-9.32565  1.40749e+22
-9.20834  1.41109e+22
-9.09104  1.41394e+22
-8.97373  1.41609e+22
-8.85643  1.41761e+22
-8.73913  1.41858e+22
-8.62182  1.41909e+22
-8.50452  1.41925e+22
-8.38721  1.41915e+22
-8.26991  1.41886e+22
-8.1526  1.41845e+22
-8.03529  1.41796e+22
-7.91799  1.41745e+22
-7.80069  1.41692e+22
-7.68338  1.41643e+22
-7.56608  1.41597e+22
-7.44877  1.41558e+22
-7.33146  1.41527e+22
-7.21416  1.41504e+22
-7.09685  1.41488e+22
-6.97955  1.41478e+22
-6.86224  1.41476e+22
-6.74494  1.41479e+22
-6.62763  1.41485e+22
-6.51033  1.41495e+22
-6.39302  1.41511e+22
-6.27572  1.41537e+22
-6.15842  1.41578e+22
-6.04111  1.41638e+22
-5.92381  1.4172e+22
-5.8065  1.41833e+22
-5.68919  1.41979e+22
-5.57189  1.42165e+22
-5.45458  1.42393e+22
-5.33728  1.42666e+22
-5.21997  1.42987e+22
-5.10267  1.43353e+22
-4.98536  1.43761e+22
-4.86806  1.44201e+22
-4.75075  1.44663e+22
-4.63345  1.45133e+22
-4.51614  1.45595e+22
-4.39884  1.46038e+22
-4.28154  1.46447e+22
-4.16423  1.46819e+22
-4.04692  1.47148e+22
-3.92962  1.47436e+22
-3.81231  1.47683e+22
-3.69501  1.47893e+22
-3.5777  1.48069e+22
-3.4604  1.4821e+22
-3.34309  1.48313e+22
-3.22579  1.48379e+22
-3.10849  1.48405e+22
-2.99118  1.48392e+22
-2.87387  1.48342e+22
-2.75657  1.4826e+22
-2.63926  1.48156e+22
-2.52196  1.48039e+22
-2.40465  1.47915e+22
-2.28735  1.47794e+22
-2.17005  1.47683e+22
-2.05274  1.47581e+22
-1.93544  1.47496e+22
-1.81813  1.4743e+22
-1.70083  1.47387e+22
-1.58352  1.47373e+22
-1.46622  1.47394e+22
-1.34891  1.47453e+22
-1.2316  1.47548e+22
-1.1143  1.47677e+22
-0.996995  1.47831e+22
-0.87969  1.47998e+22
-0.762385  1.48165e+22
-0.64508  1.48323e+22
-0.527775  1.4846e+22
-0.41047  1.4857e+22
-0.293165  1.48652e+22
-0.17586  1.48705e+22
-0.058555  1.4873e+22
0.05875  1.4873e+22
0.176055  1.48703e+22
0.29336  1.4865e+22
0.410665  1.48567e+22
0.52797  1.48457e+22
0.645275  1.48321e+22
0.76258  1.48165e+22
0.879885  1.48e+22
0.99719  1.47837e+22
1.1145  1.4769e+22
1.2318  1.47567e+22
1.3491  1.47478e+22
1.46641  1.47428e+22
1.58371  1.47414e+22
1.70102  1.47437e+22
1.81832  1.47487e+22
1.93563  1.4756e+22
2.05294  1.47653e+22
2.17024  1.47761e+22
2.28754  1.47881e+22
2.40485  1.48008e+22
2.52216  1.48138e+22
2.63946  1.48259e+22
2.75677  1.48367e+22
2.87407  1.48452e+22
2.99137  1.48506e+22
3.10868  1.48523e+22
3.22599  1.48501e+22
3.34329  1.48439e+22
3.4606  1.48337e+22
3.5779  1.482e+22
3.69521  1.48028e+22
3.81251  1.4782e+22
3.92982  1.47575e+22
4.04712  1.4729e+22
4.16443  1.46965e+22
4.28173  1.46595e+22
4.39903  1.46188e+22
4.51634  1.45748e+22
4.63364  1.45288e+22
4.75095  1.44824e+22
4.86825  1.44366e+22
4.98556  1.43931e+22
5.10286  1.43529e+22
5.22017  1.4317e+22
5.33748  1.42856e+22
5.45478  1.42589e+22
5.57209  1.42368e+22
5.68939  1.4219e+22
5.8067  1.42051e+22
5.924  1.41945e+22
6.0413  1.41867e+22
6.15861  1.41814e+22
6.27591  1.41779e+22
6.39322  1.41757e+22
6.51052  1.41744e+22
6.62783  1.41735e+22
6.74514  1.41731e+22
6.86244  1.4173e+22
6.97975  1.41734e+22
7.09705  1.41743e+22
7.21436  1.4176e+22
7.33166  1.41782e+22
7.44897  1.41816e+22
7.56627  1.41856e+22
7.68358  1.41905e+22
7.80088  1.41959e+22
7.91819  1.42015e+22
8.03549  1.42072e+22
8.1528  1.42127e+22
8.2701  1.42174e+22
8.38741  1.4221e+22
8.50471  1.42228e+22
8.62202  1.4222e+22
8.73932  1.42175e+22
8.85662  1.42086e+22
8.97393  1.4194e+22
9.09123  1.41731e+22
9.20854  1.4145e+22
9.32584  1.41093e+22
9.44315  1.40658e+22
9.56045  1.40141e+22
9.67776  1.39546e+22
9.79506  1.38875e+22
9.91237  1.38134e+22
10.0297  1.37334e+22
10.147  1.36487e+22
10.2643  1.35608e+22
10.3816  1.34714e+22
10.4989  1.33828e+22
10.6162  1.32968e+22
10.7335  1.32155e+22
10.8508  1.31405e+22
10.9681  1.30736e+22
11.0854  1.30157e+22
11.2027  1.29673e+22
11.32  1.29288e+22
11.4373  1.28997e+22
11.5546  1.28795e+22
11.6719  1.28673e+22
11.7893  1.28613e+22
11.9066  1.286e+22
12.0239  1.2861e+22
12.1412  1.28625e+22
12.2585  1.28622e+22
12.3758  1.28582e+22
12.4931  1.28485e+22
12.6104  1.28317e+22
12.7277  1.28077e+22
12.845  1.27762e+22
12.9623  1.27375e+22
13.0796  1.26932e+22
13.1969  1.26448e+22
13.3142  1.25943e+22
13.4315  1.25436e+22
13.5488  1.24948e+22
13.6661  1.24497e+22
13.7834  1.24096e+22
13.9007  1.23754e+22
14.018  1.23477e+22
14.1354  1.23258e+22
14.2527  1.23089e+22
14.37  1.22957e+22
14.4873  1.2284e+22
14.6046  1.22719e+22
14.7219  1.22573e+22
14.8392  1.22383e+22
14.9565  1.22134e+22
15.0738  1.21816e+22
15.1911  1.2143e+22
15.3084  1.20975e+22
15.4257  1.20464e+22
15.543  1.19907e+22
15.6603  1.19322e+22
15.7776  1.18725e+22
15.8949  1.18131e+22
16.0122  1.17555e+22
16.1295  1.17006e+22
16.2468  1.1649e+22
16.3641  1.16007e+22
16.4815  1.15547e+22
16.5988  1.15099e+22
16.7161  1.14641e+22
16.8334  1.14153e+22
16.9507  1.13614e+22
17.068  1.13002e+22
17.1853  1.12306e+22
17.3026  1.1152e+22
17.4199  1.10651e+22
17.5372  1.09719e+22
17.6545  1.08743e+22
17.7718  1.07761e+22
17.8891  1.06809e+22
18.0064  1.05924e+22
18.1237  1.05138e+22
18.241  1.04485e+22
18.3583  1.03987e+22
18.4756  1.03657e+22
18.5929  1.03503e+22
18.7102  1.03522e+22
18.8275  1.03693e+22
18.9449  1.03992e+22
19.0622  1.04374e+22
19.1795  1.0479e+22
19.2968  1.05182e+22
19.4141  1.05488e+22
19.5314  1.05653e+22
19.6487  1.05628e+22
19.766  1.0538e+22
19.8833  1.04899e+22
20.0006  1.04189e+22
20.1179  1.03278e+22
20.2352  1.02207e+22
20.3525  1.01031e+22
20.4698  9.98085e+21
20.5871  9.85957e+21
20.7044  9.74461e+21
20.8217  9.64038e+21
20.939  9.55028e+21
21.0563  9.47628e+21
21.1736  9.4191e+21
21.291  9.37796e+21
21.4083  9.35111e+21
21.5256  9.33557e+21
21.6429  9.3272e+21
21.7602  9.32111e+21
21.8775  9.31282e+21
21.9948  9.29728e+21
22.1121  9.27086e+21
22.2294  9.23076e+21
22.3467  9.17548e+21
22.464  9.10571e+21
22.5813  9.02323e+21
22.6986  8.93101e+21
22.8159  8.8332e+21
22.9332  8.7341e+21
23.0505  8.63817e+21
23.1678  8.54911e+21
23.2851  8.47031e+21
23.4024  8.40427e+21
23.5198  8.35171e+21
23.6371  8.31299e+21
23.7544  8.28669e+21
23.8717  8.27064e+21
23.989  8.26186e+21
24.1063  8.25626e+21
24.2236  8.25005e+21
24.3409  8.2388e+21
24.4582  8.21914e+21
24.5755  8.18875e+21
24.6928  8.14581e+21
24.8101  8.09062e+21
24.9274  8.02416e+21
25.0447  7.949e+21
25.162  7.86841e+21
25.2793  7.78593e+21
25.3966  7.70514e+21
25.5139  7.62982e+21
25.6312  7.56302e+21
25.7485  7.50699e+21
25.8658  7.46331e+21
25.9832  7.43188e+21
26.1005  7.41241e+21
26.2178  7.40325e+21
26.3351  7.40123e+21
26.4524  7.40276e+21
26.5697  7.40389e+21
26.687  7.39992e+21
26.8043  7.38689e+21
26.9216  7.36157e+21
27.0389  7.32105e+21
27.1562  7.26474e+21
27.2735  7.19276e+21
27.3908  7.10676e+21
27.5081  7.00959e+21
27.6254  6.90458e+21
27.7427  6.79582e+21
27.86  6.68693e+21
27.9773  6.582e+21
28.0946  6.48435e+21
28.212  6.39619e+21
28.3293  6.31979e+21
28.4466  6.25613e+21
28.5639  6.20583e+21
28.6812  6.16837e+21
28.7985  6.14278e+21
28.9158  6.12746e+21
29.0331  6.12022e+21
29.1504  6.11862e+21
29.2677  6.12037e+21
29.385  6.12302e+21
29.5023  6.1246e+21
29.6196  6.12345e+21
29.7369  6.11845e+21
29.8542  6.109e+21
29.9715  6.09495e+21
30.0888  6.07597e+21
30.2061  6.05287e+21
30.3234  6.02587e+21
30.4407  5.99543e+21
30.558  5.96216e+21
30.6754  5.92589e+21
30.7927  5.88747e+21
30.91  5.84667e+21
31.0273  5.80332e+21
31.1446  5.75722e+21
31.2619  5.70843e+21
31.3792  5.65653e+21
31.4965  5.60144e+21
31.6138  5.54345e+21
31.7311  5.48262e+21
31.8484  5.41973e+21
31.9657  5.3552e+21
32.083  5.29012e+21
32.2003  5.22551e+21
32.3176  5.16214e+21
32.4349  5.10128e+21
32.5522  5.04338e+21
32.6695  4.98961e+21
32.7868  4.94059e+21
32.9042  4.89627e+21
33.0215  4.85742e+21
33.1388  4.82376e+21
33.2561  4.79538e+21
33.3734  4.7716e+21
33.4907  4.75183e+21
33.608  4.73519e+21
33.7253  4.72076e+21
33.8426  4.7074e+21
33.9599  4.69439e+21
34.0772  4.68093e+21
34.1945  4.66654e+21
34.3118  4.65068e+21
34.4291  4.63326e+21
34.5464  4.61414e+21
34.6637  4.59332e+21
34.781  4.57038e+21
34.8983  4.54562e+21
35.0156  4.51879e+21
35.1329  4.48982e+21
35.2503  4.45906e+21
35.3676  4.42623e+21
35.4849  4.3922e+21
35.6022  4.35705e+21
35.7195  4.32142e+21
35.8368  4.28568e+21
35.9541  4.25061e+21
36.0714  4.21659e+21
36.1887  4.18424e+21
36.306  4.15407e+21
36.4233  4.12645e+21
36.5406  4.1017e+21
36.6579  4.07978e+21
36.7752  4.06058e+21
36.8925  4.0437e+21
37.0098  4.02829e+21
37.1271  4.01351e+21
37.2444  3.99804e+21
37.3617  3.98099e+21
37.479  3.96119e+21
37.5964  3.93763e+21
37.7137  3.91019e+21
37.831  3.87843e+21
37.9483  3.84272e+21
38.0656  3.80329e+21
38.1829  3.76086e+21
38.3002  3.71595e+21
38.4175  3.66948e+21
38.5348  3.62211e+21
38.6521  3.57485e+21
38.7694  3.52875e+21
38.8867  3.48491e+21
39.004  3.4442e+21
39.1213  3.40752e+21
39.2386  3.37563e+21
39.3559  3.34884e+21
39.4732  3.32665e+21
39.5905  3.30898e+21
39.7078  3.29464e+21
39.8251  3.28253e+21
39.9425  3.27197e+21
40.0598  3.26178e+21
40.1771  3.25184e+21
40.2944  3.24164e+21
40.4117  3.23158e+21
40.529  3.22199e+21
40.6463  3.21334e+21
40.7636  3.20623e+21
40.8809  3.20093e+21
40.9982  3.19757e+21
41.1155  3.19619e+21
41.2328  3.19635e+21
41.3501  3.19778e+21
41.4674  3.1995e+21
41.5847  3.2009e+21
41.702  3.20082e+21
41.8193  3.19776e+21
41.9366  3.19042e+21
42.0539  3.17727e+21
42.1712  3.15679e+21
42.2885  3.12776e+21
42.4059  3.08995e+21
42.5232  3.0433e+21
42.6405  2.98894e+21
42.7578  2.92838e+21
42.8751  2.86399e+21
42.9924  2.79836e+21
43.1097  2.73432e+21
43.227  2.6744e+21
43.3443  2.6208e+21
43.4616  2.57542e+21
43.5789  2.53957e+21
43.6962  2.51391e+21
43.8135  2.49858e+21
43.9308  2.49338e+21
44.0481  2.49778e+21
44.1654  2.51046e+21
44.2827  2.53004e+21
44.4  2.55442e+21
44.5173  2.58136e+21
44.6347  2.60864e+21
44.752  2.63358e+21
44.8693  2.65432e+21
44.9866  2.66877e+21
45.1039  2.67587e+21
45.2212  2.67509e+21
45.3385  2.66615e+21
45.4558  2.64986e+21
45.5731  2.62712e+21
45.6904  2.5989e+21
45.8077  2.56682e+21
45.925  2.53199e+21
46.0423  2.49573e+21
46.1596  2.459e+21
46.2769  2.4229e+21
46.3942  2.38811e+21
46.5115  2.35491e+21
46.6288  2.32377e+21
46.7461  2.29458e+21
46.8634  2.26706e+21
46.9808  2.24072e+21
47.0981  2.21525e+21
47.2154  2.19021e+21
47.3327  2.1653e+21
47.45  2.14034e+21
47.5673  2.11544e+21
47.6846  2.0908e+21
47.8019  2.06694e+21
47.9192  2.04404e+21
48.0365  2.02247e+21
48.1538  2.00264e+21
48.2711  1.98469e+21
48.3884  1.96894e+21
48.5057  1.95522e+21
48.623  1.94371e+21
48.7403  1.93449e+21
48.8576  1.92751e+21
48.9749  1.92268e+21
49.0922  1.91968e+21
49.2095  1.91802e+21
49.3269  1.91745e+21
49.4442  1.91743e+21
49.5615  1.91761e+21
49.6788  1.91745e+21
49.7961  1.91706e+21
49.9134  1.91643e+21
50.0307  1.91534e+21
50.148  1.91424e+21
50.2653  1.91303e+21
50.3826  1.91133e+21
50.4999  1.90905e+21
50.6172  1.90549e+21
50.7345  1.9002e+21
50.8518  1.89246e+21
