#S 1 spectral density
#N 2
#UFWHM 80.9405
#L  abscissas [um]  spectral density
-58.5938  1.99269e+21
-58.4764  2.02795e+21
-58.3591  2.06164e+21
-58.2418  2.09298e+21
-58.1245  2.12167e+21
-58.0072  2.14712e+21
-57.8899  2.16962e+21
-57.7726  2.18929e+21
-57.6553  2.207e+21
-57.538  2.22353e+21
-57.4207  2.23974e+21
-57.3034  2.25664e+21
-57.1861  2.27493e+21
-57.0688  2.29472e+21
-56.9515  2.31617e+21
-56.8342  2.33863e+21
-56.7169  2.36131e+21
-56.5996  2.38334e+21
-56.4823  2.40369e+21
-56.365  2.42185e+21
-56.2477  2.43709e+21
-56.1303  2.44923e+21
-56.013  2.45829e+21
-55.8957  2.46443e+21
-55.7784  2.46854e+21
-55.6611  2.47072e+21
-55.5438  2.47193e+21
-55.4265  2.47311e+21
-55.3092  2.475e+21
-55.1919  2.47877e+21
-55.0746  2.48536e+21
-54.9573  2.49562e+21
-54.84  2.51034e+21
-54.7227  2.5301e+21
-54.6054  2.55509e+21
-54.4881  2.58488e+21
-54.3708  2.61863e+21
-54.2535  2.65548e+21
-54.1362  2.69397e+21
-54.0189  2.7323e+21
-53.9016  2.76898e+21
-53.7842  2.8023e+21
-53.6669  2.83098e+21
-53.5496  2.85405e+21
-53.4323  2.87105e+21
-53.315  2.88193e+21
-53.1977  2.8875e+21
-53.0804  2.88843e+21
-52.9631  2.8864e+21
-52.8458  2.88291e+21
-52.7285  2.87952e+21
-52.6112  2.87777e+21
-52.4939  2.87918e+21
-52.3766  2.88449e+21
-52.2593  2.89453e+21
-52.142  2.90929e+21
-52.0247  2.92852e+21
-51.9074  2.95146e+21
-51.7901  2.9771e+21
-51.6728  3.00429e+21
-51.5555  3.0314e+21
-51.4381  3.05693e+21
-51.3208  3.07938e+21
-51.2035  3.0977e+21
-51.0862  3.11133e+21
-50.9689  3.11988e+21
-50.8516  3.12393e+21
-50.7343  3.12457e+21
-50.617  3.12348e+21
-50.4997  3.1227e+21
-50.3824  3.12454e+21
-50.2651  3.13126e+21
-50.1478  3.14449e+21
-50.0305  3.16596e+21
-49.9132  3.19646e+21
-49.7959  3.23612e+21
-49.6786  3.28425e+21
-49.5613  3.33996e+21
-49.444  3.40145e+21
-49.3267  3.4667e+21
-49.2094  3.53318e+21
-49.092  3.59808e+21
-48.9747  3.65896e+21
-48.8574  3.71322e+21
-48.7401  3.75866e+21
-48.6228  3.79386e+21
-48.5055  3.81812e+21
-48.3882  3.83136e+21
-48.2709  3.83483e+21
-48.1536  3.83019e+21
-48.0363  3.81983e+21
-47.919  3.80636e+21
-47.8017  3.79267e+21
-47.6844  3.78108e+21
-47.5671  3.77386e+21
-47.4498  3.77211e+21
-47.3325  3.77677e+21
-47.2152  3.78749e+21
-47.0979  3.80364e+21
-46.9806  3.82403e+21
-46.8633  3.84701e+21
-46.7459  3.87051e+21
-46.6286  3.89275e+21
-46.5113  3.91213e+21
-46.394  3.92743e+21
-46.2767  3.93778e+21
-46.1594  3.94331e+21
-46.0421  3.94443e+21
-45.9248  3.94264e+21
-45.8075  3.93966e+21
-45.6902  3.93765e+21
-45.5729  3.9389e+21
-45.4556  3.94525e+21
-45.3383  3.95859e+21
-45.221  3.97998e+21
-45.1037  4.01011e+21
-44.9864  4.04876e+21
-44.8691  4.09548e+21
-44.7518  4.149e+21
-44.6345  4.20785e+21
-44.5172  4.26982e+21
-44.3998  4.33241e+21
-44.2825  4.39369e+21
-44.1652  4.45095e+21
-44.0479  4.50213e+21
-43.9306  4.54577e+21
-43.8133  4.58095e+21
-43.696  4.60745e+21
-43.5787  4.62622e+21
-43.4614  4.63882e+21
-43.3441  4.64759e+21
-43.2268  4.65487e+21
-43.1095  4.66328e+21
-42.9922  4.67532e+21
-42.8749  4.69269e+21
-42.7576  4.71648e+21
-42.6403  4.74721e+21
-42.523  4.78436e+21
-42.4057  4.82724e+21
-42.2884  4.87412e+21
-42.171  4.92346e+21
-42.0537  4.9728e+21
-41.9364  5.0199e+21
-41.8191  5.06283e+21
-41.7018  5.09928e+21
-41.5845  5.12751e+21
-41.4672  5.14632e+21
-41.3499  5.15497e+21
-41.2326  5.15394e+21
-41.1153  5.14397e+21
-40.998  5.1271e+21
-40.8807  5.10545e+21
-40.7634  5.08187e+21
-40.6461  5.059e+21
-40.5288  5.03903e+21
-40.4115  5.02435e+21
-40.2942  5.01602e+21
-40.1769  5.01513e+21
-40.0596  5.02164e+21
-39.9423  5.03555e+21
-39.825  5.05589e+21
-39.7076  5.08156e+21
-39.5903  5.11195e+21
-39.473  5.14554e+21
-39.3557  5.18099e+21
-39.2384  5.2172e+21
-39.1211  5.25317e+21
-39.0038  5.28785e+21
-38.8865  5.32079e+21
-38.7692  5.35189e+21
-38.6519  5.38169e+21
-38.5346  5.41055e+21
-38.4173  5.4395e+21
-38.3  5.46982e+21
-38.1827  5.50241e+21
-38.0654  5.5378e+21
-37.9481  5.57654e+21
-37.8308  5.61819e+21
-37.7135  5.66241e+21
-37.5962  5.70793e+21
-37.4789  5.75379e+21
-37.3615  5.7985e+21
-37.2442  5.84079e+21
-37.1269  5.87991e+21
-37.0096  5.91465e+21
-36.8923  5.94466e+21
-36.775  5.96944e+21
-36.6577  5.98907e+21
-36.5404  6.00398e+21
-36.4231  6.01438e+21
-36.3058  6.02159e+21
-36.1885  6.02636e+21
-36.0712  6.0302e+21
-35.9539  6.03445e+21
-35.8366  6.04008e+21
-35.7193  6.04883e+21
-35.602  6.06121e+21
-35.4847  6.07802e+21
-35.3674  6.09923e+21
-35.2501  6.12474e+21
-35.1328  6.15372e+21
-35.0154  6.18525e+21
-34.8981  6.21889e+21
-34.7808  6.25284e+21
-34.6635  6.28605e+21
-34.5462  6.31748e+21
-34.4289  6.34634e+21
-34.3116  6.37154e+21
-34.1943  6.39266e+21
-34.077  6.40973e+21
-33.9597  6.42319e+21
-33.8424  6.43338e+21
-33.7251  6.4413e+21
-33.6078  6.44835e+21
-33.4905  6.45577e+21
-33.3732  6.46466e+21
-33.2559  6.47639e+21
-33.1386  6.49166e+21
-33.0213  6.51117e+21
-32.904  6.53495e+21
-32.7867  6.56308e+21
-32.6693  6.59529e+21
-32.552  6.63087e+21
-32.4347  6.6695e+21
-32.3174  6.70992e+21
-32.2001  6.75161e+21
-32.0828  6.79323e+21
-31.9655  6.83371e+21
-31.8482  6.87218e+21
-31.7309  6.90709e+21
-31.6136  6.93803e+21
-31.4963  6.96415e+21
-31.379  6.985e+21
-31.2617  7.00051e+21
-31.1444  7.01068e+21
-31.0271  7.01656e+21
-30.9098  7.01866e+21
-30.7925  7.01845e+21
-30.6752  7.01682e+21
-30.5579  7.01512e+21
-30.4406  7.01458e+21
-30.3232  7.01627e+21
-30.2059  7.0216e+21
-30.0886  7.03057e+21
-29.9713  7.04379e+21
-29.854  7.06129e+21
-29.7367  7.08286e+21
-29.6194  7.1078e+21
-29.5021  7.13536e+21
-29.3848  7.16495e+21
-29.2675  7.19601e+21
-29.1502  7.2277e+21
-29.0329  7.2597e+21
-28.9156  7.29153e+21
-28.7983  7.32304e+21
-28.681  7.35388e+21
-28.5637  7.38408e+21
-28.4464  7.41358e+21
-28.3291  7.4423e+21
-28.2118  7.47019e+21
-28.0944  7.49731e+21
-27.9771  7.52416e+21
-27.8598  7.55019e+21
-27.7425  7.57622e+21
-27.6252  7.60128e+21
-27.5079  7.62557e+21
-27.3906  7.64848e+21
-27.2733  7.66933e+21
-27.156  7.68793e+21
-27.0387  7.70349e+21
-26.9214  7.71636e+21
-26.8041  7.72662e+21
-26.6868  7.7348e+21
-26.5695  7.7415e+21
-26.4522  7.74747e+21
-26.3349  7.75391e+21
-26.2176  7.76149e+21
-26.1003  7.77089e+21
-25.983  7.78249e+21
-25.8657  7.79648e+21
-25.7483  7.8137e+21
-25.631  7.83418e+21
-25.5137  7.8588e+21
-25.3964  7.88732e+21
-25.2791  7.91997e+21
-25.1618  7.9566e+21
-25.0445  7.99649e+21
-24.9272  8.03861e+21
-24.8099  8.08152e+21
-24.6926  8.12381e+21
-24.5753  8.16431e+21
-24.458  8.20139e+21
-24.3407  8.23445e+21
-24.2234  8.26283e+21
-24.1061  8.2866e+21
-23.9888  8.30594e+21
-23.8715  8.32167e+21
-23.7542  8.33463e+21
-23.6369  8.34562e+21
-23.5196  8.35545e+21
-23.4023  8.3651e+21
-23.2849  8.37561e+21
-23.1676  8.38727e+21
-23.0503  8.40096e+21
-22.933  8.41606e+21
-22.8157  8.43266e+21
-22.6984  8.44996e+21
-22.5811  8.46685e+21
-22.4638  8.48238e+21
-22.3465  8.49521e+21
-22.2292  8.50486e+21
-22.1119  8.51088e+21
-21.9946  8.51338e+21
-21.8773  8.51291e+21
-21.76  8.51043e+21
-21.6427  8.50729e+21
-21.5254  8.50496e+21
-21.4081  8.5043e+21
-21.2908  8.5061e+21
-21.1735  8.51103e+21
-21.0561  8.51988e+21
-20.9388  8.5328e+21
-20.8215  8.55053e+21
-20.7042  8.57265e+21
-20.5869  8.59945e+21
-20.4696  8.63025e+21
-20.3523  8.66382e+21
-20.235  8.69917e+21
-20.1177  8.73404e+21
-20.0004  8.76633e+21
-19.8831  8.79464e+21
-19.7658  8.81679e+21
-19.6485  8.83201e+21
-19.5312  8.84008e+21
-19.4139  8.84162e+21
-19.2966  8.83785e+21
-19.1793  8.8305e+21
-19.062  8.82156e+21
-18.9447  8.81303e+21
-18.8274  8.80637e+21
-18.71  8.80331e+21
-18.5927  8.80509e+21
-18.4754  8.81276e+21
-18.3581  8.82726e+21
-18.2408  8.84863e+21
-18.1235  8.8774e+21
-18.0062  8.91345e+21
-17.8889  8.95605e+21
-17.7716  9.00404e+21
-17.6543  9.05569e+21
-17.537  9.1093e+21
-17.4197  9.16255e+21
-17.3024  9.21367e+21
-17.1851  9.26071e+21
-17.0678  9.3027e+21
-16.9505  9.33917e+21
-16.8332  9.3705e+21
-16.7159  9.3967e+21
-16.5986  9.41855e+21
-16.4813  9.43679e+21
-16.364  9.45232e+21
-16.2466  9.46552e+21
-16.1293  9.47663e+21
-16.012  9.48537e+21
-15.8947  9.49178e+21
-15.7774  9.49531e+21
-15.6601  9.49489e+21
-15.5428  9.49092e+21
-15.4255  9.48215e+21
-15.3082  9.46837e+21
-15.1909  9.44997e+21
-15.0736  9.42669e+21
-14.9563  9.39927e+21
-14.839  9.36884e+21
-14.7217  9.33667e+21
-14.6044  9.30466e+21
-14.4871  9.27465e+21
-14.3698  9.24889e+21
-14.2525  9.22935e+21
-14.1352  9.21736e+21
-14.0178  9.21476e+21
-13.9005  9.2222e+21
-13.7832  9.24023e+21
-13.6659  9.26842e+21
-13.5486  9.30594e+21
-13.4313  9.35181e+21
-13.314  9.40409e+21
-13.1967  9.46131e+21
-13.0794  9.52098e+21
-12.9621  9.58097e+21
-12.8448  9.63928e+21
-12.7275  9.69406e+21
-12.6102  9.74396e+21
-12.4929  9.78772e+21
-12.3756  9.82492e+21
-12.2583  9.85548e+21
-12.141  9.88015e+21
-12.0237  9.89906e+21
-11.9064  9.91335e+21
-11.7891  9.92375e+21
-11.6718  9.93098e+21
-11.5544  9.93618e+21
-11.4371  9.9391e+21
-11.3198  9.94011e+21
-11.2025  9.9392e+21
-11.0852  9.93608e+21
-10.9679  9.92994e+21
-10.8506  9.92088e+21
-10.7333  9.90796e+21
-10.616  9.89066e+21
-10.4987  9.86913e+21
-10.3814  9.84316e+21
-10.2641  9.81361e+21
-10.1468  9.78139e+21
-10.0295  9.74791e+21
-9.91217  9.71535e+21
-9.79487  9.68545e+21
-9.67756  9.66066e+21
-9.56026  9.6426e+21
-9.44295  9.63273e+21
-9.32565  9.63236e+21
-9.20834  9.6414e+21
-9.09104  9.66006e+21
-8.97373  9.68681e+21
-8.85643  9.72033e+21
-8.73913  9.75889e+21
-8.62182  9.80018e+21
-8.50452  9.8423e+21
-8.38721  9.88307e+21
-8.26991  9.9208e+21
-8.1526  9.95392e+21
-8.03529  9.98149e+21
-7.91799  1.00034e+22
-7.80069  1.00195e+22
-7.68338  1.00308e+22
-7.56608  1.00383e+22
-7.44877  1.00437e+22
-7.33146  1.00484e+22
-7.21416  1.0054e+22
-7.09685  1.00619e+22
-6.97955  1.00726e+22
-6.86224  1.00876e+22
-6.74494  1.01058e+22
-6.62763  1.01271e+22
-6.51033  1.01508e+22
-6.39302  1.01753e+22
-6.27572  1.01993e+22
-6.15842  1.02214e+22
-6.04111  1.02398e+22
-5.92381  1.0253e+22
-5.8065  1.02598e+22
-5.68919  1.02597e+22
-5.57189  1.02525e+22
-5.45458  1.02385e+22
-5.33728  1.02187e+22
-5.21997  1.0195e+22
-5.10267  1.01685e+22
-4.98536  1.01419e+22
-4.86806  1.01165e+22
-4.75075  1.0094e+22
-4.63345  1.00756e+22
-4.51614  1.00618e+22
-4.39884  1.00531e+22
-4.28154  1.00488e+22
-4.16423  1.00492e+22
-4.04692  1.00528e+22
-3.92962  1.00592e+22
-3.81231  1.00673e+22
-3.69501  1.00761e+22
-3.5777  1.00845e+22
-3.4604  1.00912e+22
-3.34309  1.00955e+22
-3.22579  1.00969e+22
-3.10849  1.00954e+22
-2.99118  1.00917e+22
-2.87387  1.00864e+22
-2.75657  1.00814e+22
-2.63926  1.00779e+22
-2.52196  1.00776e+22
-2.40465  1.00817e+22
-2.28735  1.00904e+22
-2.17005  1.01044e+22
-2.05274  1.01221e+22
-1.93544  1.0143e+22
-1.81813  1.01661e+22
-1.70083  1.01897e+22
-1.58352  1.0213e+22
-1.46622  1.02351e+22
-1.34891  1.02553e+22
-1.2316  1.0273e+22
-1.1143  1.02877e+22
-0.996995  1.02992e+22
-0.87969  1.03073e+22
-0.762385  1.03119e+22
-0.64508  1.03132e+22
-0.527775  1.03122e+22
-0.41047  1.03092e+22
-0.293165  1.03058e+22
-0.17586  1.03027e+22
-0.058555  1.03009e+22
0.05875  1.03011e+22
0.176055  1.0303e+22
0.29336  1.03065e+22
0.410665  1.031e+22
0.52797  1.03134e+22
0.645275  1.03149e+22
0.76258  1.03138e+22
0.879885  1.03096e+22
0.99719  1.0302e+22
1.1145  1.02911e+22
1.2318  1.02767e+22
1.3491  1.02593e+22
1.46641  1.02394e+22
1.58371  1.02176e+22
1.70102  1.01946e+22
1.81832  1.0171e+22
1.93563  1.0148e+22
2.05294  1.01269e+22
2.17024  1.0109e+22
2.28754  1.00952e+22
2.40485  1.00862e+22
2.52216  1.00823e+22
2.63946  1.00822e+22
2.75677  1.00856e+22
2.87407  1.00906e+22
2.99137  1.00958e+22
3.10868  1.00997e+22
3.22599  1.01013e+22
3.34329  1.01002e+22
3.4606  1.00963e+22
3.5779  1.00899e+22
3.69521  1.00822e+22
3.81251  1.00741e+22
3.92982  1.00666e+22
4.04712  1.00608e+22
4.16443  1.00578e+22
4.28173  1.00582e+22
4.39903  1.00629e+22
4.51634  1.00719e+22
4.63364  1.0086e+22
4.75095  1.01047e+22
4.86825  1.01273e+22
4.98556  1.01529e+22
5.10286  1.01794e+22
5.22017  1.02058e+22
5.33748  1.02296e+22
5.45478  1.02492e+22
5.57209  1.02631e+22
5.68939  1.02702e+22
5.8067  1.02705e+22
5.924  1.02636e+22
6.0413  1.02505e+22
6.15861  1.02324e+22
6.27591  1.02106e+22
6.39322  1.01871e+22
6.51052  1.0163e+22
6.62783  1.01398e+22
6.74514  1.01187e+22
6.86244  1.01009e+22
6.97975  1.00868e+22
7.09705  1.00762e+22
7.21436  1.00688e+22
7.33166  1.00634e+22
7.44897  1.0059e+22
7.56627  1.0054e+22
7.68358  1.00465e+22
7.80088  1.00355e+22
7.91819  1.00193e+22
8.03549  9.99761e+21
8.1528  9.97009e+21
8.2701  9.93688e+21
8.38741  9.89928e+21
8.50471  9.8586e+21
8.62202  9.81662e+21
8.73932  9.77545e+21
8.85662  9.73705e+21
8.97393  9.7037e+21
9.09123  9.67711e+21
9.20854  9.65874e+21
9.32584  9.64976e+21
9.44315  9.65048e+21
9.56045  9.66041e+21
9.67776  9.67875e+21
9.79506  9.70369e+21
9.91237  9.7338e+21
10.0297  9.76662e+21
10.147  9.80031e+21
10.2643  9.83277e+21
10.3816  9.8625e+21
10.4989  9.88885e+21
10.6162  9.91077e+21
10.7335  9.92832e+21
10.8508  9.94164e+21
10.9681  9.95123e+21
11.0854  9.9578e+21
11.2027  9.9615e+21
11.32  9.96281e+21
11.4373  9.96199e+21
11.5546  9.95942e+21
11.6719  9.95483e+21
11.7893  9.94784e+21
11.9066  9.93764e+21
12.0239  9.92337e+21
12.1412  9.90477e+21
12.2585  9.88029e+21
12.3758  9.84968e+21
12.4931  9.81257e+21
12.6104  9.76869e+21
12.7277  9.7189e+21
12.845  9.66428e+21
12.9623  9.60588e+21
13.0796  9.54595e+21
13.1969  9.48633e+21
13.3142  9.42944e+21
13.4315  9.3772e+21
13.5488  9.33156e+21
13.6661  9.29431e+21
13.7834  9.26632e+21
13.9007  9.24854e+21
14.018  9.24136e+21
14.1354  9.24431e+21
14.2527  9.25635e+21
14.37  9.27623e+21
14.4873  9.3022e+21
14.6046  9.33244e+21
14.7219  9.36463e+21
14.8392  9.39712e+21
14.9565  9.42776e+21
15.0738  9.45529e+21
15.1911  9.47891e+21
15.3084  9.49768e+21
15.4257  9.51153e+21
15.543  9.5204e+21
15.6603  9.52484e+21
15.7776  9.52536e+21
15.8949  9.52231e+21
16.0122  9.51612e+21
16.1295  9.50731e+21
16.2468  9.49632e+21
16.3641  9.48332e+21
16.4815  9.46799e+21
16.5988  9.44959e+21
16.7161  9.42763e+21
16.8334  9.40176e+21
16.9507  9.37052e+21
17.068  9.33396e+21
17.1853  9.29194e+21
17.3026  9.24487e+21
17.4199  9.1939e+21
17.5372  9.14109e+21
17.6545  9.08776e+21
17.7718  9.03652e+21
17.8891  8.98888e+21
18.0064  8.94693e+21
18.1237  8.91135e+21
18.241  8.88304e+21
18.3583  8.86215e+21
18.4756  8.84809e+21
18.5929  8.8408e+21
18.7102  8.83941e+21
18.8275  8.84271e+21
18.9449  8.8496e+21
19.0622  8.85835e+21
19.1795  8.86741e+21
19.2968  8.87478e+21
19.4141  8.87848e+21
19.5314  8.87692e+21
19.6487  8.86869e+21
19.766  8.85326e+21
19.8833  8.83105e+21
20.0006  8.80279e+21
20.1179  8.7703e+21
20.2352  8.73535e+21
20.3525  8.70031e+21
20.4698  8.66673e+21
20.5871  8.63633e+21
20.7044  8.60979e+21
20.8217  8.58775e+21
20.939  8.57026e+21
21.0563  8.55763e+21
21.1736  8.54911e+21
21.291  8.54425e+21
21.4083  8.54277e+21
21.5256  8.54398e+21
21.6429  8.54669e+21
21.7602  8.55e+21
21.8775  8.55274e+21
21.9948  8.55338e+21
22.1121  8.55117e+21
22.2294  8.54561e+21
22.3467  8.53615e+21
22.464  8.52355e+21
22.5813  8.50821e+21
22.6986  8.49157e+21
22.8159  8.47454e+21
22.9332  8.45815e+21
23.0505  8.44326e+21
23.1678  8.42985e+21
23.2851  8.41829e+21
23.4024  8.40813e+21
23.5198  8.39845e+21
23.6371  8.3887e+21
23.7544  8.37779e+21
23.8717  8.36494e+21
23.989  8.34912e+21
24.1063  8.3297e+21
24.2236  8.30593e+21
24.3409  8.27755e+21
24.4582  8.24445e+21
24.5755  8.20737e+21
24.6928  8.16693e+21
24.8101  8.12457e+21
24.9274  8.08164e+21
25.0447  8.03972e+21
25.162  7.99995e+21
25.2793  7.96363e+21
25.3966  7.93103e+21
25.5139  7.90266e+21
25.6312  7.8783e+21
25.7485  7.85795e+21
25.8658  7.84103e+21
25.9832  7.82697e+21
26.1005  7.81571e+21
26.2178  7.80671e+21
26.3351  7.79939e+21
26.4524  7.7931e+21
26.5697  7.78737e+21
26.687  7.78092e+21
26.8043  7.77308e+21
26.9216  7.76324e+21
27.0389  7.75054e+21
27.1562  7.73517e+21
27.2735  7.71677e+21
27.3908  7.69606e+21
27.5081  7.67332e+21
27.6254  7.64902e+21
27.7427  7.62392e+21
27.86  7.59806e+21
27.9773  7.57181e+21
28.0946  7.54515e+21
28.212  7.51766e+21
28.3293  7.48971e+21
28.4466  7.46083e+21
28.5639  7.43125e+21
28.6812  7.40084e+21
28.7985  7.36987e+21
28.9158  7.33838e+21
29.0331  7.30652e+21
29.1504  7.2746e+21
29.2677  7.24299e+21
29.385  7.21219e+21
29.5023  7.18282e+21
29.6196  7.15543e+21
29.7369  7.13092e+21
29.8542  7.10972e+21
29.9715  7.09266e+21
30.0888  7.07968e+21
30.2061  7.07107e+21
30.3234  7.06634e+21
30.4407  7.06469e+21
30.558  7.0655e+21
30.6754  7.06722e+21
30.7927  7.06908e+21
30.91  7.06949e+21
31.0273  7.06725e+21
31.1446  7.06129e+21
31.2619  7.05102e+21
31.3792  7.03546e+21
31.4965  7.01459e+21
31.6138  6.98854e+21
31.7311  6.95754e+21
31.8484  6.92247e+21
31.9657  6.88424e+21
32.083  6.84374e+21
32.2003  6.80221e+21
32.3176  6.76072e+21
32.4349  6.72036e+21
32.5522  6.68196e+21
32.6695  6.64649e+21
32.7868  6.61471e+21
32.9042  6.58655e+21
33.0215  6.56305e+21
33.1388  6.54365e+21
33.2561  6.52852e+21
33.3734  6.51687e+21
33.4907  6.50789e+21
33.608  6.50065e+21
33.7253  6.49361e+21
33.8426  6.48554e+21
33.9599  6.47526e+21
34.0772  6.46182e+21
34.1945  6.44473e+21
34.3118  6.42336e+21
34.4291  6.39806e+21
34.5464  6.36926e+21
34.6637  6.33773e+21
34.781  6.3043e+21
34.8983  6.27047e+21
35.0156  6.23706e+21
35.1329  6.20521e+21
35.2503  6.17638e+21
35.3676  6.15084e+21
35.4849  6.12991e+21
35.6022  6.11329e+21
35.7195  6.10095e+21
35.8368  6.0924e+21
35.9541  6.08672e+21
36.0714  6.08272e+21
36.1887  6.0791e+21
36.306  6.07441e+21
36.4233  6.06743e+21
36.5406  6.05701e+21
36.6579  6.0424e+21
36.7752  6.02274e+21
36.8925  5.998e+21
37.0098  5.96811e+21
37.1271  5.93336e+21
37.2444  5.89435e+21
37.3617  5.85194e+21
37.479  5.80737e+21
37.5964  5.7613e+21
37.7137  5.71572e+21
37.831  5.67135e+21
37.9483  5.62954e+21
38.0656  5.59065e+21
38.1829  5.55494e+21
38.3002  5.52227e+21
38.4175  5.49176e+21
38.5348  5.46247e+21
38.6521  5.43335e+21
38.7694  5.40337e+21
38.8867  5.37214e+21
39.004  5.33902e+21
39.1213  5.30412e+21
39.2386  5.26815e+21
39.3559  5.2319e+21
39.4732  5.19646e+21
39.5905  5.16313e+21
39.7078  5.13302e+21
39.8251  5.10723e+21
39.9425  5.08727e+21
40.0598  5.07363e+21
40.1771  5.06742e+21
40.2944  5.06858e+21
40.4117  5.07713e+21
40.529  5.09219e+21
40.6463  5.1121e+21
40.7636  5.13518e+21
40.8809  5.15889e+21
40.9982  5.18046e+21
41.1155  5.19734e+21
41.2328  5.2071e+21
41.3501  5.20809e+21
41.4674  5.19908e+21
41.5847  5.18021e+21
41.702  5.15185e+21
41.8193  5.11534e+21
41.9366  5.07234e+21
42.0539  5.02515e+21
42.1712  4.97583e+21
42.2885  4.92659e+21
42.4059  4.87966e+21
42.5232  4.8369e+21
42.6405  4.79983e+21
42.7578  4.76916e+21
42.8751  4.74531e+21
42.9924  4.728e+21
43.1097  4.71606e+21
43.227  4.70745e+21
43.3443  4.69998e+21
43.4616  4.69107e+21
43.5789  4.67819e+21
43.6962  4.65916e+21
43.8135  4.63221e+21
43.9308  4.59668e+21
44.0481  4.55271e+21
44.1654  4.50119e+21
44.2827  4.44376e+21
44.4  4.38244e+21
44.5173  4.3195e+21
44.6347  4.25755e+21
44.752  4.19873e+21
44.8693  4.14526e+21
44.9866  4.09848e+21
45.1039  4.05989e+21
45.2212  4.02992e+21
45.3385  4.00845e+21
45.4558  3.99516e+21
45.5731  3.98879e+21
45.6904  3.98743e+21
45.8077  3.98939e+21
45.925  3.99208e+21
46.0423  3.99369e+21
46.1596  3.99211e+21
46.2769  3.98638e+21
46.3942  3.97574e+21
46.5115  3.96022e+21
46.6288  3.94057e+21
46.7461  3.91822e+21
46.8634  3.89459e+21
46.9808  3.87175e+21
47.0981  3.85135e+21
47.2154  3.83536e+21
47.3327  3.82488e+21
47.45  3.8206e+21
47.5673  3.82259e+21
47.6846  3.8301e+21
47.8019  3.84198e+21
47.9192  3.85589e+21
48.0365  3.86934e+21
48.1538  3.87979e+21
48.2711  3.88432e+21
48.3884  3.88084e+21
48.5057  3.86723e+21
48.623  3.84264e+21
48.7403  3.80703e+21
48.8576  3.76119e+21
48.9749  3.70659e+21
49.0922  3.64539e+21
49.2095  3.58008e+21
49.3269  3.51337e+21
49.4442  3.44794e+21
49.5615  3.38627e+21
49.6788  3.33036e+21
49.7961  3.28209e+21
49.9134  3.24245e+21
50.0307  3.21186e+21
50.148  3.19037e+21
50.2653  3.17704e+21
50.3826  3.17022e+21
50.4999  3.16833e+21
50.6172  3.16885e+21
50.7345  3.16966e+21
50.8518  3.16863e+21
50.9691  3.16423e+21
