#S 1 spectral density
#N 2
#UFWHM 30.382
#L  abscissas [um]  spectral density
-58.5938  1.70976e+20
-58.4764  1.72464e+20
-58.3591  1.73001e+20
-58.2418  1.72902e+20
-58.1245  1.72575e+20
-58.0072  1.72634e+20
-57.8899  1.7357e+20
-57.7726  1.76039e+20
-57.6553  1.80609e+20
-57.538  1.87654e+20
-57.4207  1.97375e+20
-57.3034  2.09613e+20
-57.1861  2.23839e+20
-57.0688  2.39046e+20
-56.9515  2.5416e+20
-56.8342  2.6783e+20
-56.7169  2.78869e+20
-56.5996  2.86459e+20
-56.4823  2.90185e+20
-56.365  2.90311e+20
-56.2477  2.87475e+20
-56.1303  2.82614e+20
-56.013  2.76947e+20
-55.8957  2.71368e+20
-55.7784  2.66716e+20
-55.6611  2.6304e+20
-55.5438  2.6018e+20
-55.4265  2.57552e+20
-55.3092  2.54398e+20
-55.1919  2.49787e+20
-55.0746  2.43161e+20
-54.9573  2.34026e+20
-54.84  2.22571e+20
-54.7227  2.09068e+20
-54.6054  1.94285e+20
-54.4881  1.78979e+20
-54.3708  1.64126e+20
-54.2535  1.50611e+20
-54.1362  1.3912e+20
-54.0189  1.30225e+20
-53.9016  1.24207e+20
-53.7842  1.21136e+20
-53.6669  1.20855e+20
-53.5496  1.23124e+20
-53.4323  1.27598e+20
-53.315  1.33843e+20
-53.1977  1.41478e+20
-53.0804  1.50241e+20
-52.9631  1.59817e+20
-52.8458  1.6996e+20
-52.7285  1.80613e+20
-52.6112  1.91682e+20
-52.4939  2.03118e+20
-52.3766  2.14904e+20
-52.2593  2.27101e+20
-52.142  2.39813e+20
-52.0247  2.52914e+20
-51.9074  2.66497e+20
-51.7901  2.80233e+20
-51.6728  2.93853e+20
-51.5555  3.06788e+20
-51.4381  3.18344e+20
-51.3208  3.27676e+20
-51.2035  3.3383e+20
-51.0862  3.36261e+20
-50.9689  3.34415e+20
-50.8516  3.28296e+20
-50.7343  3.18359e+20
-50.617  3.05506e+20
-50.4997  2.90952e+20
-50.3824  2.76091e+20
-50.2651  2.62415e+20
-50.1478  2.51215e+20
-50.0305  2.43481e+20
-49.9132  2.39861e+20
-49.7959  2.40418e+20
-49.6786  2.44991e+20
-49.5613  2.52889e+20
-49.444  2.63233e+20
-49.3267  2.74915e+20
-49.2094  2.86797e+20
-49.092  2.97739e+20
-48.9747  3.0677e+20
-48.8574  3.13119e+20
-48.7401  3.1658e+20
-48.6228  3.17263e+20
-48.5055  3.15846e+20
-48.3882  3.13541e+20
-48.2709  3.11561e+20
-48.1536  3.1136e+20
-48.0363  3.14183e+20
-47.919  3.20789e+20
-47.8017  3.31299e+20
-47.6844  3.45283e+20
-47.5671  3.61605e+20
-47.4498  3.788e+20
-47.3325  3.95227e+20
-47.2152  4.09264e+20
-47.0979  4.19762e+20
-46.9806  4.25852e+20
-46.8633  4.27267e+20
-46.7459  4.24469e+20
-46.6286  4.18013e+20
-46.5113  4.09016e+20
-46.394  3.98339e+20
-46.2767  3.87303e+20
-46.1594  3.7686e+20
-46.0421  3.67711e+20
-45.9248  3.6041e+20
-45.8075  3.55256e+20
-45.6902  3.52114e+20
-45.5729  3.50841e+20
-45.4556  3.50781e+20
-45.3383  3.5156e+20
-45.221  3.52587e+20
-45.1037  3.53662e+20
-44.9864  3.54991e+20
-44.8691  3.56811e+20
-44.7518  3.59889e+20
-44.6345  3.65112e+20
-44.5172  3.73332e+20
-44.3998  3.85106e+20
-44.2825  4.00601e+20
-44.1652  4.19356e+20
-44.0479  4.40498e+20
-43.9306  4.62631e+20
-43.8133  4.84192e+20
-43.696  5.03632e+20
-43.5787  5.19686e+20
-43.4614  5.3149e+20
-43.3441  5.38715e+20
-43.2268  5.41432e+20
-43.1095  5.40298e+20
-42.9922  5.36072e+20
-42.8749  5.29789e+20
-42.7576  5.2242e+20
-42.6403  5.15259e+20
-42.523  5.09253e+20
-42.4057  5.05472e+20
-42.2884  5.04622e+20
-42.171  5.07402e+20
-42.0537  5.14043e+20
-41.9364  5.24318e+20
-41.8191  5.3763e+20
-41.7018  5.5268e+20
-41.5845  5.68246e+20
-41.4672  5.82652e+20
-41.3499  5.94533e+20
-41.2326  6.02847e+20
-41.1153  6.07119e+20
-40.998  6.07641e+20
-40.8807  6.05147e+20
-40.7634  6.00831e+20
-40.6461  5.96307e+20
-40.5288  5.92812e+20
-40.4115  5.91639e+20
-40.2942  5.9361e+20
-40.1769  5.9876e+20
-40.0596  6.06883e+20
-39.9423  6.1729e+20
-39.825  6.28699e+20
-39.7076  6.40055e+20
-39.5903  6.49823e+20
-39.473  6.56875e+20
-39.3557  6.60306e+20
-39.2384  6.59446e+20
-39.1211  6.54172e+20
-39.0038  6.44908e+20
-38.8865  6.3281e+20
-38.7692  6.19472e+20
-38.6519  6.07131e+20
-38.5346  5.97866e+20
-38.4173  5.94097e+20
-38.3  5.97474e+20
-38.1827  6.09014e+20
-38.0654  6.28835e+20
-37.9481  6.55921e+20
-37.8308  6.88606e+20
-37.7135  7.24261e+20
-37.5962  7.60126e+20
-37.4789  7.93747e+20
-37.3615  8.22568e+20
-37.2442  8.45285e+20
-37.1269  8.61171e+20
-37.0096  8.70188e+20
-36.8923  8.73331e+20
-36.775  8.71709e+20
-36.6577  8.67122e+20
-36.5404  8.61029e+20
-36.4231  8.54723e+20
-36.3058  8.49559e+20
-36.1885  8.4587e+20
-36.0712  8.44032e+20
-35.9539  8.43462e+20
-35.8366  8.43555e+20
-35.7193  8.43243e+20
-35.602  8.41302e+20
-35.4847  8.36464e+20
-35.3674  8.27843e+20
-35.2501  8.14568e+20
-35.1328  7.96619e+20
-35.0154  7.74586e+20
-34.8981  7.49444e+20
-34.7808  7.2269e+20
-34.6635  6.96271e+20
-34.5462  6.7212e+20
-34.4289  6.51824e+20
-34.3116  6.36962e+20
-34.1943  6.28316e+20
-34.077  6.26262e+20
-33.9597  6.30765e+20
-33.8424  6.40951e+20
-33.7251  6.55986e+20
-33.6078  6.74653e+20
-33.4905  6.95731e+20
-33.3732  7.18141e+20
-33.2559  7.40799e+20
-33.1386  7.63271e+20
-33.0213  7.85176e+20
-32.904  8.06687e+20
-32.7867  8.28529e+20
-32.6693  8.51461e+20
-32.552  8.76655e+20
-32.4347  9.05288e+20
-32.3174  9.38074e+20
-32.2001  9.75666e+20
-32.0828  1.01788e+21
-31.9655  1.06416e+21
-31.8482  1.11325e+21
-31.7309  1.16329e+21
-31.6136  1.21262e+21
-31.4963  1.25922e+21
-31.379  1.30158e+21
-31.2617  1.33826e+21
-31.1444  1.3689e+21
-31.0271  1.39362e+21
-30.9098  1.41302e+21
-30.7925  1.42836e+21
-30.6752  1.44092e+21
-30.5579  1.45202e+21
-30.4406  1.46313e+21
-30.3232  1.47504e+21
-30.2059  1.48836e+21
-30.0886  1.50278e+21
-29.9713  1.51775e+21
-29.854  1.5323e+21
-29.7367  1.54524e+21
-29.6194  1.55547e+21
-29.5021  1.56199e+21
-29.3848  1.56457e+21
-29.2675  1.56338e+21
-29.1502  1.55923e+21
-29.0329  1.55333e+21
-28.9156  1.54761e+21
-28.7983  1.54374e+21
-28.681  1.54351e+21
-28.5637  1.54845e+21
-28.4464  1.55965e+21
-28.3291  1.57767e+21
-28.2118  1.60258e+21
-28.0944  1.63405e+21
-27.9771  1.67148e+21
-27.8598  1.71386e+21
-27.7425  1.76033e+21
-27.6252  1.80982e+21
-27.5079  1.86145e+21
-27.3906  1.91462e+21
-27.2733  1.969e+21
-27.156  2.02504e+21
-27.0387  2.08331e+21
-26.9214  2.14496e+21
-26.8041  2.21145e+21
-26.6868  2.28394e+21
-26.5695  2.36336e+21
-26.4522  2.4497e+21
-26.3349  2.54247e+21
-26.2176  2.63963e+21
-26.1003  2.73898e+21
-25.983  2.83691e+21
-25.8657  2.93014e+21
-25.7483  3.01564e+21
-25.631  3.09057e+21
-25.5137  3.15352e+21
-25.3964  3.20411e+21
-25.2791  3.24271e+21
-25.1618  3.27139e+21
-25.0445  3.29303e+21
-24.9272  3.3108e+21
-24.8099  3.32857e+21
-24.6926  3.35061e+21
-24.5753  3.38063e+21
-24.458  3.4221e+21
-24.3407  3.47745e+21
-24.2234  3.54855e+21
-24.1061  3.63526e+21
-23.9888  3.73629e+21
-23.8715  3.84921e+21
-23.7542  3.97013e+21
-23.6369  4.09458e+21
-23.5196  4.21802e+21
-23.4023  4.33645e+21
-23.2849  4.44678e+21
-23.1676  4.54723e+21
-23.0503  4.63774e+21
-22.933  4.72002e+21
-22.8157  4.79644e+21
-22.6984  4.87076e+21
-22.5811  4.94655e+21
-22.4638  5.02825e+21
-22.3465  5.11905e+21
-22.2292  5.22186e+21
-22.1119  5.33817e+21
-21.9946  5.46866e+21
-21.8773  5.61252e+21
-21.76  5.76708e+21
-21.6427  5.92903e+21
-21.5254  6.09338e+21
-21.4081  6.25554e+21
-21.2908  6.40975e+21
-21.1735  6.55169e+21
-21.0561  6.67814e+21
-20.9388  6.7872e+21
-20.8215  6.87934e+21
-20.7042  6.95667e+21
-20.5869  7.02261e+21
-20.4696  7.0823e+21
-20.3523  7.14105e+21
-20.235  7.20376e+21
-20.1177  7.27467e+21
-20.0004  7.35743e+21
-19.8831  7.45429e+21
-19.7658  7.56623e+21
-19.6485  7.69325e+21
-19.5312  7.83489e+21
-19.4139  7.98953e+21
-19.2966  8.15518e+21
-19.1793  8.32991e+21
-19.062  8.51062e+21
-18.9447  8.69464e+21
-18.8274  8.87917e+21
-18.71  9.06196e+21
-18.5927  9.24084e+21
-18.4754  9.4146e+21
-18.3581  9.5826e+21
-18.2408  9.74573e+21
-18.1235  9.90408e+21
-18.0062  1.00589e+22
-17.8889  1.02106e+22
-17.7716  1.03604e+22
-17.6543  1.05074e+22
-17.537  1.06518e+22
-17.4197  1.0792e+22
-17.3024  1.09276e+22
-17.1851  1.10578e+22
-17.0678  1.11826e+22
-16.9505  1.13026e+22
-16.8332  1.14195e+22
-16.7159  1.15358e+22
-16.5986  1.16544e+22
-16.4813  1.17787e+22
-16.364  1.19121e+22
-16.2466  1.20577e+22
-16.1293  1.2218e+22
-16.012  1.23944e+22
-15.8947  1.25874e+22
-15.7774  1.27966e+22
-15.6601  1.30201e+22
-15.5428  1.3255e+22
-15.4255  1.34974e+22
-15.3082  1.37426e+22
-15.1909  1.39863e+22
-15.0736  1.42233e+22
-14.9563  1.44496e+22
-14.839  1.46621e+22
-14.7217  1.48589e+22
-14.6044  1.50387e+22
-14.4871  1.52032e+22
-14.3698  1.53533e+22
-14.2525  1.5492e+22
-14.1352  1.56225e+22
-14.0178  1.57486e+22
-13.9005  1.58731e+22
-13.7832  1.59991e+22
-13.6659  1.61286e+22
-13.5486  1.62632e+22
-13.4313  1.64027e+22
-13.314  1.65467e+22
-13.1967  1.66939e+22
-13.0794  1.68428e+22
-12.9621  1.69904e+22
-12.8448  1.71349e+22
-12.7275  1.72738e+22
-12.6102  1.74059e+22
-12.4929  1.75304e+22
-12.3756  1.76472e+22
-12.2583  1.77574e+22
-12.141  1.78631e+22
-12.0237  1.79661e+22
-11.9064  1.80691e+22
-11.7891  1.81751e+22
-11.6718  1.82861e+22
-11.5544  1.84047e+22
-11.4371  1.85327e+22
-11.3198  1.86707e+22
-11.2025  1.88196e+22
-11.0852  1.89792e+22
-10.9679  1.91491e+22
-10.8506  1.93286e+22
-10.7333  1.95163e+22
-10.616  1.97104e+22
-10.4987  1.99103e+22
-10.3814  2.01137e+22
-10.2641  2.03195e+22
-10.1468  2.05263e+22
-10.0295  2.07333e+22
-9.91217  2.09388e+22
-9.79487  2.11423e+22
-9.67756  2.13421e+22
-9.56026  2.15367e+22
-9.44295  2.17244e+22
-9.32565  2.19036e+22
-9.20834  2.2072e+22
-9.09104  2.2228e+22
-8.97373  2.23703e+22
-8.85643  2.24982e+22
-8.73913  2.26112e+22
-8.62182  2.27106e+22
-8.50452  2.27982e+22
-8.38721  2.28765e+22
-8.26991  2.29483e+22
-8.1526  2.30169e+22
-8.03529  2.3085e+22
-7.91799  2.31553e+22
-7.80069  2.323e+22
-7.68338  2.33096e+22
-7.56608  2.33946e+22
-7.44877  2.34843e+22
-7.33146  2.35762e+22
-7.21416  2.36678e+22
-7.09685  2.37563e+22
-6.97955  2.38379e+22
-6.86224  2.39098e+22
-6.74494  2.39704e+22
-6.62763  2.40173e+22
-6.51033  2.40515e+22
-6.39302  2.40742e+22
-6.27572  2.40881e+22
-6.15842  2.40977e+22
-6.04111  2.41074e+22
-5.92381  2.41223e+22
-5.8065  2.41483e+22
-5.68919  2.41896e+22
-5.57189  2.42502e+22
-5.45458  2.43325e+22
-5.33728  2.44382e+22
-5.21997  2.45662e+22
-5.10267  2.47148e+22
-4.98536  2.48803e+22
-4.86806  2.50578e+22
-4.75075  2.52418e+22
-4.63345  2.54266e+22
-4.51614  2.56066e+22
-4.39884  2.57771e+22
-4.28154  2.59355e+22
-4.16423  2.60797e+22
-4.04692  2.62096e+22
-3.92962  2.63272e+22
-3.81231  2.64354e+22
-3.69501  2.65368e+22
-3.5777  2.66351e+22
-3.4604  2.6733e+22
-3.34309  2.68324e+22
-3.22579  2.69337e+22
-3.10849  2.70368e+22
-2.99118  2.71397e+22
-2.87387  2.72401e+22
-2.75657  2.73348e+22
-2.63926  2.74192e+22
-2.52196  2.74893e+22
-2.40465  2.75407e+22
-2.28735  2.7569e+22
-2.17005  2.75712e+22
-2.05274  2.75457e+22
-1.93544  2.74911e+22
-1.81813  2.74099e+22
-1.70083  2.73045e+22
-1.58352  2.718e+22
-1.46622  2.70421e+22
-1.34891  2.68972e+22
-1.2316  2.67513e+22
-1.1143  2.66101e+22
-0.996995  2.64776e+22
-0.87969  2.63577e+22
-0.762385  2.62513e+22
-0.64508  2.61605e+22
-0.527775  2.60851e+22
-0.41047  2.60249e+22
-0.293165  2.59799e+22
-0.17586  2.59499e+22
-0.058555  2.59351e+22
0.05875  2.5935e+22
0.176055  2.59497e+22
0.29336  2.59791e+22
0.410665  2.60239e+22
0.52797  2.60834e+22
0.645275  2.61581e+22
0.76258  2.62481e+22
0.879885  2.63531e+22
0.99719  2.64717e+22
1.1145  2.66025e+22
1.2318  2.67417e+22
1.3491  2.68859e+22
1.46641  2.70285e+22
1.58371  2.71641e+22
1.70102  2.72862e+22
1.81832  2.7389e+22
1.93563  2.74677e+22
2.05294  2.75195e+22
2.17024  2.7543e+22
2.28754  2.75388e+22
2.40485  2.75083e+22
2.52216  2.74551e+22
2.63946  2.73834e+22
2.75677  2.72971e+22
2.87407  2.7201e+22
2.99137  2.7099e+22
3.10868  2.69943e+22
3.22599  2.68896e+22
3.34329  2.67867e+22
3.4606  2.66858e+22
3.5779  2.6586e+22
3.69521  2.64856e+22
3.81251  2.63823e+22
3.92982  2.62719e+22
4.04712  2.61521e+22
4.16443  2.602e+22
4.28173  2.58737e+22
4.39903  2.57135e+22
4.51634  2.55409e+22
4.63364  2.53594e+22
4.75095  2.5173e+22
4.86825  2.49876e+22
4.98556  2.48089e+22
5.10286  2.46426e+22
5.22017  2.4493e+22
5.33748  2.43642e+22
5.45478  2.4258e+22
5.57209  2.4175e+22
5.68939  2.41134e+22
5.8067  2.40713e+22
5.924  2.40443e+22
6.0413  2.40282e+22
6.15861  2.40173e+22
6.27591  2.40065e+22
6.39322  2.39911e+22
6.51052  2.39671e+22
6.62783  2.39314e+22
6.74514  2.38827e+22
6.86244  2.38214e+22
6.97975  2.3748e+22
7.09705  2.36653e+22
7.21436  2.3576e+22
7.33166  2.34833e+22
7.44897  2.33906e+22
7.56627  2.33005e+22
7.68358  2.32147e+22
7.80088  2.31341e+22
7.91819  2.30586e+22
8.03549  2.29872e+22
8.1528  2.29183e+22
8.2701  2.28484e+22
8.38741  2.2775e+22
8.50471  2.26952e+22
8.62202  2.26056e+22
8.73932  2.25039e+22
8.85662  2.23889e+22
8.97393  2.2259e+22
9.09123  2.21146e+22
9.20854  2.19564e+22
9.32584  2.1786e+22
9.44315  2.16047e+22
9.56045  2.1415e+22
9.67776  2.12187e+22
9.79506  2.10174e+22
9.91237  2.08124e+22
10.0297  2.06057e+22
10.147  2.03978e+22
10.2643  2.01903e+22
10.3816  1.99837e+22
10.4989  1.97798e+22
10.6162  1.95798e+22
10.7335  1.93852e+22
10.8508  1.91975e+22
10.9681  1.90178e+22
11.0854  1.8848e+22
11.2027  1.86883e+22
11.32  1.85392e+22
11.4373  1.8401e+22
11.5546  1.82731e+22
11.6719  1.81541e+22
11.7893  1.80427e+22
11.9066  1.79368e+22
12.0239  1.7833e+22
12.1412  1.77297e+22
12.2585  1.76238e+22
12.3758  1.75131e+22
12.4931  1.73959e+22
12.6104  1.72709e+22
12.7277  1.71385e+22
12.845  1.69994e+22
12.9623  1.68547e+22
13.0796  1.67068e+22
13.1969  1.6558e+22
13.3142  1.64107e+22
13.4315  1.62661e+22
13.5488  1.61268e+22
13.6661  1.59921e+22
13.7834  1.58623e+22
13.9007  1.5736e+22
14.018  1.56111e+22
14.1354  1.54847e+22
14.2527  1.53534e+22
14.37  1.52142e+22
14.4873  1.50633e+22
14.6046  1.48982e+22
14.7219  1.47176e+22
14.8392  1.45202e+22
14.9565  1.43073e+22
15.0738  1.40806e+22
15.1911  1.38434e+22
15.3084  1.35997e+22
15.4257  1.33543e+22
15.543  1.31123e+22
15.6603  1.28775e+22
15.7776  1.26546e+22
15.8949  1.24459e+22
16.0122  1.22533e+22
16.1295  1.20774e+22
16.2468  1.19178e+22
16.3641  1.17726e+22
16.4815  1.16398e+22
16.5988  1.15162e+22
16.7161  1.13978e+22
16.8334  1.12821e+22
16.9507  1.11656e+22
17.068  1.10461e+22
17.1853  1.09218e+22
17.3026  1.0792e+22
17.4199  1.06571e+22
17.5372  1.05173e+22
17.6545  1.03737e+22
17.7718  1.02273e+22
17.8891  1.00784e+22
18.0064  9.92743e+21
18.1237  9.77349e+21
18.241  9.61618e+21
18.3583  9.45419e+21
18.4756  9.28701e+21
18.5929  9.11449e+21
18.7102  8.93695e+21
18.8275  8.75567e+21
18.9449  8.57245e+21
19.0622  8.39016e+21
19.1795  8.21103e+21
19.2968  8.03805e+21
19.4141  7.87395e+21
19.5314  7.72088e+21
19.6487  7.58083e+21
19.766  7.4552e+21
19.8833  7.34461e+21
20.0006  7.24884e+21
20.1179  7.16692e+21
20.2352  7.09686e+21
20.3525  7.03476e+21
20.4698  6.97668e+21
20.5871  6.91734e+21
20.7044  6.85159e+21
20.8217  6.77465e+21
20.939  6.68285e+21
21.0563  6.57398e+21
21.1736  6.44823e+21
21.291  6.30695e+21
21.4083  6.15353e+21
21.5256  5.99277e+21
21.6429  5.82953e+21
21.7602  5.66924e+21
21.8775  5.51626e+21
21.9948  5.37421e+21
22.1121  5.24542e+21
22.2294  5.1305e+21
22.3467  5.02929e+21
22.464  4.94001e+21
22.5813  4.85964e+21
22.6986  4.78504e+21
22.8159  4.71197e+21
22.9332  4.63652e+21
23.0505  4.55525e+21
23.1678  4.46559e+21
23.2851  4.36617e+21
23.4024  4.25692e+21
23.5198  4.13965e+21
23.6371  4.01745e+21
23.7544  3.89443e+21
23.8717  3.77502e+21
23.989  3.66361e+21
24.1063  3.56407e+21
24.2236  3.47903e+21
24.3409  3.40951e+21
24.4582  3.35555e+21
24.5755  3.31543e+21
24.6928  3.28657e+21
24.8101  3.26563e+21
24.9274  3.2488e+21
25.0447  3.23194e+21
25.162  3.21123e+21
25.2793  3.18325e+21
25.3966  3.14533e+21
25.5139  3.09572e+21
25.6312  3.03356e+21
25.7485  2.95937e+21
25.8658  2.87501e+21
25.9832  2.78267e+21
26.1005  2.68592e+21
26.2178  2.588e+21
26.3351  2.49203e+21
26.4524  2.40072e+21
26.5697  2.31572e+21
26.687  2.23774e+21
26.8043  2.16663e+21
26.9216  2.10145e+21
27.0389  2.04103e+21
27.1562  1.984e+21
27.2735  1.92912e+21
27.3908  1.87588e+21
27.5081  1.82389e+21
27.6254  1.77333e+21
27.7427  1.72496e+21
27.86  1.67956e+21
27.9773  1.63821e+21
28.0946  1.60185e+21
28.212  1.57133e+21
28.3293  1.54744e+21
28.4466  1.53028e+21
28.5639  1.51995e+21
28.6812  1.51571e+21
28.7985  1.51657e+21
28.9158  1.52112e+21
29.0331  1.52742e+21
29.1504  1.53384e+21
29.2677  1.53849e+21
29.385  1.54019e+21
29.5023  1.5381e+21
29.6196  1.53207e+21
29.7369  1.52244e+21
29.8542  1.51008e+21
29.9715  1.49622e+21
30.0888  1.48183e+21
30.2061  1.46807e+21
30.3234  1.45544e+21
30.4407  1.44411e+21
30.558  1.43362e+21
30.6754  1.42288e+21
30.7927  1.41092e+21
30.91  1.39613e+21
31.0273  1.37706e+21
31.1446  1.35273e+21
31.2619  1.32249e+21
31.3792  1.2861e+21
31.4965  1.24437e+21
31.6138  1.19837e+21
31.7311  1.14965e+21
31.8484  1.10019e+21
31.9657  1.05179e+21
32.083  1.00623e+21
32.2003  9.64682e+20
32.3176  9.27787e+20
32.4349  8.95592e+20
32.5522  8.67539e+20
32.6695  8.42774e+20
32.7868  8.20296e+20
32.9042  7.98903e+20
33.0215  7.77684e+20
33.1388  7.56113e+20
33.2561  7.3393e+20
33.3734  7.11619e+20
33.4907  6.89624e+20
33.608  6.68899e+20
33.7253  6.50606e+20
33.8426  6.35993e+20
33.9599  6.26228e+20
34.0772  6.22238e+20
34.1945  6.24656e+20
34.3118  6.3363e+20
34.4291  6.48791e+20
34.5464  6.69368e+20
34.6637  6.93843e+20
34.781  7.20324e+20
34.8983  7.47027e+20
35.0156  7.72137e+20
35.1329  7.94141e+20
35.2503  8.11952e+20
35.3676  8.25119e+20
35.4849  8.33735e+20
35.6022  8.3852e+20
35.7195  8.40494e+20
35.8368  8.40769e+20
35.9541  8.40739e+20
36.0714  8.41329e+20
36.1887  8.43393e+20
36.306  8.47174e+20
36.4233  8.52462e+20
36.5406  8.58734e+20
36.6579  8.64811e+20
36.7752  8.6928e+20
36.8925  8.7076e+20
37.0098  8.67473e+20
37.1271  8.58217e+20
37.2444  8.42173e+20
37.3617  8.19213e+20
37.479  7.90217e+20
37.5964  7.56566e+20
37.7137  7.20634e+20
37.831  6.85063e+20
37.9483  6.52528e+20
38.0656  6.25704e+20
38.1829  6.06129e+20
38.3002  5.94794e+20
38.4175  5.91672e+20
38.5348  5.95523e+20
38.6521  6.04832e+20
38.7694  6.17206e+20
38.8867  6.30438e+20
39.004  6.42355e+20
39.1213  6.51408e+20
39.2386  6.56591e+20
39.3559  6.57296e+20
39.4732  6.53795e+20
39.5905  6.46597e+20
39.7078  6.36744e+20
39.8251  6.25414e+20
39.9425  6.14018e+20
40.0598  6.03773e+20
40.1771  5.95698e+20
40.2944  5.90578e+20
40.4117  5.888e+20
40.529  5.89899e+20
40.6463  5.93328e+20
40.7636  5.97883e+20
40.8809  6.02075e+20
40.9982  6.0452e+20
41.1155  6.03799e+20
41.2328  5.99309e+20
41.3501  5.9083e+20
41.4674  5.78808e+20
41.5847  5.64342e+20
41.702  5.48712e+20
41.8193  5.33683e+20
41.9366  5.20467e+20
42.0539  5.10289e+20
42.1712  5.03831e+20
42.2885  5.011e+20
42.4059  5.02022e+20
42.5232  5.05934e+20
42.6405  5.12044e+20
42.7578  5.19248e+20
42.8751  5.26541e+20
42.9924  5.32862e+20
43.1097  5.37132e+20
43.227  5.38156e+20
43.3443  5.35385e+20
43.4616  5.28069e+20
43.5789  5.16215e+20
43.6962  5.0005e+20
43.8135  4.80598e+20
43.9308  4.59024e+20
44.0481  4.36893e+20
44.1654  4.15883e+20
44.2827  3.97205e+20
44.4  3.81837e+20
44.5173  3.70209e+20
44.6347  3.62126e+20
44.752  3.56985e+20
44.8693  3.53954e+20
44.9866  3.52205e+20
45.1039  3.50984e+20
45.2212  3.49909e+20
45.3385  3.48913e+20
45.4558  3.48218e+20
45.5731  3.48322e+20
45.6904  3.49795e+20
45.8077  3.52943e+20
45.925  3.58226e+20
46.0423  3.6558e+20
46.1596  3.7485e+20
46.2769  3.85344e+20
46.3942  3.96377e+20
46.5115  4.06975e+20
46.6288  4.15961e+20
46.7461  4.22309e+20
46.8634  4.25064e+20
46.9808  4.23474e+20
47.0981  4.1731e+20
47.2154  4.06749e+20
47.3327  3.92697e+20
47.45  3.76238e+20
47.5673  3.59104e+20
47.6846  3.42905e+20
47.8019  3.2912e+20
47.9192  3.18728e+20
48.0365  3.12327e+20
48.1538  3.09647e+20
48.2711  3.09931e+20
48.3884  3.11919e+20
48.5057  3.14304e+20
48.623  3.15631e+20
48.7403  3.14868e+20
48.8576  3.11296e+20
48.9749  3.04818e+20
49.0922  2.95762e+20
49.2095  2.84832e+20
49.3269  2.72985e+20
49.4442  2.61366e+20
49.5615  2.51083e+20
49.6788  2.43379e+20
49.7961  2.38984e+20
49.9134  2.38597e+20
50.0307  2.42435e+20
50.148  2.50277e+20
50.2653  2.61581e+20
50.3826  2.75343e+20
50.4999  2.90199e+20
50.6172  3.04755e+20
50.7345  3.17582e+20
50.8518  3.27413e+20
