#S 1 spectral density
#N 2
#UFWHM 63.5793
#L  abscissas [um]  spectral density
-58.5938  9.98672e+20
-58.4764  1.01745e+21
-58.3591  1.03525e+21
-58.2418  1.05059e+21
-58.1245  1.06206e+21
-58.0072  1.06865e+21
-57.8899  1.06989e+21
-57.7726  1.0659e+21
-57.6553  1.05752e+21
-57.538  1.04606e+21
-57.4207  1.03326e+21
-57.3034  1.02095e+21
-57.1861  1.0107e+21
-57.0688  1.00373e+21
-56.9515  1.00063e+21
-56.8342  1.0015e+21
-56.7169  1.00583e+21
-56.5996  1.01297e+21
-56.4823  1.02188e+21
-56.365  1.03169e+21
-56.2477  1.04174e+21
-56.1303  1.05178e+21
-56.013  1.06155e+21
-55.8957  1.07141e+21
-55.7784  1.08176e+21
-55.6611  1.09313e+21
-55.5438  1.10621e+21
-55.4265  1.12153e+21
-55.3092  1.1399e+21
-55.1919  1.16167e+21
-55.0746  1.18722e+21
-54.9573  1.21665e+21
-54.84  1.24974e+21
-54.7227  1.28605e+21
-54.6054  1.3244e+21
-54.4881  1.3638e+21
-54.3708  1.40275e+21
-54.2535  1.43959e+21
-54.1362  1.47267e+21
-54.0189  1.50073e+21
-53.9016  1.52259e+21
-53.7842  1.53772e+21
-53.6669  1.54586e+21
-53.5496  1.54761e+21
-53.4323  1.54372e+21
-53.315  1.53557e+21
-53.1977  1.52477e+21
-53.0804  1.51293e+21
-52.9631  1.50161e+21
-52.8458  1.49218e+21
-52.7285  1.48566e+21
-52.6112  1.48254e+21
-52.4939  1.48294e+21
-52.3766  1.48644e+21
-52.2593  1.49234e+21
-52.142  1.49986e+21
-52.0247  1.50806e+21
-51.9074  1.51641e+21
-51.7901  1.52434e+21
-51.6728  1.53167e+21
-51.5555  1.53877e+21
-51.4381  1.54622e+21
-51.3208  1.55474e+21
-51.2035  1.56554e+21
-51.0862  1.57978e+21
-50.9689  1.59872e+21
-50.8516  1.6235e+21
-50.7343  1.655e+21
-50.617  1.69389e+21
-50.4997  1.73992e+21
-50.3824  1.79253e+21
-50.2651  1.85027e+21
-50.1478  1.91114e+21
-50.0305  1.97271e+21
-49.9132  2.03207e+21
-49.7959  2.08671e+21
-49.6786  2.13445e+21
-49.5613  2.17356e+21
-49.444  2.20324e+21
-49.3267  2.2236e+21
-49.2094  2.2353e+21
-49.092  2.24011e+21
-48.9747  2.23962e+21
-48.8574  2.23609e+21
-48.7401  2.23161e+21
-48.6228  2.22813e+21
-48.5055  2.22734e+21
-48.3882  2.23058e+21
-48.2709  2.23857e+21
-48.1536  2.25167e+21
-48.0363  2.26998e+21
-47.919  2.29275e+21
-47.8017  2.31919e+21
-47.6844  2.34799e+21
-47.5671  2.37782e+21
-47.4498  2.40743e+21
-47.3325  2.43564e+21
-47.2152  2.46204e+21
-47.0979  2.48623e+21
-46.9806  2.5084e+21
-46.8633  2.5295e+21
-46.7459  2.55041e+21
-46.6286  2.57203e+21
-46.5113  2.59547e+21
-46.394  2.62141e+21
-46.2767  2.65044e+21
-46.1594  2.68256e+21
-46.0421  2.7177e+21
-45.9248  2.75532e+21
-45.8075  2.79443e+21
-45.6902  2.8341e+21
-45.5729  2.87296e+21
-45.4556  2.90976e+21
-45.3383  2.94336e+21
-45.221  2.9726e+21
-45.1037  2.99708e+21
-44.9864  3.01682e+21
-44.8691  3.03218e+21
-44.7518  3.04424e+21
-44.6345  3.05448e+21
-44.5172  3.06423e+21
-44.3998  3.0754e+21
-44.2825  3.08887e+21
-44.1652  3.10548e+21
-44.0479  3.12569e+21
-43.9306  3.14929e+21
-43.8133  3.17586e+21
-43.696  3.20504e+21
-43.5787  3.23597e+21
-43.4614  3.2682e+21
-43.3441  3.30172e+21
-43.2268  3.33599e+21
-43.1095  3.37107e+21
-42.9922  3.4068e+21
-42.8749  3.44306e+21
-42.7576  3.47956e+21
-42.6403  3.51607e+21
-42.523  3.55264e+21
-42.4057  3.58894e+21
-42.2884  3.6247e+21
-42.171  3.66036e+21
-42.0537  3.69557e+21
-41.9364  3.72988e+21
-41.8191  3.76288e+21
-41.7018  3.79332e+21
-41.5845  3.82048e+21
-41.4672  3.8429e+21
-41.3499  3.85982e+21
-41.2326  3.87068e+21
-41.1153  3.87533e+21
-40.998  3.87484e+21
-40.8807  3.87045e+21
-40.7634  3.86433e+21
-40.6461  3.85895e+21
-40.5288  3.85665e+21
-40.4115  3.86021e+21
-40.2942  3.87187e+21
-40.1769  3.8932e+21
-40.0596  3.92547e+21
-39.9423  3.96919e+21
-39.825  4.02403e+21
-39.7076  4.08945e+21
-39.5903  4.16347e+21
-39.473  4.24366e+21
-39.3557  4.32719e+21
-39.2384  4.4104e+21
-39.1211  4.48973e+21
-39.0038  4.56203e+21
-38.8865  4.62408e+21
-38.7692  4.67398e+21
-38.6519  4.71138e+21
-38.5346  4.73622e+21
-38.4173  4.7503e+21
-38.3  4.75614e+21
-38.1827  4.75699e+21
-38.0654  4.75598e+21
-37.9481  4.75636e+21
-37.8308  4.76093e+21
-37.7135  4.77142e+21
-37.5962  4.78871e+21
-37.4789  4.81365e+21
-37.3615  4.8455e+21
-37.2442  4.88328e+21
-37.1269  4.92569e+21
-37.0096  4.97063e+21
-36.8923  5.01677e+21
-36.775  5.06207e+21
-36.6577  5.10527e+21
-36.5404  5.14529e+21
-36.4231  5.18147e+21
-36.3058  5.21422e+21
-36.1885  5.24398e+21
-36.0712  5.27203e+21
-35.9539  5.29997e+21
-35.8366  5.32921e+21
-35.7193  5.36155e+21
-35.602  5.39832e+21
-35.4847  5.44012e+21
-35.3674  5.48708e+21
-35.2501  5.53867e+21
-35.1328  5.59388e+21
-35.0154  5.65165e+21
-34.8981  5.71019e+21
-34.7808  5.76753e+21
-34.6635  5.82242e+21
-34.5462  5.87317e+21
-34.4289  5.91876e+21
-34.3116  5.95882e+21
-34.1943  5.99296e+21
-34.077  6.02175e+21
-33.9597  6.04665e+21
-33.8424  6.06853e+21
-33.7251  6.08943e+21
-33.6078  6.11112e+21
-33.4905  6.13525e+21
-33.3732  6.16302e+21
-33.2559  6.19521e+21
-33.1386  6.23193e+21
-33.0213  6.27255e+21
-32.904  6.31557e+21
-32.7867  6.36013e+21
-32.6693  6.40431e+21
-32.552  6.44669e+21
-32.4347  6.48625e+21
-32.3174  6.52168e+21
-32.2001  6.55317e+21
-32.0828  6.58057e+21
-31.9655  6.60463e+21
-31.8482  6.62628e+21
-31.7309  6.64633e+21
-31.6136  6.66638e+21
-31.4963  6.68737e+21
-31.379  6.71018e+21
-31.2617  6.73544e+21
-31.1444  6.76319e+21
-31.0271  6.79353e+21
-30.9098  6.82615e+21
-30.7925  6.86011e+21
-30.6752  6.8946e+21
-30.5579  6.92878e+21
-30.4406  6.96212e+21
-30.3232  6.99483e+21
-30.2059  7.02717e+21
-30.0886  7.05946e+21
-29.9713  7.09345e+21
-29.854  7.13016e+21
-29.7367  7.17113e+21
-29.6194  7.21796e+21
-29.5021  7.27144e+21
-29.3848  7.33218e+21
-29.2675  7.40062e+21
-29.1502  7.47519e+21
-29.0329  7.55463e+21
-28.9156  7.63635e+21
-28.7983  7.71714e+21
-28.681  7.79342e+21
-28.5637  7.86148e+21
-28.4464  7.91786e+21
-28.3291  7.95983e+21
-28.2118  7.98518e+21
-28.0944  7.99408e+21
-27.9771  7.98722e+21
-27.8598  7.96707e+21
-27.7425  7.93756e+21
-27.6252  7.90263e+21
-27.5079  7.86774e+21
-27.3906  7.83772e+21
-27.2733  7.81742e+21
-27.156  7.81085e+21
-27.0387  7.82069e+21
-26.9214  7.84927e+21
-26.8041  7.8969e+21
-26.6868  7.96257e+21
-26.5695  8.04375e+21
-26.4522  8.1367e+21
-26.3349  8.23673e+21
-26.2176  8.33855e+21
-26.1003  8.43629e+21
-25.983  8.52461e+21
-25.8657  8.5991e+21
-25.7483  8.65696e+21
-25.631  8.69744e+21
-25.5137  8.72171e+21
-25.3964  8.73184e+21
-25.2791  8.73258e+21
-25.1618  8.7288e+21
-25.0445  8.72568e+21
-24.9272  8.72851e+21
-24.8099  8.74119e+21
-24.6926  8.76662e+21
-24.5753  8.80681e+21
-24.458  8.86085e+21
-24.3407  8.9274e+21
-24.2234  9.0033e+21
-24.1061  9.08411e+21
-23.9888  9.16478e+21
-23.8715  9.2399e+21
-23.7542  9.30426e+21
-23.6369  9.35343e+21
-23.5196  9.38392e+21
-23.4023  9.39467e+21
-23.2849  9.38598e+21
-23.1676  9.36028e+21
-23.0503  9.32217e+21
-22.933  9.27637e+21
-22.8157  9.22951e+21
-22.6984  9.18754e+21
-22.5811  9.15626e+21
-22.4638  9.14023e+21
-22.3465  9.14226e+21
-22.2292  9.16451e+21
-22.1119  9.20672e+21
-21.9946  9.26725e+21
-21.8773  9.34283e+21
-21.76  9.42913e+21
-21.6427  9.52111e+21
-21.5254  9.61332e+21
-21.4081  9.70003e+21
-21.2908  9.77621e+21
-21.1735  9.83797e+21
-21.0561  9.88327e+21
-20.9388  9.9119e+21
-20.8215  9.92608e+21
-20.7042  9.9284e+21
-20.5869  9.92415e+21
-20.4696  9.91862e+21
-20.3523  9.91683e+21
-20.235  9.92361e+21
-20.1177  9.94206e+21
-20.0004  9.97417e+21
-19.8831  1.00212e+22
-19.7658  1.00816e+22
-19.6485  1.0154e+22
-19.5312  1.02359e+22
-19.4139  1.03243e+22
-19.2966  1.04159e+22
-19.1793  1.05073e+22
-19.062  1.05951e+22
-18.9447  1.06762e+22
-18.8274  1.07477e+22
-18.71  1.08076e+22
-18.5927  1.0855e+22
-18.4754  1.08895e+22
-18.3581  1.09127e+22
-18.2408  1.09258e+22
-18.1235  1.09318e+22
-18.0062  1.09334e+22
-17.8889  1.09333e+22
-17.7716  1.09335e+22
-17.6543  1.09346e+22
-17.537  1.09373e+22
-17.4197  1.09406e+22
-17.3024  1.09435e+22
-17.1851  1.09441e+22
-17.0678  1.09412e+22
-16.9505  1.09342e+22
-16.8332  1.0923e+22
-16.7159  1.09082e+22
-16.5986  1.0891e+22
-16.4813  1.08734e+22
-16.364  1.0858e+22
-16.2466  1.08473e+22
-16.1293  1.08449e+22
-16.012  1.08524e+22
-15.8947  1.08725e+22
-15.7774  1.09066e+22
-15.6601  1.09548e+22
-15.5428  1.1017e+22
-15.4255  1.10911e+22
-15.3082  1.11744e+22
-15.1909  1.12636e+22
-15.0736  1.13539e+22
-14.9563  1.14407e+22
-14.839  1.152e+22
-14.7217  1.1588e+22
-14.6044  1.16418e+22
-14.4871  1.168e+22
-14.3698  1.17022e+22
-14.2525  1.17096e+22
-14.1352  1.17039e+22
-14.0178  1.1688e+22
-13.9005  1.16655e+22
-13.7832  1.16399e+22
-13.6659  1.1615e+22
-13.5486  1.15932e+22
-13.4313  1.1577e+22
-13.314  1.15678e+22
-13.1967  1.1566e+22
-13.0794  1.15712e+22
-12.9621  1.15816e+22
-12.8448  1.15958e+22
-12.7275  1.16113e+22
-12.6102  1.16264e+22
-12.4929  1.16388e+22
-12.3756  1.16477e+22
-12.2583  1.16532e+22
-12.141  1.16558e+22
-12.0237  1.16573e+22
-11.9064  1.16592e+22
-11.7891  1.16638e+22
-11.6718  1.1674e+22
-11.5544  1.16912e+22
-11.4371  1.17183e+22
-11.3198  1.17549e+22
-11.2025  1.18017e+22
-11.0852  1.18579e+22
-10.9679  1.19212e+22
-10.8506  1.19891e+22
-10.7333  1.2058e+22
-10.616  1.21242e+22
-10.4987  1.21841e+22
-10.3814  1.2234e+22
-10.2641  1.22714e+22
-10.1468  1.22948e+22
-10.0295  1.23044e+22
-9.91217  1.23011e+22
-9.79487  1.2288e+22
-9.67756  1.22686e+22
-9.56026  1.22475e+22
-9.44295  1.2229e+22
-9.32565  1.22176e+22
-9.20834  1.22171e+22
-9.09104  1.22301e+22
-8.97373  1.22584e+22
-8.85643  1.23014e+22
-8.73913  1.23581e+22
-8.62182  1.24257e+22
-8.50452  1.25004e+22
-8.38721  1.25778e+22
-8.26991  1.26527e+22
-8.1526  1.27209e+22
-8.03529  1.27779e+22
-7.91799  1.28208e+22
-7.80069  1.28474e+22
-7.68338  1.28572e+22
-7.56608  1.28519e+22
-7.44877  1.28334e+22
-7.33146  1.28057e+22
-7.21416  1.27724e+22
-7.09685  1.27373e+22
-6.97955  1.27046e+22
-6.86224  1.26769e+22
-6.74494  1.26572e+22
-6.62763  1.26453e+22
-6.51033  1.26413e+22
-6.39302  1.26437e+22
-6.27572  1.265e+22
-6.15842  1.26571e+22
-6.04111  1.26617e+22
-5.92381  1.26607e+22
-5.8065  1.26515e+22
-5.68919  1.2632e+22
-5.57189  1.26023e+22
-5.45458  1.25628e+22
-5.33728  1.25161e+22
-5.21997  1.24656e+22
-5.10267  1.24157e+22
-4.98536  1.23711e+22
-4.86806  1.23366e+22
-4.75075  1.23159e+22
-4.63345  1.23122e+22
-4.51614  1.23273e+22
-4.39884  1.23615e+22
-4.28154  1.24146e+22
-4.16423  1.24836e+22
-4.04692  1.25661e+22
-3.92962  1.26576e+22
-3.81231  1.27535e+22
-3.69501  1.28489e+22
-3.5777  1.29381e+22
-3.4604  1.30169e+22
-3.34309  1.30812e+22
-3.22579  1.31277e+22
-3.10849  1.31551e+22
-2.99118  1.31632e+22
-2.87387  1.31543e+22
-2.75657  1.31311e+22
-2.63926  1.3098e+22
-2.52196  1.30594e+22
-2.40465  1.30193e+22
-2.28735  1.29817e+22
-2.17005  1.29487e+22
-2.05274  1.29231e+22
-1.93544  1.29042e+22
-1.81813  1.2892e+22
-1.70083  1.28855e+22
-1.58352  1.28831e+22
-1.46622  1.28827e+22
-1.34891  1.28828e+22
-1.2316  1.28815e+22
-1.1143  1.28772e+22
-0.996995  1.28686e+22
-0.87969  1.28553e+22
-0.762385  1.2837e+22
-0.64508  1.28151e+22
-0.527775  1.27908e+22
-0.41047  1.27667e+22
-0.293165  1.27453e+22
-0.17586  1.27294e+22
-0.058555  1.27208e+22
0.05875  1.27204e+22
0.176055  1.27286e+22
0.29336  1.27439e+22
0.410665  1.27648e+22
0.52797  1.27883e+22
0.645275  1.28121e+22
0.76258  1.28339e+22
0.879885  1.28517e+22
0.99719  1.2865e+22
1.1145  1.28733e+22
1.2318  1.28776e+22
1.3491  1.28791e+22
1.46641  1.28791e+22
1.58371  1.28794e+22
1.70102  1.28817e+22
1.81832  1.28882e+22
1.93563  1.28999e+22
2.05294  1.29185e+22
2.17024  1.29441e+22
2.28754  1.29762e+22
2.40485  1.30133e+22
2.52216  1.30522e+22
2.63946  1.30904e+22
2.75677  1.31227e+22
2.87407  1.31448e+22
2.99137  1.31528e+22
3.10868  1.31438e+22
3.22599  1.31157e+22
3.34329  1.30687e+22
3.4606  1.30042e+22
3.5779  1.29252e+22
3.69521  1.28358e+22
3.81251  1.27406e+22
3.92982  1.26448e+22
4.04712  1.25537e+22
4.16443  1.24715e+22
4.28173  1.24027e+22
4.39903  1.23499e+22
4.51634  1.23156e+22
4.63364  1.23007e+22
4.75095  1.23042e+22
4.86825  1.23246e+22
4.98556  1.23586e+22
5.10286  1.24026e+22
5.22017  1.24516e+22
5.33748  1.25012e+22
5.45478  1.25469e+22
5.57209  1.25853e+22
5.68939  1.26142e+22
5.8067  1.26325e+22
5.924  1.26409e+22
6.0413  1.26413e+22
6.15861  1.26361e+22
6.27591  1.26286e+22
6.39322  1.2622e+22
6.51052  1.26196e+22
6.62783  1.26234e+22
6.74514  1.26353e+22
6.86244  1.26553e+22
6.97975  1.26828e+22
7.09705  1.27156e+22
7.21436  1.27501e+22
7.33166  1.27836e+22
7.44897  1.28112e+22
7.56627  1.2829e+22
7.68358  1.28338e+22
7.80088  1.28233e+22
7.91819  1.27961e+22
8.03549  1.27529e+22
8.1528  1.26954e+22
8.2701  1.26269e+22
8.38741  1.25516e+22
8.50471  1.2474e+22
8.62202  1.23991e+22
8.73932  1.23314e+22
8.85662  1.22746e+22
8.97393  1.22316e+22
9.09123  1.22033e+22
9.20854  1.21901e+22
9.32584  1.21906e+22
9.44315  1.22016e+22
9.56045  1.22199e+22
9.67776  1.22405e+22
9.79506  1.22593e+22
9.91237  1.22717e+22
10.0297  1.22741e+22
10.147  1.22638e+22
10.2643  1.22394e+22
10.3816  1.22012e+22
10.4989  1.21506e+22
10.6162  1.20901e+22
10.7335  1.20234e+22
10.8508  1.19539e+22
10.9681  1.18858e+22
11.0854  1.18222e+22
11.2027  1.17662e+22
11.32  1.17192e+22
11.4373  1.16825e+22
11.5546  1.16558e+22
11.6719  1.16383e+22
11.7893  1.16284e+22
11.9066  1.16233e+22
12.0239  1.16216e+22
12.1412  1.16202e+22
12.2585  1.16172e+22
12.3758  1.16113e+22
12.4931  1.1602e+22
12.6104  1.1589e+22
12.7277  1.15738e+22
12.845  1.15579e+22
12.9623  1.15434e+22
13.0796  1.15325e+22
13.1969  1.1527e+22
13.3142  1.15284e+22
13.4315  1.15372e+22
13.5488  1.1553e+22
13.6661  1.15745e+22
13.7834  1.15992e+22
13.9007  1.16244e+22
14.018  1.16467e+22
14.1354  1.1662e+22
14.2527  1.16675e+22
14.37  1.16596e+22
14.4873  1.1637e+22
14.6046  1.15984e+22
14.7219  1.15441e+22
14.8392  1.14758e+22
14.9565  1.13962e+22
15.0738  1.13089e+22
15.1911  1.12185e+22
15.3084  1.11293e+22
15.4257  1.10457e+22
15.543  1.09714e+22
15.6603  1.09093e+22
15.7776  1.0861e+22
15.8949  1.08271e+22
16.0122  1.0807e+22
16.1295  1.07994e+22
16.2468  1.0802e+22
16.3641  1.08124e+22
16.4815  1.08279e+22
16.5988  1.08451e+22
16.7161  1.08622e+22
16.8334  1.08769e+22
16.9507  1.08877e+22
17.068  1.0894e+22
17.1853  1.08963e+22
17.3026  1.08949e+22
17.4199  1.08915e+22
17.5372  1.08876e+22
17.6545  1.08841e+22
17.7718  1.08821e+22
17.8891  1.08812e+22
18.0064  1.08804e+22
18.1237  1.0878e+22
18.241  1.08712e+22
18.3583  1.08573e+22
18.4756  1.08337e+22
18.5929  1.07987e+22
18.7102  1.07513e+22
18.8275  1.06913e+22
18.9449  1.062e+22
19.0622  1.05391e+22
19.1795  1.04518e+22
19.2968  1.03609e+22
19.4141  1.02698e+22
19.5314  1.01819e+22
19.6487  1.01005e+22
19.766  1.00282e+22
19.8833  9.96794e+21
20.0006  9.92108e+21
20.1179  9.88857e+21
20.2352  9.86951e+21
20.3525  9.8622e+21
20.4698  9.86324e+21
20.5871  9.86808e+21
20.7044  9.87118e+21
20.8217  9.86763e+21
20.939  9.85253e+21
21.0563  9.82287e+21
21.1736  9.77686e+21
21.291  9.71433e+21
21.4083  9.63786e+21
21.5256  9.55123e+21
21.6429  9.45926e+21
21.7602  9.36746e+21
21.8775  9.28165e+21
21.9948  9.20659e+21
22.1121  9.14682e+21
22.2294  9.10551e+21
22.3467  9.08369e+21
22.464  9.08192e+21
22.5813  9.09823e+21
22.6986  9.12952e+21
22.8159  9.17129e+21
22.9332  9.21777e+21
23.0505  9.26289e+21
23.1678  9.30033e+21
23.2851  9.32515e+21
23.4024  9.33304e+21
23.5198  9.32152e+21
23.6371  9.29018e+21
23.7544  9.24048e+21
23.8717  9.17567e+21
23.989  9.10042e+21
24.1063  9.0197e+21
24.2236  8.93899e+21
24.3409  8.86354e+21
24.4582  8.79718e+21
24.5755  8.74359e+21
24.6928  8.704e+21
24.8101  8.67871e+21
24.9274  8.66612e+21
25.0447  8.66338e+21
25.162  8.66644e+21
25.2793  8.67019e+21
25.3966  8.66901e+21
25.5139  8.6582e+21
25.6312  8.63348e+21
25.7485  8.59243e+21
25.8658  8.53413e+21
25.9832  8.45918e+21
26.1005  8.37063e+21
26.2178  8.27306e+21
26.3351  8.1715e+21
26.4524  8.07165e+21
26.5697  7.97905e+21
26.687  7.89833e+21
26.8043  7.83338e+21
26.9216  7.78657e+21
27.0389  7.75838e+21
27.1562  7.74879e+21
27.2735  7.75566e+21
27.3908  7.77604e+21
27.5081  7.80596e+21
27.6254  7.84052e+21
27.7427  7.87486e+21
27.86  7.90369e+21
27.9773  7.92294e+21
28.0946  7.92893e+21
28.212  7.91907e+21
28.3293  7.89248e+21
28.4466  7.8497e+21
28.5639  7.79236e+21
28.6812  7.72371e+21
28.7985  7.64685e+21
28.9158  7.56565e+21
29.0331  7.48395e+21
29.1504  7.4044e+21
29.2677  7.3301e+21
29.385  7.26223e+21
29.5023  7.20178e+21
29.6196  7.14872e+21
29.7369  7.10249e+21
29.8542  7.06214e+21
29.9715  7.0261e+21
30.0888  6.99261e+21
30.2061  6.96047e+21
30.3234  6.92852e+21
30.4407  6.89607e+21
30.558  6.86292e+21
30.6754  6.82877e+21
30.7927  6.79423e+21
30.91  6.76043e+21
31.0273  6.72788e+21
31.1446  6.69731e+21
31.2619  6.66928e+21
31.3792  6.6439e+21
31.4965  6.62106e+21
31.6138  6.60018e+21
31.7311  6.57995e+21
31.8484  6.55975e+21
31.9657  6.53819e+21
32.083  6.51411e+21
32.2003  6.4868e+21
32.3176  6.45544e+21
32.4349  6.42004e+21
32.5522  6.38066e+21
32.6695  6.33838e+21
32.7868  6.29444e+21
32.9042  6.25003e+21
33.0215  6.20694e+21
33.1388  6.16656e+21
33.2561  6.12985e+21
33.3734  6.09779e+21
33.4907  6.06989e+21
33.608  6.04568e+21
33.7253  6.02396e+21
33.8426  6.00273e+21
33.9599  5.98079e+21
34.0772  5.95591e+21
34.1945  5.92684e+21
34.3118  5.89247e+21
34.4291  5.85243e+21
34.5464  5.80689e+21
34.6637  5.75627e+21
34.781  5.70147e+21
34.8983  5.64403e+21
35.0156  5.5857e+21
35.1329  5.52813e+21
35.2503  5.47305e+21
35.3676  5.42158e+21
35.4849  5.3747e+21
35.6022  5.33324e+21
35.7195  5.29672e+21
35.8368  5.26435e+21
35.9541  5.23511e+21
36.0714  5.20731e+21
36.1887  5.17948e+21
36.306  5.14998e+21
36.4233  5.1174e+21
36.5406  5.08145e+21
36.6579  5.04185e+21
36.7752  4.99896e+21
36.8925  4.95412e+21
37.0098  4.9085e+21
37.1271  4.86399e+21
37.2444  4.82209e+21
37.3617  4.7847e+21
37.479  4.75337e+21
37.5964  4.7287e+21
37.7137  4.71152e+21
37.831  4.70121e+21
37.9483  4.69672e+21
38.0656  4.69626e+21
38.1829  4.69696e+21
38.3002  4.69596e+21
38.4175  4.68978e+21
38.5348  4.67517e+21
38.6521  4.65008e+21
38.7694  4.61253e+21
38.8867  4.56235e+21
39.004  4.50011e+21
39.1213  4.42805e+21
39.2386  4.34903e+21
39.3559  4.26629e+21
39.4732  4.18331e+21
39.5905  4.10362e+21
39.7078  4.03034e+21
39.8251  3.96575e+21
39.9425  3.91158e+21
40.0598  3.86859e+21
40.1771  3.83683e+21
40.2944  3.81613e+21
40.4117  3.80508e+21
40.529  3.80174e+21
40.6463  3.80421e+21
40.7636  3.80978e+21
40.8809  3.816e+21
40.9982  3.82044e+21
41.1155  3.82084e+21
41.2328  3.81607e+21
41.3501  3.80525e+21
41.4674  3.78816e+21
41.5847  3.76569e+21
41.702  3.73857e+21
41.8193  3.70819e+21
41.9366  3.67532e+21
42.0539  3.64115e+21
42.1712  3.60627e+21
42.2885  3.57074e+21
42.4059  3.53516e+21
42.5232  3.49921e+21
42.6405  3.46303e+21
42.7578  3.42681e+21
42.8751  3.39061e+21
42.9924  3.3549e+21
43.1097  3.3196e+21
43.227  3.28486e+21
43.3443  3.25101e+21
43.4616  3.21797e+21
43.5789  3.18609e+21
43.6962  3.1554e+21
43.8135  3.12663e+21
43.9308  3.10039e+21
44.0481  3.07708e+21
44.1654  3.05703e+21
44.2827  3.0405e+21
44.4  3.02722e+21
44.5173  3.01627e+21
44.6347  3.00652e+21
44.752  2.99643e+21
44.8693  2.98428e+21
44.9866  2.96898e+21
45.1039  2.94942e+21
45.2212  2.92489e+21
45.3385  2.89576e+21
45.4558  2.86233e+21
45.5731  2.82574e+21
45.6904  2.78718e+21
45.8077  2.74774e+21
45.925  2.70892e+21
46.0423  2.67171e+21
46.1596  2.63681e+21
46.2769  2.60491e+21
46.3942  2.57617e+21
46.5115  2.55054e+21
46.6288  2.52736e+21
46.7461  2.50598e+21
46.8634  2.48547e+21
46.9808  2.46452e+21
47.0981  2.44263e+21
47.2154  2.41879e+21
47.3327  2.39284e+21
47.45  2.36491e+21
47.5673  2.33575e+21
47.6846  2.3065e+21
47.8019  2.27822e+21
47.9192  2.25231e+21
48.0365  2.23001e+21
48.1538  2.21223e+21
48.2711  2.1996e+21
48.3884  2.19194e+21
48.5057  2.18909e+21
48.623  2.19019e+21
48.7403  2.19386e+21
48.8576  2.19839e+21
48.9749  2.20199e+21
49.0922  2.20254e+21
49.2095  2.19785e+21
49.3269  2.18611e+21
49.4442  2.1659e+21
49.5615  2.13626e+21
49.6788  2.09735e+21
49.7961  2.04998e+21
49.9134  1.9956e+21
50.0307  1.93672e+21
50.148  1.87571e+21
50.2653  1.81543e+21
50.3826  1.75837e+21
50.4999  1.7063e+21
50.6172  1.6609e+21
50.7345  1.62263e+21
50.8518  1.59159e+21
