#S 1 spectral density
#N 2
#UFWHM 11.7305
#L  abscissas [um]  spectral density
-58.5938  7.22071e+19
-58.4764  6.65763e+19
-58.3591  6.09805e+19
-58.2418  5.57737e+19
-58.1245  5.11528e+19
-58.0072  4.7223e+19
-57.8899  4.39989e+19
-57.7726  4.14865e+19
-57.6553  3.96619e+19
-57.538  3.85239e+19
-57.4207  3.79986e+19
-57.3034  3.80758e+19
-57.1861  3.85462e+19
-57.0688  3.92049e+19
-56.9515  3.96987e+19
-56.8342  3.9691e+19
-56.7169  3.88938e+19
-56.5996  3.71432e+19
-56.4823  3.44789e+19
-56.365  3.11139e+19
-56.2477  2.74562e+19
-56.1303  2.40651e+19
-56.013  2.14589e+19
-55.8957  2.01108e+19
-55.7784  2.02799e+19
-55.6611  2.20768e+19
-55.5438  2.53973e+19
-55.4265  2.99325e+19
-55.3092  3.53089e+19
-55.1919  4.11556e+19
-55.0746  4.70783e+19
-54.9573  5.2782e+19
-54.84  5.80542e+19
-54.7227  6.28077e+19
-54.6054  6.68582e+19
-54.4881  7.01916e+19
-54.3708  7.27772e+19
-54.2535  7.46498e+19
-54.1362  7.57789e+19
-54.0189  7.6274e+19
-53.9016  7.62692e+19
-53.7842  7.59683e+19
-53.6669  7.56018e+19
-53.5496  7.54527e+19
-53.4323  7.57936e+19
-53.315  7.68555e+19
-53.1977  7.88715e+19
-53.0804  8.18118e+19
-52.9631  8.5638e+19
-52.8458  9.00572e+19
-52.7285  9.47035e+19
-52.6112  9.90165e+19
-52.4939  1.0249e+20
-52.3766  1.04552e+20
-52.2593  1.04792e+20
-52.142  1.02931e+20
-52.0247  9.90077e+19
-51.9074  9.32068e+19
-51.7901  8.5983e+19
-51.6728  7.7911e+19
-51.5555  6.9598e+19
-51.4381  6.16904e+19
-51.3208  5.46475e+19
-51.2035  4.8827e+19
-51.0862  4.4449e+19
-50.9689  4.15942e+19
-50.8516  4.02517e+19
-50.7343  4.03439e+19
-50.617  4.17526e+19
-50.4997  4.4345e+19
-50.3824  4.78593e+19
-50.2651  5.20231e+19
-50.1478  5.64235e+19
-50.0305  6.06858e+19
-49.9132  6.42702e+19
-49.7959  6.68106e+19
-49.6786  6.80366e+19
-49.5613  6.78599e+19
-49.444  6.62874e+19
-49.3267  6.36304e+19
-49.2094  6.0262e+19
-49.092  5.65386e+19
-48.9747  5.2881e+19
-48.8574  4.95829e+19
-48.7401  4.6878e+19
-48.6228  4.49436e+19
-48.5055  4.39112e+19
-48.3882  4.38736e+19
-48.2709  4.49625e+19
-48.1536  4.7273e+19
-48.0363  5.08744e+19
-47.919  5.57601e+19
-47.8017  6.18053e+19
-47.6844  6.86669e+19
-47.5671  7.59473e+19
-47.4498  8.31215e+19
-47.3325  8.96788e+19
-47.2152  9.51405e+19
-47.0979  9.92229e+19
-46.9806  1.01766e+20
-46.8633  1.02842e+20
-46.7459  1.02687e+20
-46.6286  1.01658e+20
-46.5113  1.00161e+20
-46.394  9.87009e+19
-46.2767  9.76002e+19
-46.1594  9.7259e+19
-46.0421  9.79035e+19
-45.9248  9.96392e+19
-45.8075  1.02428e+20
-45.6902  1.06072e+20
-45.5729  1.10133e+20
-45.4556  1.14086e+20
-45.3383  1.17275e+20
-45.221  1.1904e+20
-45.1037  1.18856e+20
-44.9864  1.16357e+20
-44.8691  1.11511e+20
-44.7518  1.04512e+20
-44.6345  9.59051e+19
-44.5172  8.63776e+19
-44.3998  7.66937e+19
-44.2825  6.7585e+19
-44.1652  5.96113e+19
-44.0479  5.32424e+19
-43.9306  4.87185e+19
-43.8133  4.61166e+19
-43.696  4.5503e+19
-43.5787  4.68569e+19
-43.4614  5.01181e+19
-43.3441  5.52388e+19
-43.2268  6.20158e+19
-43.1095  7.0169e+19
-42.9922  7.91732e+19
-42.8749  8.83856e+19
-42.7576  9.70917e+19
-42.6403  1.04522e+20
-42.523  1.10041e+20
-42.4057  1.13264e+20
-42.2884  1.14053e+20
-42.171  1.12547e+20
-42.0537  1.09235e+20
-41.9364  1.04629e+20
-41.8191  9.9374e+19
-41.7018  9.40054e+19
-41.5845  8.90432e+19
-41.4672  8.47866e+19
-41.3499  8.15306e+19
-41.2326  7.95135e+19
-41.1153  7.88786e+19
-40.998  7.98783e+19
-40.8807  8.26408e+19
-40.7634  8.72075e+19
-40.6461  9.35187e+19
-40.5288  1.01322e+20
-40.4115  1.10145e+20
-40.2942  1.19417e+20
-40.1769  1.2841e+20
-40.0596  1.36625e+20
-39.9423  1.43563e+20
-39.825  1.49022e+20
-39.7076  1.53087e+20
-39.5903  1.55947e+20
-39.473  1.58048e+20
-39.3557  1.59835e+20
-39.2384  1.61613e+20
-39.1211  1.63627e+20
-39.0038  1.65987e+20
-38.8865  1.68809e+20
-38.7692  1.72029e+20
-38.6519  1.75632e+20
-38.5346  1.79596e+20
-38.4173  1.83959e+20
-38.3  1.88709e+20
-38.1827  1.93701e+20
-38.0654  1.9872e+20
-37.9481  2.03405e+20
-37.8308  2.07255e+20
-37.7135  2.09785e+20
-37.5962  2.10491e+20
-37.4789  2.09098e+20
-37.3615  2.05412e+20
-37.2442  1.99698e+20
-37.1269  1.92168e+20
-37.0096  1.83402e+20
-36.8923  1.74085e+20
-36.775  1.64689e+20
-36.6577  1.55749e+20
-36.5404  1.47677e+20
-36.4231  1.40596e+20
-36.3058  1.34651e+20
-36.1885  1.29771e+20
-36.0712  1.25761e+20
-35.9539  1.22498e+20
-35.8366  1.19726e+20
-35.7193  1.17116e+20
-35.602  1.14429e+20
-35.4847  1.11294e+20
-35.3674  1.07536e+20
-35.2501  1.02981e+20
-35.1328  9.75799e+19
-35.0154  9.14834e+19
-34.8981  8.4865e+19
-34.7808  7.81047e+19
-34.6635  7.16328e+19
-34.5462  6.57397e+19
-34.4289  6.07418e+19
-34.3116  5.68496e+19
-34.1943  5.41987e+19
-34.077  5.27763e+19
-33.9597  5.25268e+19
-33.8424  5.33654e+19
-33.7251  5.52422e+19
-33.6078  5.80412e+19
-33.4905  6.16074e+19
-33.3732  6.57722e+19
-33.2559  7.03076e+19
-33.1386  7.48994e+19
-33.0213  7.92698e+19
-32.904  8.31162e+19
-32.7867  8.62605e+19
-32.6693  8.86244e+19
-32.552  9.03291e+19
-32.4347  9.15181e+19
-32.3174  9.25968e+19
-32.2001  9.3963e+19
-32.0828  9.59862e+19
-31.9655  9.90845e+19
-31.8482  1.03496e+20
-31.7309  1.09354e+20
-31.6136  1.16715e+20
-31.4963  1.25417e+20
-31.379  1.35289e+20
-31.2617  1.45908e+20
-31.1444  1.56886e+20
-31.0271  1.67681e+20
-30.9098  1.77741e+20
-30.7925  1.86505e+20
-30.6752  1.93538e+20
-30.5579  1.98483e+20
-30.4406  2.01295e+20
-30.3232  2.02154e+20
-30.2059  2.01412e+20
-30.0886  1.99745e+20
-29.9713  1.97969e+20
-29.854  1.96969e+20
-29.7367  1.97571e+20
-29.6194  2.0057e+20
-29.5021  2.06632e+20
-29.3848  2.16011e+20
-29.2675  2.28708e+20
-29.1502  2.44407e+20
-29.0329  2.62417e+20
-28.9156  2.81648e+20
-28.7983  3.00803e+20
-28.681  3.1839e+20
-28.5637  3.3298e+20
-28.4464  3.43106e+20
-28.3291  3.48008e+20
-28.2118  3.47131e+20
-28.0944  3.40563e+20
-27.9771  3.29136e+20
-27.8598  3.14023e+20
-27.7425  2.96677e+20
-27.6252  2.78912e+20
-27.5079  2.62206e+20
-27.3906  2.47974e+20
-27.2733  2.37361e+20
-27.156  2.3091e+20
-27.0387  2.28952e+20
-26.9214  2.31471e+20
-26.8041  2.38095e+20
-26.6868  2.48318e+20
-26.5695  2.61383e+20
-26.4522  2.76397e+20
-26.3349  2.92226e+20
-26.2176  3.07762e+20
-26.1003  3.2179e+20
-25.983  3.33351e+20
-25.8657  3.4165e+20
-25.7483  3.46412e+20
-25.631  3.47557e+20
-25.5137  3.45683e+20
-25.3964  3.41484e+20
-25.2791  3.3593e+20
-25.1618  3.30054e+20
-25.0445  3.24689e+20
-24.9272  3.20409e+20
-24.8099  3.17764e+20
-24.6926  3.16893e+20
-24.5753  3.17925e+20
-24.458  3.20965e+20
-24.3407  3.2598e+20
-24.2234  3.3303e+20
-24.1061  3.42191e+20
-23.9888  3.53353e+20
-23.8715  3.66457e+20
-23.7542  3.81054e+20
-23.6369  3.96872e+20
-23.5196  4.13371e+20
-23.4023  4.30045e+20
-23.2849  4.46552e+20
-23.1676  4.62499e+20
-23.0503  4.77738e+20
-22.933  4.91964e+20
-22.8157  5.04985e+20
-22.6984  5.1661e+20
-22.5811  5.26599e+20
-22.4638  5.3472e+20
-22.3465  5.40793e+20
-22.2292  5.4491e+20
-22.1119  5.47183e+20
-21.9946  5.48184e+20
-21.8773  5.48499e+20
-21.76  5.48771e+20
-21.6427  5.49621e+20
-21.5254  5.51574e+20
-21.4081  5.54643e+20
-21.2908  5.58936e+20
-21.1735  5.64351e+20
-21.0561  5.70657e+20
-20.9388  5.77764e+20
-20.8215  5.86051e+20
-20.7042  5.95332e+20
-20.5869  6.059e+20
-20.4696  6.17863e+20
-20.3523  6.30893e+20
-20.235  6.44432e+20
-20.1177  6.57653e+20
-20.0004  6.69341e+20
-19.8831  6.78774e+20
-19.7658  6.84833e+20
-19.6485  6.87243e+20
-19.5312  6.8606e+20
-19.4139  6.8198e+20
-19.2966  6.75969e+20
-19.1793  6.69405e+20
-19.062  6.6341e+20
-18.9447  6.59248e+20
-18.8274  6.57656e+20
-18.71  6.59263e+20
-18.5927  6.64376e+20
-18.4754  6.73034e+20
-18.3581  6.85612e+20
-18.2408  7.01762e+20
-18.1235  7.21824e+20
-18.0062  7.45513e+20
-17.8889  7.72786e+20
-17.7716  8.03237e+20
-17.6543  8.36149e+20
-17.537  8.7092e+20
-17.4197  9.06785e+20
-17.3024  9.43061e+20
-17.1851  9.793e+20
-17.0678  1.01553e+21
-16.9505  1.05187e+21
-16.8332  1.08906e+21
-16.7159  1.12752e+21
-16.5986  1.16812e+21
-16.4813  1.21133e+21
-16.364  1.25752e+21
-16.2466  1.30667e+21
-16.1293  1.35893e+21
-16.012  1.41379e+21
-15.8947  1.47098e+21
-15.7774  1.53013e+21
-15.6601  1.59093e+21
-15.5428  1.65304e+21
-15.4255  1.71649e+21
-15.3082  1.78103e+21
-15.1909  1.84681e+21
-15.0736  1.91361e+21
-14.9563  1.98171e+21
-14.839  2.05113e+21
-14.7217  2.12207e+21
-14.6044  2.1949e+21
-14.4871  2.26952e+21
-14.3698  2.34633e+21
-14.2525  2.42546e+21
-14.1352  2.50691e+21
-14.0178  2.59078e+21
-13.9005  2.67706e+21
-13.7832  2.7657e+21
-13.6659  2.85698e+21
-13.5486  2.95056e+21
-13.4313  3.04723e+21
-13.314  3.14672e+21
-13.1967  3.24934e+21
-13.0794  3.35525e+21
-12.9621  3.46447e+21
-12.8448  3.57695e+21
-12.7275  3.69285e+21
-12.6102  3.8117e+21
-12.4929  3.9336e+21
-12.3756  4.0585e+21
-12.2583  4.18633e+21
-12.141  4.31749e+21
-12.0237  4.45215e+21
-11.9064  4.59117e+21
-11.7891  4.73513e+21
-11.6718  4.88549e+21
-11.5544  5.04312e+21
-11.4371  5.20955e+21
-11.3198  5.38656e+21
-11.2025  5.57568e+21
-11.0852  5.77852e+21
-10.9679  5.99674e+21
-10.8506  6.23136e+21
-10.7333  6.48328e+21
-10.616  6.75301e+21
-10.4987  7.04038e+21
-10.3814  7.34493e+21
-10.2641  7.66609e+21
-10.1468  8.0035e+21
-10.0295  8.35595e+21
-9.91217  8.72339e+21
-9.79487  9.10529e+21
-9.67756  9.50214e+21
-9.56026  9.914e+21
-9.44295  1.03416e+22
-9.32565  1.0786e+22
-9.20834  1.1248e+22
-9.09104  1.17286e+22
-8.97373  1.2229e+22
-8.85643  1.27498e+22
-8.73913  1.3292e+22
-8.62182  1.38548e+22
-8.50452  1.44384e+22
-8.38721  1.50415e+22
-8.26991  1.56629e+22
-8.1526  1.63009e+22
-8.03529  1.69537e+22
-7.91799  1.76192e+22
-7.80069  1.82962e+22
-7.68338  1.89832e+22
-7.56608  1.968e+22
-7.44877  2.03871e+22
-7.33146  2.11054e+22
-7.21416  2.18366e+22
-7.09685  2.25833e+22
-6.97955  2.33483e+22
-6.86224  2.41341e+22
-6.74494  2.49433e+22
-6.62763  2.57784e+22
-6.51033  2.66406e+22
-6.39302  2.75302e+22
-6.27572  2.84474e+22
-6.15842  2.93902e+22
-6.04111  3.03553e+22
-5.92381  3.13403e+22
-5.8065  3.23397e+22
-5.68919  3.33484e+22
-5.57189  3.43623e+22
-5.45458  3.53761e+22
-5.33728  3.6386e+22
-5.21997  3.7389e+22
-5.10267  3.83828e+22
-4.98536  3.93662e+22
-4.86806  4.03382e+22
-4.75075  4.12994e+22
-4.63345  4.22499e+22
-4.51614  4.31905e+22
-4.39884  4.41218e+22
-4.28154  4.50438e+22
-4.16423  4.59573e+22
-4.04692  4.68607e+22
-3.92962  4.77533e+22
-3.81231  4.86327e+22
-3.69501  4.94959e+22
-3.5777  5.03411e+22
-3.4604  5.11642e+22
-3.34309  5.1962e+22
-3.22579  5.27321e+22
-3.10849  5.34739e+22
-2.99118  5.41852e+22
-2.87387  5.48684e+22
-2.75657  5.55245e+22
-2.63926  5.61561e+22
-2.52196  5.67656e+22
-2.40465  5.73557e+22
-2.28735  5.79274e+22
-2.17005  5.84814e+22
-2.05274  5.90171e+22
-1.93544  5.95315e+22
-1.81813  6.0022e+22
-1.70083  6.04844e+22
-1.58352  6.09147e+22
-1.46622  6.13084e+22
-1.34891  6.16613e+22
-1.2316  6.19714e+22
-1.1143  6.22367e+22
-0.996995  6.24572e+22
-0.87969  6.26345e+22
-0.762385  6.27709e+22
-0.64508  6.2872e+22
-0.527775  6.29428e+22
-0.41047  6.29901e+22
-0.293165  6.30197e+22
-0.17586  6.30377e+22
-0.058555  6.30482e+22
0.05875  6.30529e+22
0.176055  6.3052e+22
0.29336  6.30438e+22
0.410665  6.30233e+22
0.52797  6.29852e+22
0.645275  6.29228e+22
0.76258  6.28307e+22
0.879885  6.27024e+22
0.99719  6.25337e+22
1.1145  6.23214e+22
1.2318  6.20641e+22
1.3491  6.17619e+22
1.46641  6.1417e+22
1.58371  6.10314e+22
1.70102  6.06092e+22
1.81832  6.01548e+22
1.93563  5.96726e+22
2.05294  5.91661e+22
2.17024  5.8639e+22
2.28754  5.8093e+22
2.40485  5.75292e+22
2.52216  5.69472e+22
2.63946  5.63452e+22
2.75677  5.57212e+22
2.87407  5.50724e+22
2.99137  5.43966e+22
3.10868  5.36917e+22
3.22599  5.29573e+22
3.34329  5.2194e+22
3.4606  5.14026e+22
3.5779  5.0586e+22
3.69521  4.97476e+22
3.81251  4.889e+22
3.92982  4.80164e+22
4.04712  4.71298e+22
4.16443  4.62313e+22
4.28173  4.53226e+22
4.39903  4.44042e+22
4.51634  4.34763e+22
4.63364  4.25382e+22
4.75095  4.159e+22
4.86825  4.06302e+22
4.98556  3.96591e+22
5.10286  3.86766e+22
5.22017  3.76822e+22
5.33748  3.66786e+22
5.45478  3.56678e+22
5.57209  3.46526e+22
5.68939  3.36376e+22
5.8067  3.26269e+22
5.924  3.16258e+22
6.0413  3.06392e+22
6.15861  2.96719e+22
6.27591  2.87266e+22
6.39322  2.78074e+22
6.51052  2.69148e+22
6.62783  2.60496e+22
6.74514  2.52111e+22
6.86244  2.43981e+22
6.97975  2.36081e+22
7.09705  2.28385e+22
7.21436  2.20867e+22
7.33166  2.13497e+22
7.44897  2.06258e+22
7.56627  1.99128e+22
7.68358  1.92098e+22
7.80088  1.85162e+22
7.91819  1.78329e+22
8.03549  1.71612e+22
8.1528  1.6502e+22
8.2701  1.58575e+22
8.38741  1.52298e+22
8.50471  1.46199e+22
8.62202  1.40304e+22
8.73932  1.34613e+22
8.85662  1.29129e+22
8.97393  1.23855e+22
9.09123  1.18789e+22
9.20854  1.13917e+22
9.32584  1.09232e+22
9.44315  1.04727e+22
9.56045  1.00388e+22
9.67776  9.62066e+21
9.79506  9.21791e+21
9.91237  8.83019e+21
10.0297  8.45719e+21
10.147  8.09931e+21
10.2643  7.75697e+21
10.3816  7.43116e+21
10.4989  7.12203e+21
10.6162  6.83071e+21
10.7335  6.55731e+21
10.8508  6.30188e+21
10.9681  6.0639e+21
11.0854  5.84265e+21
11.2027  5.63682e+21
11.32  5.44475e+21
11.4373  5.26503e+21
11.5546  5.0958e+21
11.6719  4.9355e+21
11.7893  4.78273e+21
11.9066  4.63629e+21
12.0239  4.49499e+21
12.1412  4.35814e+21
12.2585  4.22504e+21
12.3758  4.0953e+21
12.4931  3.96869e+21
12.6104  3.84527e+21
12.7277  3.72501e+21
12.845  3.60794e+21
12.9623  3.49422e+21
13.0796  3.38393e+21
13.1969  3.27701e+21
13.3142  3.17358e+21
13.4315  3.07332e+21
13.5488  2.9759e+21
13.6661  2.88143e+21
13.7834  2.78968e+21
13.9007  2.70027e+21
14.018  2.61335e+21
14.1354  2.52897e+21
14.2527  2.44704e+21
14.37  2.36739e+21
14.4873  2.2901e+21
14.6046  2.21518e+21
14.7219  2.14202e+21
14.8392  2.07062e+21
14.9565  2.00087e+21
15.0738  1.93242e+21
15.1911  1.86522e+21
15.3084  1.79918e+21
15.4257  1.73425e+21
15.543  1.67039e+21
15.6603  1.60777e+21
15.7776  1.54659e+21
15.8949  1.48705e+21
16.0122  1.42933e+21
16.1295  1.37408e+21
16.2468  1.32147e+21
16.3641  1.27185e+21
16.4815  1.22523e+21
16.5988  1.1816e+21
16.7161  1.1406e+21
16.8334  1.10162e+21
16.9507  1.06402e+21
17.068  1.02709e+21
17.1853  9.9026e+20
17.3026  9.53411e+20
17.4199  9.16604e+20
17.5372  8.80296e+20
17.6545  8.44922e+20
17.7718  8.11441e+20
17.8891  7.80602e+20
18.0064  7.52855e+20
18.1237  7.28627e+20
18.241  7.08248e+20
18.3583  6.91675e+20
18.4756  6.78865e+20
18.5929  6.69822e+20
18.7102  6.64526e+20
18.8275  6.62595e+20
18.9449  6.63948e+20
19.0622  6.67871e+20
19.1795  6.7349e+20
19.2968  6.79884e+20
19.4141  6.85535e+20
19.5314  6.89286e+20
19.6487  6.90151e+20
19.766  6.87409e+20
19.8833  6.81064e+20
20.0006  6.71427e+20
20.1179  6.59454e+20
20.2352  6.46038e+20
20.3525  6.32393e+20
20.4698  6.19375e+20
20.5871  6.07445e+20
20.7044  5.96741e+20
20.8217  5.87539e+20
20.939  5.79404e+20
21.0563  5.72198e+20
21.1736  5.65957e+20
21.291  5.60747e+20
21.4083  5.56528e+20
21.5256  5.53572e+20
21.6429  5.51868e+20
21.7602  5.51119e+20
21.8775  5.50946e+20
21.9948  5.50717e+20
22.1121  5.49756e+20
22.2294  5.47545e+20
22.3467  5.43426e+20
22.464  5.37285e+20
22.5813  5.29187e+20
22.6986  5.19173e+20
22.8159  5.07387e+20
22.9332  4.94339e+20
23.0505  4.80062e+20
23.1678  4.64799e+20
23.2851  4.48794e+20
23.4024  4.32244e+20
23.5198  4.1548e+20
23.6371  3.98986e+20
23.7544  3.83164e+20
23.8717  3.68525e+20
23.989  3.5547e+20
24.1063  3.44354e+20
24.2236  3.35234e+20
24.3409  3.28181e+20
24.4582  3.23243e+20
24.5755  3.2023e+20
24.6928  3.19206e+20
24.8101  3.20077e+20
24.9274  3.22746e+20
25.0447  3.26961e+20
25.162  3.32315e+20
25.2793  3.38148e+20
25.3966  3.43529e+20
25.5139  3.47642e+20
25.6312  3.49415e+20
25.7485  3.48007e+20
25.8658  3.4307e+20
25.9832  3.3455e+20
26.1005  3.22812e+20
26.2178  3.08601e+20
26.3351  2.92983e+20
26.4524  2.77053e+20
26.5697  2.62042e+20
26.687  2.48947e+20
26.8043  2.38735e+20
26.9216  2.32175e+20
27.0389  2.29814e+20
27.1562  2.31848e+20
27.2735  2.38421e+20
27.3908  2.49227e+20
27.5081  2.63479e+20
27.6254  2.80224e+20
27.7427  2.98101e+20
27.86  3.15357e+20
27.9773  3.30469e+20
28.0946  3.41738e+20
28.212  3.48089e+20
28.3293  3.48793e+20
28.4466  3.43722e+20
28.5639  3.33316e+20
28.6812  3.18607e+20
28.7985  3.00951e+20
28.9158  2.81689e+20
29.0331  2.62392e+20
29.1504  2.44481e+20
29.2677  2.28791e+20
29.385  2.16205e+20
29.5023  2.06947e+20
29.6196  2.0102e+20
29.7369  1.98074e+20
29.8542  1.97543e+20
29.9715  1.98628e+20
30.0888  2.00427e+20
30.2061  2.02092e+20
30.3234  2.028e+20
30.4407  2.01883e+20
30.558  1.98993e+20
30.6754  1.93943e+20
30.7927  1.86865e+20
30.91  1.78022e+20
31.0273  1.67948e+20
31.1446  1.57115e+20
31.2619  1.46138e+20
31.3792  1.35478e+20
31.4965  1.25658e+20
31.6138  1.1699e+20
31.7311  1.09696e+20
31.8484  1.03862e+20
31.9657  9.94955e+19
32.083  9.64627e+19
32.2003  9.44212e+19
32.3176  9.30749e+19
32.4349  9.20072e+19
32.5522  9.07636e+19
32.6695  8.90488e+19
32.7868  8.66336e+19
32.9042  8.34348e+19
33.0215  7.95421e+19
33.1388  7.51569e+19
33.2561  7.05334e+19
33.3734  6.60095e+19
33.4907  6.18544e+19
33.608  5.82772e+19
33.7253  5.55165e+19
33.8426  5.36677e+19
33.9599  5.28416e+19
34.0772  5.31481e+19
34.1945  5.463e+19
34.3118  5.73324e+19
34.4291  6.12353e+19
34.5464  6.62665e+19
34.6637  7.21633e+19
34.781  7.86991e+19
34.8983  8.54069e+19
35.0156  9.19758e+19
35.1329  9.80559e+19
35.2503  1.03399e+20
35.3676  1.07937e+20
35.4849  1.11632e+20
35.6022  1.14689e+20
35.7195  1.17421e+20
35.8368  1.20018e+20
35.9541  1.22822e+20
36.0714  1.26104e+20
36.1887  1.30125e+20
36.306  1.35073e+20
36.4233  1.41089e+20
36.5406  1.48194e+20
36.6579  1.5633e+20
36.7752  1.65293e+20
36.8925  1.747e+20
37.0098  1.84054e+20
37.1271  1.92763e+20
37.2444  2.00212e+20
37.3617  2.05876e+20
37.479  2.09456e+20
37.5964  2.10805e+20
37.7137  2.09997e+20
37.831  2.07417e+20
37.9483  2.03515e+20
38.0656  1.98803e+20
38.1829  1.93791e+20
38.3002  1.88787e+20
38.4175  1.84077e+20
38.5348  1.79727e+20
38.6521  1.75758e+20
38.7694  1.72216e+20
38.8867  1.69039e+20
39.004  1.66249e+20
39.1213  1.63863e+20
39.2386  1.61873e+20
39.3559  1.60123e+20
39.4732  1.58403e+20
39.5905  1.56264e+20
39.7078  1.53336e+20
39.8251  1.49258e+20
39.9425  1.43717e+20
40.0598  1.36728e+20
40.1771  1.28469e+20
40.2944  1.19408e+20
40.4117  1.10162e+20
40.529  1.01355e+20
40.6463  9.35794e+19
40.7636  8.73084e+19
40.8809  8.27595e+19
40.9982  8.00864e+19
41.1155  7.91474e+19
41.2328  7.98351e+19
41.3501  8.19145e+19
41.4674  8.52154e+19
41.5847  8.95062e+19
41.702  9.45369e+19
41.8193  9.9912e+19
41.9366  1.05183e+20
42.0539  1.09776e+20
42.1712  1.13065e+20
42.2885  1.14486e+20
42.4059  1.13629e+20
42.5232  1.10305e+20
42.6405  1.04718e+20
42.7578  9.71954e+19
42.8751  8.84265e+19
42.9924  7.91547e+19
43.1097  7.01345e+19
43.227  6.20071e+19
43.3443  5.52485e+19
43.4616  5.01813e+19
43.5789  4.69567e+19
43.6962  4.56767e+19
43.8135  4.63538e+19
43.9308  4.90095e+19
44.0481  5.36232e+19
44.1654  6.00604e+19
44.2827  6.80709e+19
44.4  7.72283e+19
44.5173  8.69462e+19
44.6347  9.64445e+19
44.752  1.04977e+20
44.8693  1.11888e+20
44.9866  1.16666e+20
45.1039  1.19027e+20
45.2212  1.19112e+20
45.3385  1.17267e+20
45.4558  1.14047e+20
45.5731  1.10054e+20
45.6904  1.05965e+20
45.8077  1.02368e+20
45.925  9.96264e+19
46.0423  9.79289e+19
46.1596  9.73231e+19
46.2769  9.77269e+19
46.3942  9.88438e+19
46.5115  1.00366e+20
46.6288  1.01846e+20
46.7461  1.02854e+20
46.8634  1.02973e+20
46.9808  1.01854e+20
47.0981  9.92424e+19
47.2154  9.51191e+19
47.3327  8.96145e+19
47.45  8.3028e+19
47.5673  7.5824e+19
47.6846  6.85449e+19
47.8019  6.16881e+19
47.9192  5.56888e+19
48.0365  5.08637e+19
48.1538  4.72893e+19
48.2711  4.50301e+19
48.3884  4.40014e+19
48.5057  4.40938e+19
48.623  4.5175e+19
48.7403  4.71326e+19
48.8576  4.98605e+19
48.9749  5.31953e+19
49.0922  5.68816e+19
49.2095  6.05885e+19
49.3269  6.39868e+19
49.4442  6.65952e+19
49.5615  6.8119e+19
49.6788  6.82618e+19
49.7961  6.69769e+19
49.9134  6.43647e+19
50.0307  6.07396e+19
50.148  5.64773e+19
50.2653  5.2053e+19
50.3826  4.78861e+19
50.4999  4.43826e+19
50.6172  4.18296e+19
50.7345  4.04488e+19
50.8518  4.04111e+19
