#S 1 spectral density
#N 2
#UFWHM 43.0509
#L  abscissas [um]  spectral density
-58.5938  4.02199e+20
-58.4764  3.93374e+20
-58.3591  3.85037e+20
-58.2418  3.77962e+20
-58.1245  3.72874e+20
-58.0072  3.70601e+20
-57.8899  3.71409e+20
-57.7726  3.75694e+20
-57.6553  3.83447e+20
-57.538  3.9475e+20
-57.4207  4.09265e+20
-57.3034  4.26426e+20
-57.1861  4.45328e+20
-57.0688  4.65045e+20
-56.9515  4.84135e+20
-56.8342  5.01311e+20
-56.7169  5.1539e+20
-56.5996  5.25238e+20
-56.4823  5.30438e+20
-56.365  5.30762e+20
-56.2477  5.2662e+20
-56.1303  5.18714e+20
-56.013  5.08126e+20
-55.8957  4.96211e+20
-55.7784  4.83905e+20
-55.6611  4.72501e+20
-55.5438  4.62828e+20
-55.4265  4.55502e+20
-55.3092  4.50986e+20
-55.1919  4.49396e+20
-55.0746  4.50904e+20
-54.9573  4.55335e+20
-54.84  4.62442e+20
-54.7227  4.71746e+20
-54.6054  4.82738e+20
-54.4881  4.94879e+20
-54.3708  5.07365e+20
-54.2535  5.19468e+20
-54.1362  5.30511e+20
-54.0189  5.39865e+20
-53.9016  5.47015e+20
-53.7842  5.51654e+20
-53.6669  5.53869e+20
-53.5496  5.53636e+20
-53.4323  5.5116e+20
-53.315  5.47049e+20
-53.1977  5.41603e+20
-53.0804  5.35444e+20
-52.9631  5.28925e+20
-52.8458  5.22622e+20
-52.7285  5.16775e+20
-52.6112  5.11554e+20
-52.4939  5.06957e+20
-52.3766  5.0321e+20
-52.2593  5.00048e+20
-52.142  4.97616e+20
-52.0247  4.95928e+20
-51.9074  4.9506e+20
-51.7901  4.95203e+20
-51.6728  4.96292e+20
-51.5555  4.98347e+20
-51.4381  5.01312e+20
-51.3208  5.0484e+20
-51.2035  5.08772e+20
-51.0862  5.12382e+20
-50.9689  5.15561e+20
-50.8516  5.17951e+20
-50.7343  5.19446e+20
-50.617  5.20039e+20
-50.4997  5.19886e+20
-50.3824  5.19345e+20
-50.2651  5.18718e+20
-50.1478  5.18203e+20
-50.0305  5.18062e+20
-49.9132  5.18265e+20
-49.7959  5.19175e+20
-49.6786  5.20813e+20
-49.5613  5.23335e+20
-49.444  5.26909e+20
-49.3267  5.31759e+20
-49.2094  5.37885e+20
-49.092  5.45519e+20
-48.9747  5.54494e+20
-48.8574  5.64479e+20
-48.7401  5.75033e+20
-48.6228  5.85717e+20
-48.5055  5.9602e+20
-48.3882  6.05518e+20
-48.2709  6.13865e+20
-48.1536  6.21052e+20
-48.0363  6.2706e+20
-47.919  6.32043e+20
-47.8017  6.3613e+20
-47.6844  6.39529e+20
-47.5671  6.42275e+20
-47.4498  6.44494e+20
-47.3325  6.46238e+20
-47.2152  6.47562e+20
-47.0979  6.4852e+20
-46.9806  6.49057e+20
-46.8633  6.49199e+20
-46.7459  6.49073e+20
-46.6286  6.485e+20
-46.5113  6.47483e+20
-46.394  6.4565e+20
-46.2767  6.43094e+20
-46.1594  6.39734e+20
-46.0421  6.35666e+20
-45.9248  6.31131e+20
-45.8075  6.26626e+20
-45.6902  6.2271e+20
-45.5729  6.20168e+20
-45.4556  6.19568e+20
-45.3383  6.21715e+20
-45.221  6.26999e+20
-45.1037  6.36155e+20
-44.9864  6.49576e+20
-44.8691  6.67424e+20
-44.7518  6.89632e+20
-44.6345  7.15946e+20
-44.5172  7.45678e+20
-44.3998  7.77891e+20
-44.2825  8.11098e+20
-44.1652  8.4351e+20
-44.0479  8.73431e+20
-43.9306  8.98824e+20
-43.8133  9.18194e+20
-43.696  9.30506e+20
-43.5787  9.35267e+20
-43.4614  9.32719e+20
-43.3441  9.23819e+20
-43.2268  9.10003e+20
-43.1095  8.93116e+20
-42.9922  8.74971e+20
-42.8749  8.57567e+20
-42.7576  8.42567e+20
-42.6403  8.31486e+20
-42.523  8.25516e+20
-42.4057  8.25536e+20
-42.2884  8.31978e+20
-42.171  8.44973e+20
-42.0537  8.64481e+20
-41.9364  8.89658e+20
-41.8191  9.1949e+20
-41.7018  9.52399e+20
-41.5845  9.86659e+20
-41.4672  1.02049e+21
-41.3499  1.05219e+21
-41.2326  1.08024e+21
-41.1153  1.10392e+21
-40.998  1.12279e+21
-40.8807  1.13716e+21
-40.7634  1.14772e+21
-40.6461  1.15558e+21
-40.5288  1.16199e+21
-40.4115  1.16832e+21
-40.2942  1.17592e+21
-40.1769  1.18575e+21
-40.0596  1.1987e+21
-39.9423  1.21533e+21
-39.825  1.23617e+21
-39.7076  1.26108e+21
-39.5903  1.28995e+21
-39.473  1.32179e+21
-39.3557  1.35571e+21
-39.2384  1.39005e+21
-39.1211  1.42313e+21
-39.0038  1.45335e+21
-38.8865  1.47913e+21
-38.7692  1.49932e+21
-38.6519  1.51351e+21
-38.5346  1.52188e+21
-38.4173  1.52547e+21
-38.3  1.52557e+21
-38.1827  1.52447e+21
-38.0654  1.52417e+21
-37.9481  1.52687e+21
-37.8308  1.53446e+21
-37.7135  1.54842e+21
-37.5962  1.56981e+21
-37.4789  1.59896e+21
-37.3615  1.63597e+21
-37.2442  1.68005e+21
-37.1269  1.73013e+21
-37.0096  1.78462e+21
-36.8923  1.84141e+21
-36.775  1.89846e+21
-36.6577  1.95361e+21
-36.5404  2.00452e+21
-36.4231  2.04964e+21
-36.3058  2.0876e+21
-36.1885  2.11785e+21
-36.0712  2.14043e+21
-35.9539  2.15606e+21
-35.8366  2.16636e+21
-35.7193  2.17293e+21
-35.602  2.17808e+21
-35.4847  2.18383e+21
-35.3674  2.19227e+21
-35.2501  2.20492e+21
-35.1328  2.22333e+21
-35.0154  2.24819e+21
-34.8981  2.27998e+21
-34.7808  2.31811e+21
-34.6635  2.36215e+21
-34.5462  2.41064e+21
-34.4289  2.46214e+21
-34.3116  2.51515e+21
-34.1943  2.56794e+21
-34.077  2.61904e+21
-33.9597  2.66751e+21
-33.8424  2.7127e+21
-33.7251  2.75484e+21
-33.6078  2.79414e+21
-33.4905  2.83197e+21
-33.3732  2.86928e+21
-33.2559  2.90769e+21
-33.1386  2.94836e+21
-33.0213  2.99246e+21
-32.904  3.04093e+21
-32.7867  3.0942e+21
-32.6693  3.15226e+21
-32.552  3.21491e+21
-32.4347  3.28142e+21
-32.3174  3.3509e+21
-32.2001  3.42178e+21
-32.0828  3.49273e+21
-31.9655  3.56255e+21
-31.8482  3.62973e+21
-31.7309  3.69329e+21
-31.6136  3.75279e+21
-31.4963  3.80792e+21
-31.379  3.85929e+21
-31.2617  3.90776e+21
-31.1444  3.95486e+21
-31.0271  4.00209e+21
-30.9098  4.05115e+21
-30.7925  4.10367e+21
-30.6752  4.16084e+21
-30.5579  4.22338e+21
-30.4406  4.29154e+21
-30.3232  4.3649e+21
-30.2059  4.4427e+21
-30.0886  4.5228e+21
-29.9713  4.60364e+21
-29.854  4.68267e+21
-29.7367  4.75768e+21
-29.6194  4.82665e+21
-29.5021  4.88797e+21
-29.3848  4.94035e+21
-29.2675  4.98402e+21
-29.1502  5.01907e+21
-29.0329  5.04719e+21
-28.9156  5.07022e+21
-28.7983  5.091e+21
-28.681  5.11209e+21
-28.5637  5.13634e+21
-28.4464  5.16638e+21
-28.3291  5.20436e+21
-28.2118  5.25208e+21
-28.0944  5.31076e+21
-27.9771  5.38026e+21
-27.8598  5.4605e+21
-27.7425  5.54999e+21
-27.6252  5.647e+21
-27.5079  5.74838e+21
-27.3906  5.85116e+21
-27.2733  5.9525e+21
-27.156  6.04947e+21
-27.0387  6.13951e+21
-26.9214  6.2216e+21
-26.8041  6.29474e+21
-26.6868  6.35988e+21
-26.5695  6.41817e+21
-26.4522  6.47162e+21
-26.3349  6.52274e+21
-26.2176  6.57372e+21
-26.1003  6.62698e+21
-25.983  6.68419e+21
-25.8657  6.74679e+21
-25.7483  6.8152e+21
-25.631  6.88976e+21
-25.5137  6.97021e+21
-25.3964  7.05488e+21
-25.2791  7.14281e+21
-25.1618  7.23171e+21
-25.0445  7.31961e+21
-24.9272  7.40416e+21
-24.8099  7.4835e+21
-24.6926  7.55569e+21
-24.5753  7.62061e+21
-24.458  7.6774e+21
-24.3407  7.7277e+21
-24.2234  7.77291e+21
-24.1061  7.81593e+21
-23.9888  7.85928e+21
-23.8715  7.90587e+21
-23.7542  7.95836e+21
-23.6369  8.01896e+21
-23.5196  8.08906e+21
-23.4023  8.16995e+21
-23.2849  8.26098e+21
-23.1676  8.36189e+21
-23.0503  8.47097e+21
-22.933  8.58646e+21
-22.8157  8.70534e+21
-22.6984  8.8244e+21
-22.5811  8.94095e+21
-22.4638  9.0522e+21
-22.3465  9.15526e+21
-22.2292  9.24916e+21
-22.1119  9.33297e+21
-21.9946  9.40746e+21
-21.8773  9.47401e+21
-21.76  9.5345e+21
-21.6427  9.59202e+21
-21.5254  9.64897e+21
-21.4081  9.70829e+21
-21.2908  9.77205e+21
-21.1735  9.84221e+21
-21.0561  9.91946e+21
-20.9388  1.00048e+22
-20.8215  1.00985e+22
-20.7042  1.01994e+22
-20.5869  1.03068e+22
-20.4696  1.04188e+22
-20.3523  1.05333e+22
-20.235  1.06472e+22
-20.1177  1.07579e+22
-20.0004  1.08622e+22
-19.8831  1.09583e+22
-19.7658  1.1044e+22
-19.6485  1.11193e+22
-19.5312  1.11848e+22
-19.4139  1.12424e+22
-19.2966  1.12945e+22
-19.1793  1.13441e+22
-19.062  1.13945e+22
-18.9447  1.14482e+22
-18.8274  1.15072e+22
-18.71  1.15738e+22
-18.5927  1.16476e+22
-18.4754  1.1729e+22
-18.3581  1.18176e+22
-18.2408  1.19122e+22
-18.1235  1.20116e+22
-18.0062  1.21135e+22
-17.8889  1.22162e+22
-17.7716  1.23177e+22
-17.6543  1.24151e+22
-17.537  1.25068e+22
-17.4197  1.25906e+22
-17.3024  1.26654e+22
-17.1851  1.27305e+22
-17.0678  1.27861e+22
-16.9505  1.28336e+22
-16.8332  1.28745e+22
-16.7159  1.29118e+22
-16.5986  1.2948e+22
-16.4813  1.29856e+22
-16.364  1.30271e+22
-16.2466  1.30747e+22
-16.1293  1.31302e+22
-16.012  1.31941e+22
-15.8947  1.32672e+22
-15.7774  1.33492e+22
-15.6601  1.344e+22
-15.5428  1.35379e+22
-15.4255  1.36417e+22
-15.3082  1.37494e+22
-15.1909  1.38596e+22
-15.0736  1.39694e+22
-14.9563  1.40774e+22
-14.839  1.41816e+22
-14.7217  1.42807e+22
-14.6044  1.43734e+22
-14.4871  1.44595e+22
-14.3698  1.45387e+22
-14.2525  1.46109e+22
-14.1352  1.46768e+22
-14.0178  1.47375e+22
-13.9005  1.47935e+22
-13.7832  1.48455e+22
-13.6659  1.4895e+22
-13.5486  1.49424e+22
-13.4313  1.49887e+22
-13.314  1.50345e+22
-13.1967  1.50798e+22
-13.0794  1.51256e+22
-12.9621  1.5171e+22
-12.8448  1.52167e+22
-12.7275  1.52621e+22
-12.6102  1.53071e+22
-12.4929  1.5352e+22
-12.3756  1.53963e+22
-12.2583  1.54408e+22
-12.141  1.54862e+22
-12.0237  1.55332e+22
-11.9064  1.55825e+22
-11.7891  1.56353e+22
-11.6718  1.56925e+22
-11.5544  1.57548e+22
-11.4371  1.58237e+22
-11.3198  1.58993e+22
-11.2025  1.5982e+22
-11.0852  1.60723e+22
-10.9679  1.61699e+22
-10.8506  1.62739e+22
-10.7333  1.63828e+22
-10.616  1.6495e+22
-10.4987  1.66088e+22
-10.3814  1.67211e+22
-10.2641  1.68293e+22
-10.1468  1.6931e+22
-10.0295  1.70237e+22
-9.91217  1.71054e+22
-9.79487  1.71746e+22
-9.67756  1.72306e+22
-9.56026  1.7273e+22
-9.44295  1.73022e+22
-9.32565  1.73196e+22
-9.20834  1.73266e+22
-9.09104  1.73252e+22
-8.97373  1.73183e+22
-8.85643  1.73081e+22
-8.73913  1.7298e+22
-8.62182  1.72906e+22
-8.50452  1.72883e+22
-8.38721  1.72935e+22
-8.26991  1.73073e+22
-8.1526  1.73309e+22
-8.03529  1.73641e+22
-7.91799  1.74065e+22
-7.80069  1.74569e+22
-7.68338  1.75137e+22
-7.56608  1.75753e+22
-7.44877  1.76396e+22
-7.33146  1.77047e+22
-7.21416  1.77686e+22
-7.09685  1.78298e+22
-6.97955  1.78868e+22
-6.86224  1.79386e+22
-6.74494  1.7985e+22
-6.62763  1.80257e+22
-6.51033  1.80611e+22
-6.39302  1.80922e+22
-6.27572  1.812e+22
-6.15842  1.81457e+22
-6.04111  1.81701e+22
-5.92381  1.81948e+22
-5.8065  1.82206e+22
-5.68919  1.82478e+22
-5.57189  1.82767e+22
-5.45458  1.83078e+22
-5.33728  1.83405e+22
-5.21997  1.83746e+22
-5.10267  1.84096e+22
-4.98536  1.84447e+22
-4.86806  1.84791e+22
-4.75075  1.85116e+22
-4.63345  1.85417e+22
-4.51614  1.85685e+22
-4.39884  1.85914e+22
-4.28154  1.86107e+22
-4.16423  1.86263e+22
-4.04692  1.86396e+22
-3.92962  1.86514e+22
-3.81231  1.86628e+22
-3.69501  1.8675e+22
-3.5777  1.86885e+22
-3.4604  1.87037e+22
-3.34309  1.87204e+22
-3.22579  1.8738e+22
-3.10849  1.87559e+22
-2.99118  1.87734e+22
-2.87387  1.87902e+22
-2.75657  1.8806e+22
-2.63926  1.88206e+22
-2.52196  1.88341e+22
-2.40465  1.88469e+22
-2.28735  1.8859e+22
-2.17005  1.88708e+22
-2.05274  1.88826e+22
-1.93544  1.88951e+22
-1.81813  1.89086e+22
-1.70083  1.89243e+22
-1.58352  1.89428e+22
-1.46622  1.89653e+22
-1.34891  1.89919e+22
-1.2316  1.90234e+22
-1.1143  1.90591e+22
-0.996995  1.90983e+22
-0.87969  1.91391e+22
-0.762385  1.91802e+22
-0.64508  1.9219e+22
-0.527775  1.9254e+22
-0.41047  1.92839e+22
-0.293165  1.9307e+22
-0.17586  1.9323e+22
-0.058555  1.93312e+22
0.05875  1.93313e+22
0.176055  1.93237e+22
0.29336  1.93082e+22
0.410665  1.92856e+22
0.52797  1.92562e+22
0.645275  1.92217e+22
0.76258  1.91834e+22
0.879885  1.91432e+22
0.99719  1.91029e+22
1.1145  1.90647e+22
1.2318  1.90298e+22
1.3491  1.89993e+22
1.46641  1.89736e+22
1.58371  1.89522e+22
1.70102  1.89347e+22
1.81832  1.89202e+22
1.93563  1.8908e+22
2.05294  1.88967e+22
2.17024  1.8886e+22
2.28754  1.88754e+22
2.40485  1.88644e+22
2.52216  1.88528e+22
2.63946  1.88403e+22
2.75677  1.88267e+22
2.87407  1.88118e+22
2.99137  1.87959e+22
3.10868  1.8779e+22
3.22599  1.87618e+22
3.34329  1.87446e+22
3.4606  1.87286e+22
3.5779  1.87137e+22
3.69521  1.87008e+22
3.81251  1.86889e+22
3.92982  1.8678e+22
4.04712  1.86665e+22
4.16443  1.86536e+22
4.28173  1.86383e+22
4.39903  1.86196e+22
4.51634  1.85974e+22
4.63364  1.85715e+22
4.75095  1.85421e+22
4.86825  1.85104e+22
4.98556  1.84772e+22
5.10286  1.84432e+22
5.22017  1.84094e+22
5.33748  1.83763e+22
5.45478  1.8345e+22
5.57209  1.83153e+22
5.68939  1.82873e+22
5.8067  1.82613e+22
5.924  1.82366e+22
6.0413  1.82128e+22
6.15861  1.8189e+22
6.27591  1.81641e+22
6.39322  1.8137e+22
6.51052  1.81065e+22
6.62783  1.80716e+22
6.74514  1.80313e+22
6.86244  1.79854e+22
6.97975  1.79338e+22
7.09705  1.78772e+22
7.21436  1.78165e+22
7.33166  1.7753e+22
7.44897  1.76885e+22
7.56627  1.76249e+22
7.68358  1.7564e+22
7.80088  1.75078e+22
7.91819  1.74583e+22
8.03549  1.74168e+22
8.1528  1.73847e+22
8.2701  1.7362e+22
8.38741  1.73492e+22
8.50471  1.73451e+22
8.62202  1.73483e+22
8.73932  1.73566e+22
8.85662  1.73677e+22
8.97393  1.73786e+22
9.09123  1.73863e+22
9.20854  1.73884e+22
9.32584  1.73823e+22
9.44315  1.73652e+22
9.56045  1.73364e+22
9.67776  1.72945e+22
9.79506  1.72388e+22
9.91237  1.71699e+22
10.0297  1.70885e+22
10.147  1.69963e+22
10.2643  1.68951e+22
10.3816  1.67871e+22
10.4989  1.66755e+22
10.6162  1.65623e+22
10.7335  1.64506e+22
10.8508  1.63421e+22
10.9681  1.6239e+22
11.0854  1.61423e+22
11.2027  1.60529e+22
11.32  1.59708e+22
11.4373  1.58961e+22
11.5546  1.58282e+22
11.6719  1.57664e+22
11.7893  1.57101e+22
11.9066  1.56581e+22
12.0239  1.56094e+22
12.1412  1.55631e+22
12.2585  1.55184e+22
12.3758  1.54743e+22
12.4931  1.54303e+22
12.6104  1.53861e+22
12.7277  1.53418e+22
12.845  1.5297e+22
12.9623  1.52517e+22
13.0796  1.52067e+22
13.1969  1.51617e+22
13.3142  1.51167e+22
13.4315  1.50715e+22
13.5488  1.5026e+22
13.6661  1.4979e+22
13.7834  1.49302e+22
13.9007  1.48786e+22
14.018  1.48234e+22
14.1354  1.47631e+22
14.2527  1.46975e+22
14.37  1.46257e+22
14.4873  1.45468e+22
14.6046  1.44611e+22
14.7219  1.43686e+22
14.8392  1.42698e+22
14.9565  1.41659e+22
15.0738  1.40581e+22
15.1911  1.39485e+22
15.3084  1.38388e+22
15.4257  1.37313e+22
15.543  1.36279e+22
15.6603  1.35304e+22
15.7776  1.34405e+22
15.8949  1.33591e+22
16.0122  1.32864e+22
16.1295  1.3223e+22
16.2468  1.31684e+22
16.3641  1.31211e+22
16.4815  1.30802e+22
16.5988  1.30431e+22
16.7161  1.30073e+22
16.8334  1.29702e+22
16.9507  1.29293e+22
17.068  1.28817e+22
17.1853  1.28259e+22
17.3026  1.27606e+22
17.4199  1.2686e+22
17.5372  1.2602e+22
17.6545  1.25102e+22
17.7718  1.24125e+22
17.8891  1.23114e+22
18.0064  1.22086e+22
18.1237  1.21068e+22
18.241  1.2008e+22
18.3583  1.19138e+22
18.4756  1.18257e+22
18.5929  1.17447e+22
18.7102  1.16717e+22
18.8275  1.16059e+22
18.9449  1.15471e+22
19.0622  1.1494e+22
19.1795  1.14438e+22
19.2968  1.13946e+22
19.4141  1.13425e+22
19.5314  1.12849e+22
19.6487  1.12193e+22
19.766  1.11436e+22
19.8833  1.10575e+22
20.0006  1.09613e+22
20.1179  1.08566e+22
20.2352  1.07458e+22
20.3525  1.06316e+22
20.4698  1.05175e+22
20.5871  1.04056e+22
20.7044  1.02982e+22
20.8217  1.01975e+22
20.939  1.01043e+22
21.0563  1.00191e+22
21.1736  9.94217e+21
21.291  9.87251e+21
21.4083  9.80889e+21
21.5256  9.74961e+21
21.6429  9.69269e+21
21.7602  9.63499e+21
21.8775  9.57398e+21
21.9948  9.50702e+21
22.1121  9.43215e+21
22.2294  9.34766e+21
22.3467  9.25312e+21
22.464  9.14916e+21
22.5813  9.03761e+21
22.6986  8.92023e+21
22.8159  8.80062e+21
22.9332  8.68168e+21
23.0505  8.56622e+21
23.1678  8.45699e+21
23.2851  8.35614e+21
23.4024  8.26528e+21
23.5198  8.18487e+21
23.6371  8.11472e+21
23.7544  8.05442e+21
23.8717  8.00193e+21
23.989  7.95555e+21
24.1063  7.91219e+21
24.2236  7.86896e+21
24.3409  7.8234e+21
24.4582  7.77264e+21
24.5755  7.71517e+21
24.6928  7.64991e+21
24.8101  7.57692e+21
24.9274  7.49711e+21
25.0447  7.41174e+21
25.162  7.32351e+21
25.2793  7.23413e+21
25.3966  7.14572e+21
25.5139  7.0606e+21
25.6312  6.98022e+21
25.7485  6.90531e+21
25.8658  6.83672e+21
25.9832  6.77405e+21
26.1005  6.71659e+21
26.2178  6.66302e+21
26.3351  6.61168e+21
26.4524  6.56015e+21
26.5697  6.50601e+21
26.687  6.44693e+21
26.8043  6.38112e+21
26.9216  6.30703e+21
27.0389  6.22421e+21
27.1562  6.13303e+21
27.2735  6.03536e+21
27.3908  5.93306e+21
27.5081  5.82957e+21
27.6254  5.7278e+21
27.7427  5.63064e+21
27.86  5.54088e+21
27.9773  5.46053e+21
28.0946  5.39093e+21
28.212  5.33261e+21
28.3293  5.28488e+21
28.4466  5.24696e+21
28.5639  5.21695e+21
28.6812  5.19274e+21
28.7985  5.17154e+21
28.9158  5.15045e+21
29.0331  5.1269e+21
29.1504  5.09818e+21
29.2677  5.0623e+21
29.385  5.01793e+21
29.5023  4.96444e+21
29.6196  4.90226e+21
29.7369  4.83216e+21
29.8542  4.7562e+21
29.9715  4.67624e+21
30.0888  4.59443e+21
30.2061  4.51335e+21
30.3234  4.43515e+21
30.4407  4.36114e+21
30.558  4.29247e+21
30.6754  4.22948e+21
30.7927  4.17193e+21
30.91  4.11904e+21
31.0273  4.06953e+21
31.1446  4.0219e+21
31.2619  3.97436e+21
31.3792  3.92516e+21
31.4965  3.87322e+21
31.6138  3.81741e+21
31.7311  3.75728e+21
31.8484  3.69277e+21
31.9657  3.62477e+21
32.083  3.55415e+21
32.2003  3.48231e+21
32.3176  3.41073e+21
32.4349  3.34062e+21
32.5522  3.27341e+21
32.6695  3.2101e+21
32.7868  3.15138e+21
32.9042  3.09773e+21
33.0215  3.04869e+21
33.1388  3.00403e+21
33.2561  2.96285e+21
33.3734  2.92388e+21
33.4907  2.886e+21
33.608  2.84754e+21
33.7253  2.80742e+21
33.8426  2.76458e+21
33.9599  2.71845e+21
34.0772  2.66913e+21
34.1945  2.61722e+21
34.3118  2.56366e+21
34.4291  2.50992e+21
34.5464  2.45763e+21
34.6637  2.40852e+21
34.781  2.36392e+21
34.8983  2.3252e+21
35.0156  2.29315e+21
35.1329  2.268e+21
35.2503  2.24929e+21
35.3676  2.23628e+21
35.4849  2.2276e+21
35.6022  2.22152e+21
35.7195  2.21601e+21
35.8368  2.20888e+21
35.9541  2.19813e+21
36.0714  2.18164e+21
36.1887  2.15833e+21
36.306  2.12731e+21
36.4233  2.08842e+21
36.5406  2.04233e+21
36.6579  1.99039e+21
36.7752  1.93445e+21
36.8925  1.87649e+21
37.0098  1.81892e+21
37.1271  1.76381e+21
37.2444  1.71315e+21
37.3617  1.66859e+21
37.479  1.63125e+21
37.5964  1.6018e+21
37.7137  1.58021e+21
37.831  1.56603e+21
37.9483  1.55835e+21
38.0656  1.55541e+21
38.1829  1.55551e+21
38.3002  1.55635e+21
38.4175  1.55569e+21
38.5348  1.55167e+21
38.6521  1.54264e+21
38.7694  1.52775e+21
38.8867  1.50687e+21
39.004  1.48029e+21
39.1213  1.4494e+21
39.2386  1.41546e+21
39.3559  1.38045e+21
39.4732  1.34594e+21
39.5905  1.31349e+21
39.7078  1.28418e+21
39.8251  1.25888e+21
39.9425  1.23769e+21
40.0598  1.22065e+21
40.1771  1.20744e+21
40.2944  1.19738e+21
40.4117  1.18955e+21
40.529  1.18284e+21
40.6463  1.17612e+21
40.7636  1.16782e+21
40.8809  1.15676e+21
40.9982  1.14193e+21
41.1155  1.12245e+21
41.2328  1.09817e+21
41.3501  1.06941e+21
41.4674  1.03714e+21
41.5847  1.0027e+21
41.702  9.67867e+20
41.8193  9.34512e+20
41.9366  9.04346e+20
42.0539  8.78864e+20
42.1712  8.59235e+20
42.2885  8.45985e+20
42.4059  8.3954e+20
42.5232  8.39475e+20
42.6405  8.455e+20
42.7578  8.56511e+20
42.8751  8.7145e+20
42.9924  8.88826e+20
43.1097  9.06795e+20
43.227  9.23479e+20
43.3443  9.36969e+20
43.4616  9.45428e+20
43.5789  9.47489e+20
43.6962  9.42131e+20
43.8135  9.29275e+20
43.9308  9.09247e+20
44.0481  8.83267e+20
44.1654  8.52842e+20
44.2827  8.1992e+20
44.4  7.86303e+20
44.5173  7.53809e+20
44.6347  7.2378e+20
44.752  6.97223e+20
44.8693  6.74869e+20
44.9866  6.56967e+20
45.1039  6.43485e+20
45.2212  6.34154e+20
45.3385  6.28757e+20
45.4558  6.26576e+20
45.5731  6.27058e+20
45.6904  6.29563e+20
45.8077  6.33305e+20
45.925  6.37682e+20
46.0423  6.42035e+20
46.1596  6.45913e+20
46.2769  6.49133e+20
46.3942  6.51451e+20
46.5115  6.53058e+20
46.6288  6.53957e+20
46.7461  6.54379e+20
46.8634  6.54409e+20
46.9808  6.5403e+20
47.0981  6.53451e+20
47.2154  6.5238e+20
47.3327  6.50994e+20
47.45  6.491e+20
47.5673  6.46712e+20
47.6846  6.43862e+20
47.8019  6.40341e+20
47.9192  6.36069e+20
48.0365  6.30958e+20
48.1538  6.24782e+20
48.2711  6.17436e+20
48.3884  6.08846e+20
48.5057  5.99188e+20
48.623  5.88731e+20
48.7403  5.77897e+20
48.8576  5.67183e+20
48.9749  5.57118e+20
49.0922  5.48101e+20
49.2095  5.40385e+20
49.3269  5.34251e+20
49.4442  5.29328e+20
49.5615  5.25773e+20
49.6788  5.23301e+20
49.7961  5.21675e+20
49.9134  5.20783e+20
50.0307  5.20474e+20
50.148  5.2068e+20
50.2653  5.2117e+20
50.3826  5.21799e+20
50.4999  5.22279e+20
50.6172  5.22356e+20
50.7345  5.21701e+20
50.8518  5.20133e+20
