#S 1 spectral density
#N 2
#UFWHM 72.2599
#L  abscissas [um]  spectral density
-58.5938  1.69051e+21
-58.4764  1.705e+21
-58.3591  1.71838e+21
-58.2418  1.72945e+21
-58.1245  1.73738e+21
-58.0072  1.7411e+21
-57.8899  1.74029e+21
-57.7726  1.73481e+21
-57.6553  1.72519e+21
-57.538  1.71239e+21
-57.4207  1.69793e+21
-57.3034  1.68322e+21
-57.1861  1.66983e+21
-57.0688  1.6588e+21
-56.9515  1.65115e+21
-56.8342  1.64721e+21
-56.7169  1.64699e+21
-56.5996  1.65041e+21
-56.4823  1.657e+21
-56.365  1.66627e+21
-56.2477  1.67806e+21
-56.1303  1.69213e+21
-56.013  1.70836e+21
-55.8957  1.72677e+21
-55.7784  1.74726e+21
-55.6611  1.76996e+21
-55.5438  1.79485e+21
-55.4265  1.82201e+21
-55.3092  1.85161e+21
-55.1919  1.88373e+21
-55.0746  1.91855e+21
-54.9573  1.9562e+21
-54.84  1.99667e+21
-54.7227  2.03991e+21
-54.6054  2.08513e+21
-54.4881  2.13186e+21
-54.3708  2.17919e+21
-54.2535  2.22568e+21
-54.1362  2.26983e+21
-54.0189  2.31045e+21
-53.9016  2.34595e+21
-53.7842  2.37549e+21
-53.6669  2.39817e+21
-53.5496  2.41359e+21
-53.4323  2.422e+21
-53.315  2.42369e+21
-53.1977  2.41967e+21
-53.0804  2.41106e+21
-52.9631  2.39916e+21
-52.8458  2.38526e+21
-52.7285  2.37093e+21
-52.6112  2.35711e+21
-52.4939  2.34486e+21
-52.3766  2.33475e+21
-52.2593  2.3275e+21
-52.142  2.32335e+21
-52.0247  2.32257e+21
-51.9074  2.32554e+21
-51.7901  2.33235e+21
-51.6728  2.34299e+21
-51.5555  2.35784e+21
-51.4381  2.37697e+21
-51.3208  2.40032e+21
-51.2035  2.42801e+21
-51.0862  2.45973e+21
-50.9689  2.49551e+21
-50.8516  2.53506e+21
-50.7343  2.57812e+21
-50.617  2.62429e+21
-50.4997  2.6727e+21
-50.3824  2.72252e+21
-50.2651  2.77237e+21
-50.1478  2.8206e+21
-50.0305  2.86567e+21
-49.9132  2.90547e+21
-49.7959  2.93892e+21
-49.6786  2.96517e+21
-49.5613  2.98379e+21
-49.444  2.99528e+21
-49.3267  3.00102e+21
-49.2094  3.00262e+21
-49.092  3.00271e+21
-48.9747  3.00347e+21
-48.8574  3.00719e+21
-48.7401  3.01604e+21
-48.6228  3.03129e+21
-48.5055  3.05386e+21
-48.3882  3.08393e+21
-48.2709  3.12083e+21
-48.1536  3.16338e+21
-48.0363  3.21001e+21
-47.919  3.25819e+21
-47.8017  3.30554e+21
-47.6844  3.34935e+21
-47.5671  3.38733e+21
-47.4498  3.41746e+21
-47.3325  3.43851e+21
-47.2152  3.45032e+21
-47.0979  3.45351e+21
-46.9806  3.44933e+21
-46.8633  3.44057e+21
-46.7459  3.43011e+21
-46.6286  3.42097e+21
-46.5113  3.41644e+21
-46.394  3.41883e+21
-46.2767  3.43045e+21
-46.1594  3.45226e+21
-46.0421  3.48452e+21
-45.9248  3.52654e+21
-45.8075  3.57626e+21
-45.6902  3.63128e+21
-45.5729  3.68826e+21
-45.4556  3.74346e+21
-45.3383  3.79333e+21
-45.221  3.8342e+21
-45.1037  3.86391e+21
-44.9864  3.88106e+21
-44.8691  3.88531e+21
-44.7518  3.87788e+21
-44.6345  3.86138e+21
-44.5172  3.83907e+21
-44.3998  3.81547e+21
-44.2825  3.79459e+21
-44.1652  3.78053e+21
-44.0479  3.777e+21
-43.9306  3.78644e+21
-43.8133  3.81044e+21
-43.696  3.84965e+21
-43.5787  3.90334e+21
-43.4614  3.96983e+21
-43.3441  4.04681e+21
-43.2268  4.13057e+21
-43.1095  4.21732e+21
-42.9922  4.30281e+21
-42.8749  4.38278e+21
-42.7576  4.4533e+21
-42.6403  4.51137e+21
-42.523  4.55513e+21
-42.4057  4.58386e+21
-42.2884  4.59784e+21
-42.171  4.59927e+21
-42.0537  4.59098e+21
-41.9364  4.57606e+21
-41.8191  4.55829e+21
-41.7018  4.54032e+21
-41.5845  4.52512e+21
-41.4672  4.51426e+21
-41.3499  4.50881e+21
-41.2326  4.50913e+21
-41.1153  4.5146e+21
-40.998  4.5248e+21
-40.8807  4.53873e+21
-40.7634  4.55517e+21
-40.6461  4.57328e+21
-40.5288  4.5919e+21
-40.4115  4.6109e+21
-40.2942  4.63019e+21
-40.1769  4.64998e+21
-40.0596  4.67106e+21
-39.9423  4.69477e+21
-39.825  4.72255e+21
-39.7076  4.75636e+21
-39.5903  4.79739e+21
-39.473  4.84644e+21
-39.3557  4.90385e+21
-39.2384  4.96867e+21
-39.1211  5.03908e+21
-39.0038  5.11275e+21
-38.8865  5.18647e+21
-38.7692  5.25695e+21
-38.6519  5.3216e+21
-38.5346  5.3774e+21
-38.4173  5.42282e+21
-38.3  5.4571e+21
-38.1827  5.48003e+21
-38.0654  5.49253e+21
-37.9481  5.4961e+21
-37.8308  5.49287e+21
-37.7135  5.48528e+21
-37.5962  5.47557e+21
-37.4789  5.46661e+21
-37.3615  5.46102e+21
-37.2442  5.46061e+21
-37.1269  5.46737e+21
-37.0096  5.48166e+21
-36.8923  5.50415e+21
-36.775  5.53405e+21
-36.6577  5.57005e+21
-36.5404  5.61052e+21
-36.4231  5.65312e+21
-36.3058  5.69625e+21
-36.1885  5.73826e+21
-36.0712  5.77773e+21
-35.9539  5.81436e+21
-35.8366  5.84795e+21
-35.7193  5.87965e+21
-35.602  5.91063e+21
-35.4847  5.94228e+21
-35.3674  5.97597e+21
-35.2501  6.01294e+21
-35.1328  6.05401e+21
-35.0154  6.09988e+21
-34.8981  6.15021e+21
-34.7808  6.20374e+21
-34.6635  6.2592e+21
-34.5462  6.31431e+21
-34.4289  6.3664e+21
-34.3116  6.413e+21
-34.1943  6.45146e+21
-34.077  6.47968e+21
-33.9597  6.49697e+21
-33.8424  6.50251e+21
-33.7251  6.49751e+21
-33.6078  6.48389e+21
-33.4905  6.46438e+21
-33.3732  6.44244e+21
-33.2559  6.42182e+21
-33.1386  6.40615e+21
-33.0213  6.39879e+21
-32.904  6.40196e+21
-32.7867  6.41761e+21
-32.6693  6.4466e+21
-32.552  6.48848e+21
-32.4347  6.54238e+21
-32.3174  6.60558e+21
-32.2001  6.67592e+21
-32.0828  6.75002e+21
-31.9655  6.82454e+21
-31.8482  6.89627e+21
-31.7309  6.96209e+21
-31.6136  7.0202e+21
-31.4963  7.06917e+21
-31.379  7.10829e+21
-31.2617  7.13809e+21
-31.1444  7.15943e+21
-31.0271  7.17429e+21
-30.9098  7.18476e+21
-30.7925  7.19286e+21
-30.6752  7.2004e+21
-30.5579  7.20875e+21
-30.4406  7.21884e+21
-30.3232  7.2313e+21
-30.2059  7.24612e+21
-30.0886  7.26189e+21
-29.9713  7.27804e+21
-29.854  7.29307e+21
-29.7367  7.30555e+21
-29.6194  7.31479e+21
-29.5021  7.31997e+21
-29.3848  7.32116e+21
-29.2675  7.31978e+21
-29.1502  7.31676e+21
-29.0329  7.31453e+21
-28.9156  7.31557e+21
-28.7983  7.32227e+21
-28.681  7.33708e+21
-28.5637  7.36187e+21
-28.4464  7.39771e+21
-28.3291  7.44512e+21
-28.2118  7.50317e+21
-28.0944  7.57063e+21
-27.9771  7.64525e+21
-27.8598  7.72396e+21
-27.7425  7.80343e+21
-27.6252  7.87903e+21
-27.5079  7.94745e+21
-27.3906  8.00492e+21
-27.2733  8.04832e+21
-27.156  8.07598e+21
-27.0387  8.0869e+21
-26.9214  8.08254e+21
-26.8041  8.06521e+21
-26.6868  8.03839e+21
-26.5695  8.00661e+21
-26.4522  7.9745e+21
-26.3349  7.94713e+21
-26.2176  7.92857e+21
-26.1003  7.9218e+21
-25.983  7.92867e+21
-25.8657  7.94967e+21
-25.7483  7.98431e+21
-25.631  8.03117e+21
-25.5137  8.08862e+21
-25.3964  8.15304e+21
-25.2791  8.22191e+21
-25.1618  8.29205e+21
-25.0445  8.36029e+21
-24.9272  8.42426e+21
-24.8099  8.48152e+21
-24.6926  8.53078e+21
-24.5753  8.57206e+21
-24.458  8.60514e+21
-24.3407  8.63154e+21
-24.2234  8.65306e+21
-24.1061  8.67171e+21
-23.9888  8.68963e+21
-23.8715  8.70861e+21
-23.7542  8.72974e+21
-23.6369  8.75378e+21
-23.5196  8.78032e+21
-23.4023  8.80901e+21
-23.2849  8.83884e+21
-23.1676  8.86873e+21
-23.0503  8.89766e+21
-22.933  8.92363e+21
-22.8157  8.94619e+21
-22.6984  8.96417e+21
-22.5811  8.97681e+21
-22.4638  8.98399e+21
-22.3465  8.98555e+21
-22.2292  8.98275e+21
-22.1119  8.97693e+21
-21.9946  8.96988e+21
-21.8773  8.96374e+21
-21.76  8.96044e+21
-21.6427  8.96227e+21
-21.5254  8.97044e+21
-21.4081  8.98544e+21
-21.2908  9.00698e+21
-21.1735  9.03418e+21
-21.0561  9.06598e+21
-20.9388  9.10095e+21
-20.8215  9.13862e+21
-20.7042  9.17695e+21
-20.5869  9.21566e+21
-20.4696  9.25397e+21
-20.3523  9.29113e+21
-20.235  9.32677e+21
-20.1177  9.35994e+21
-20.0004  9.39035e+21
-19.8831  9.41809e+21
-19.7658  9.44282e+21
-19.6485  9.46534e+21
-19.5312  9.48671e+21
-19.4139  9.50798e+21
-19.2966  9.5304e+21
-19.1793  9.55484e+21
-19.062  9.58146e+21
-18.9447  9.6099e+21
-18.8274  9.63879e+21
-18.71  9.66655e+21
-18.5927  9.69158e+21
-18.4754  9.71223e+21
-18.3581  9.72806e+21
-18.2408  9.738e+21
-18.1235  9.74333e+21
-18.0062  9.74514e+21
-17.8889  9.74489e+21
-17.7716  9.74455e+21
-17.6543  9.74527e+21
-17.537  9.7488e+21
-17.4197  9.75582e+21
-17.3024  9.76648e+21
-17.1851  9.78074e+21
-17.0678  9.7978e+21
-16.9505  9.81762e+21
-16.8332  9.83917e+21
-16.7159  9.86134e+21
-16.5986  9.88284e+21
-16.4813  9.90241e+21
-16.364  9.91895e+21
-16.2466  9.9312e+21
-16.1293  9.93951e+21
-16.012  9.94276e+21
-15.8947  9.94191e+21
-15.7774  9.93803e+21
-15.6601  9.9326e+21
-15.5428  9.92764e+21
-15.4255  9.92499e+21
-15.3082  9.92678e+21
-15.1909  9.9349e+21
-15.0736  9.95007e+21
-14.9563  9.97319e+21
-14.839  1.00044e+22
-14.7217  1.0043e+22
-14.6044  1.00881e+22
-14.4871  1.01383e+22
-14.3698  1.0192e+22
-14.2525  1.02472e+22
-14.1352  1.03017e+22
-14.0178  1.03535e+22
-13.9005  1.04011e+22
-13.7832  1.04426e+22
-13.6659  1.04779e+22
-13.5486  1.05056e+22
-13.4313  1.05263e+22
-13.314  1.05405e+22
-13.1967  1.0549e+22
-13.0794  1.05531e+22
-12.9621  1.05536e+22
-12.8448  1.05523e+22
-12.7275  1.05501e+22
-12.6102  1.05477e+22
-12.4929  1.05457e+22
-12.3756  1.05443e+22
-12.2583  1.05441e+22
-12.141  1.05448e+22
-12.0237  1.05462e+22
-11.9064  1.05477e+22
-11.7891  1.05487e+22
-11.6718  1.05492e+22
-11.5544  1.05483e+22
-11.4371  1.05472e+22
-11.3198  1.05453e+22
-11.2025  1.05435e+22
-11.0852  1.0543e+22
-10.9679  1.05448e+22
-10.8506  1.055e+22
-10.7333  1.05596e+22
-10.616  1.05743e+22
-10.4987  1.05949e+22
-10.3814  1.06207e+22
-10.2641  1.06516e+22
-10.1468  1.06868e+22
-10.0295  1.07253e+22
-9.91217  1.07659e+22
-9.79487  1.08077e+22
-9.67756  1.08495e+22
-9.56026  1.08904e+22
-9.44295  1.09294e+22
-9.32565  1.09652e+22
-9.20834  1.09979e+22
-9.09104  1.10264e+22
-8.97373  1.10513e+22
-8.85643  1.10718e+22
-8.73913  1.10887e+22
-8.62182  1.1102e+22
-8.50452  1.1112e+22
-8.38721  1.11191e+22
-8.26991  1.11229e+22
-8.1526  1.11239e+22
-8.03529  1.11218e+22
-7.91799  1.1116e+22
-7.80069  1.11065e+22
-7.68338  1.10926e+22
-7.56608  1.10753e+22
-7.44877  1.10544e+22
-7.33146  1.10306e+22
-7.21416  1.10044e+22
-7.09685  1.09767e+22
-6.97955  1.09486e+22
-6.86224  1.09205e+22
-6.74494  1.08945e+22
-6.62763  1.08708e+22
-6.51033  1.08505e+22
-6.39302  1.08348e+22
-6.27572  1.08242e+22
-6.15842  1.08192e+22
-6.04111  1.082e+22
-5.92381  1.08267e+22
-5.8065  1.0839e+22
-5.68919  1.08562e+22
-5.57189  1.08774e+22
-5.45458  1.09022e+22
-5.33728  1.09294e+22
-5.21997  1.09582e+22
-5.10267  1.0988e+22
-4.98536  1.10177e+22
-4.86806  1.10464e+22
-4.75075  1.10731e+22
-4.63345  1.10966e+22
-4.51614  1.11166e+22
-4.39884  1.11319e+22
-4.28154  1.11435e+22
-4.16423  1.11508e+22
-4.04692  1.11554e+22
-3.92962  1.11581e+22
-3.81231  1.11601e+22
-3.69501  1.11624e+22
-3.5777  1.11652e+22
-3.4604  1.11692e+22
-3.34309  1.1174e+22
-3.22579  1.11786e+22
-3.10849  1.11827e+22
-2.99118  1.11851e+22
-2.87387  1.11864e+22
-2.75657  1.11862e+22
-2.63926  1.1185e+22
-2.52196  1.11832e+22
-2.40465  1.11814e+22
-2.28735  1.11803e+22
-2.17005  1.11796e+22
-2.05274  1.11808e+22
-1.93544  1.11831e+22
-1.81813  1.11871e+22
-1.70083  1.11934e+22
-1.58352  1.12024e+22
-1.46622  1.12143e+22
-1.34891  1.12295e+22
-1.2316  1.1248e+22
-1.1143  1.12693e+22
-0.996995  1.12923e+22
-0.87969  1.13157e+22
-0.762385  1.13383e+22
-0.64508  1.13585e+22
-0.527775  1.13755e+22
-0.41047  1.13889e+22
-0.293165  1.13983e+22
-0.17586  1.14044e+22
-0.058555  1.14072e+22
0.05875  1.14067e+22
0.176055  1.14032e+22
0.29336  1.13962e+22
0.410665  1.13861e+22
0.52797  1.13719e+22
0.645275  1.13542e+22
0.76258  1.13335e+22
0.879885  1.13106e+22
0.99719  1.1287e+22
1.1145  1.12637e+22
1.2318  1.12425e+22
1.3491  1.12242e+22
1.46641  1.12091e+22
1.58371  1.11973e+22
1.70102  1.11884e+22
1.81832  1.11824e+22
1.93563  1.11784e+22
2.05294  1.11762e+22
2.17024  1.11753e+22
2.28754  1.11756e+22
2.40485  1.11769e+22
2.52216  1.11782e+22
2.63946  1.11802e+22
2.75677  1.11813e+22
2.87407  1.11812e+22
2.99137  1.11797e+22
3.10868  1.11769e+22
3.22599  1.11726e+22
3.34329  1.11676e+22
3.4606  1.11628e+22
3.5779  1.11586e+22
3.69521  1.11554e+22
3.81251  1.11529e+22
3.92982  1.11506e+22
4.04712  1.11475e+22
4.16443  1.11424e+22
4.28173  1.11344e+22
4.39903  1.11223e+22
4.51634  1.11062e+22
4.63364  1.10858e+22
4.75095  1.10616e+22
4.86825  1.10345e+22
4.98556  1.10052e+22
5.10286  1.09752e+22
5.22017  1.0945e+22
5.33748  1.09158e+22
5.45478  1.08883e+22
5.57209  1.08635e+22
5.68939  1.08421e+22
5.8067  1.08248e+22
5.924  1.08125e+22
6.0413  1.08058e+22
6.15861  1.08049e+22
6.27591  1.08097e+22
6.39322  1.08201e+22
6.51052  1.08358e+22
6.62783  1.08557e+22
6.74514  1.08792e+22
6.86244  1.09051e+22
6.97975  1.09324e+22
7.09705  1.09604e+22
7.21436  1.09872e+22
7.33166  1.10132e+22
7.44897  1.10366e+22
7.56627  1.10569e+22
7.68358  1.10739e+22
7.80088  1.10872e+22
7.91819  1.10964e+22
8.03549  1.11019e+22
8.1528  1.11041e+22
8.2701  1.1103e+22
8.38741  1.10989e+22
8.50471  1.10919e+22
8.62202  1.10819e+22
8.73932  1.10687e+22
8.85662  1.10518e+22
8.97393  1.10312e+22
9.09123  1.10064e+22
9.20854  1.09776e+22
9.32584  1.09451e+22
9.44315  1.09089e+22
9.56045  1.08699e+22
9.67776  1.08287e+22
9.79506  1.07867e+22
9.91237  1.07444e+22
10.0297  1.07034e+22
10.147  1.06645e+22
10.2643  1.06289e+22
10.3816  1.05975e+22
10.4989  1.05712e+22
10.6162  1.05503e+22
10.7335  1.0535e+22
10.8508  1.05249e+22
10.9681  1.05192e+22
11.0854  1.05169e+22
11.2027  1.05171e+22
11.32  1.05183e+22
11.4373  1.05199e+22
11.5546  1.05208e+22
11.6719  1.05211e+22
11.7893  1.05207e+22
11.9066  1.0519e+22
12.0239  1.05176e+22
12.1412  1.05162e+22
12.2585  1.05153e+22
12.3758  1.05155e+22
12.4931  1.05167e+22
12.6104  1.05186e+22
12.7277  1.05209e+22
12.845  1.05232e+22
12.9623  1.05244e+22
13.0796  1.05235e+22
13.1969  1.05192e+22
13.3142  1.05105e+22
13.4315  1.04962e+22
13.5488  1.04751e+22
13.6661  1.0447e+22
13.7834  1.04116e+22
13.9007  1.03696e+22
14.018  1.03221e+22
14.1354  1.02699e+22
14.2527  1.02153e+22
14.37  1.016e+22
14.4873  1.01063e+22
14.6046  1.00558e+22
14.7219  1.00106e+22
14.8392  9.97189e+21
14.9565  9.94062e+21
15.0738  9.91731e+21
15.1911  9.90186e+21
15.3084  9.89368e+21
15.4257  9.89152e+21
15.543  9.89373e+21
15.6603  9.89832e+21
15.7776  9.90328e+21
15.8949  9.90685e+21
16.0122  9.9071e+21
16.1295  9.90334e+21
16.2468  9.89485e+21
16.3641  9.88192e+21
16.4815  9.86531e+21
16.5988  9.84513e+21
16.7161  9.82364e+21
16.8334  9.80153e+21
16.9507  9.77984e+21
17.068  9.75993e+21
17.1853  9.74256e+21
17.3026  9.72822e+21
17.4199  9.71754e+21
17.5372  9.71065e+21
17.6545  9.70695e+21
17.7718  9.70591e+21
17.8891  9.70608e+21
18.0064  9.70594e+21
18.1237  9.70395e+21
18.241  9.69811e+21
18.3583  9.68756e+21
18.4756  9.67137e+21
18.5929  9.65023e+21
18.7102  9.62497e+21
18.8275  9.59676e+21
18.9449  9.56769e+21
19.0622  9.53907e+21
19.1795  9.51235e+21
19.2968  9.48777e+21
19.4141  9.46519e+21
19.5314  9.44378e+21
19.6487  9.42229e+21
19.766  9.39957e+21
19.8833  9.37468e+21
20.0006  9.34698e+21
20.1179  9.31636e+21
20.2352  9.28293e+21
20.3525  9.24736e+21
20.4698  9.2101e+21
20.5871  9.17184e+21
20.7044  9.13298e+21
20.8217  9.09444e+21
20.939  9.05696e+21
21.0563  9.02164e+21
21.1736  8.98987e+21
21.291  8.96225e+21
21.4083  8.94075e+21
21.5256  8.92586e+21
21.6429  8.91751e+21
21.7602  8.91544e+21
21.8775  8.91828e+21
21.9948  8.92406e+21
22.1121  8.93079e+21
22.2294  8.93635e+21
22.3467  8.93864e+21
22.464  8.93653e+21
22.5813  8.92897e+21
22.6986  8.91579e+21
22.8159  8.89754e+21
22.9332  8.87456e+21
23.0505  8.84814e+21
23.1678  8.81899e+21
23.2851  8.78885e+21
23.4024  8.75884e+21
23.5198  8.72988e+21
23.6371  8.70317e+21
23.7544  8.67901e+21
23.8717  8.65775e+21
23.989  8.63869e+21
24.1063  8.62055e+21
24.2236  8.60179e+21
24.3409  8.58017e+21
24.4582  8.55354e+21
24.5755  8.52035e+21
24.6928  8.47921e+21
24.8101  8.42973e+21
24.9274  8.37235e+21
25.0447  8.30857e+21
25.162  8.24046e+21
25.2793  8.1706e+21
25.3966  8.10187e+21
25.5139  8.03757e+21
25.6312  7.98069e+21
25.7485  7.93394e+21
25.8658  7.89956e+21
25.9832  7.87858e+21
26.1005  7.87198e+21
26.2178  7.879e+21
26.3351  7.89751e+21
26.4524  7.92456e+21
26.5697  7.9562e+21
26.687  7.98756e+21
26.8043  8.0138e+21
26.9216  8.0307e+21
27.0389  8.03427e+21
27.1562  8.02248e+21
27.2735  7.99422e+21
27.3908  7.95006e+21
27.5081  7.89224e+21
27.6254  7.82337e+21
27.7427  7.74744e+21
27.86  7.66794e+21
27.9773  7.58927e+21
28.0946  7.51483e+21
28.212  7.4475e+21
28.3293  7.38968e+21
28.4466  7.3426e+21
28.5639  7.30704e+21
28.6812  7.28257e+21
28.7985  7.26787e+21
28.9158  7.2614e+21
29.0331  7.26058e+21
29.1504  7.26273e+21
29.2677  7.26576e+21
29.385  7.26726e+21
29.5023  7.26578e+21
29.6196  7.26034e+21
29.7369  7.251e+21
29.8542  7.23829e+21
29.9715  7.22314e+21
30.0888  7.20668e+21
30.2061  7.19048e+21
30.3234  7.17566e+21
30.4407  7.16288e+21
30.558  7.15249e+21
30.6754  7.14375e+21
30.7927  7.13604e+21
30.91  7.12792e+21
31.0273  7.11725e+21
31.1446  7.10199e+21
31.2619  7.0804e+21
31.3792  7.05054e+21
31.4965  7.01129e+21
31.6138  6.96256e+21
31.7311  6.90441e+21
31.8484  6.8386e+21
31.9657  6.76711e+21
32.083  6.69272e+21
32.2003  6.61898e+21
32.3176  6.54886e+21
32.4349  6.48589e+21
32.5522  6.43229e+21
32.6695  6.3906e+21
32.7868  6.36187e+21
32.9042  6.34622e+21
33.0215  6.34304e+21
33.1388  6.35034e+21
33.2561  6.36581e+21
33.3734  6.38617e+21
33.4907  6.4076e+21
33.608  6.42676e+21
33.7253  6.43995e+21
33.8426  6.44431e+21
33.9599  6.43831e+21
34.0772  6.42074e+21
34.1945  6.39205e+21
34.3118  6.35324e+21
34.4291  6.30651e+21
34.5464  6.25437e+21
34.6637  6.19942e+21
34.781  6.144e+21
34.8983  6.09051e+21
35.0156  6.04053e+21
35.1329  5.99496e+21
35.2503  5.95422e+21
35.3676  5.91746e+21
35.4849  5.88409e+21
35.6022  5.85293e+21
35.7195  5.8223e+21
35.8368  5.79071e+21
35.9541  5.75726e+21
36.0714  5.72093e+21
36.1887  5.68165e+21
36.306  5.64009e+21
36.4233  5.59703e+21
36.5406  5.55451e+21
36.6579  5.51431e+21
36.7752  5.47832e+21
36.8925  5.44859e+21
37.0098  5.42614e+21
37.1271  5.4118e+21
37.2444  5.40503e+21
37.3617  5.40527e+21
37.479  5.41085e+21
37.5964  5.4195e+21
37.7137  5.42905e+21
37.831  5.43648e+21
37.9483  5.43955e+21
38.0656  5.43577e+21
38.1829  5.42302e+21
38.3002  5.40009e+21
38.4175  5.36584e+21
38.5348  5.32022e+21
38.6521  5.26453e+21
38.7694  5.20005e+21
38.8867  5.12968e+21
39.004  5.05607e+21
39.1213  4.98268e+21
39.2386  4.91256e+21
39.3559  4.84814e+21
39.4732  4.79096e+21
39.5905  4.74206e+21
39.7078  4.70126e+21
39.8251  4.66769e+21
39.9425  4.64009e+21
40.0598  4.61643e+21
40.1771  4.59538e+21
40.2944  4.57584e+21
40.4117  4.55682e+21
40.529  4.53781e+21
40.6463  4.51923e+21
40.7636  4.50132e+21
40.8809  4.48505e+21
40.9982  4.47146e+21
41.1155  4.46127e+21
41.2328  4.4558e+21
41.3501  4.45561e+21
41.4674  4.4609e+21
41.5847  4.47168e+21
41.702  4.48672e+21
41.8193  4.50443e+21
41.9366  4.52199e+21
42.0539  4.53653e+21
42.1712  4.5446e+21
42.2885  4.54268e+21
42.4059  4.52845e+21
42.5232  4.49959e+21
42.6405  4.45583e+21
42.7578  4.39776e+21
42.8751  4.3274e+21
42.9924  4.24799e+21
43.1097  4.16309e+21
43.227  4.07692e+21
43.3443  3.99398e+21
43.4616  3.91782e+21
43.5789  3.85214e+21
43.6962  3.79908e+21
43.8135  3.76056e+21
43.9308  3.73708e+21
44.0481  3.72808e+21
44.1654  3.73184e+21
44.2827  3.74589e+21
44.4  3.76668e+21
44.5173  3.79013e+21
44.6347  3.81216e+21
44.752  3.82827e+21
44.8693  3.83517e+21
44.9866  3.83062e+21
45.1039  3.81331e+21
45.2212  3.78323e+21
45.3385  3.74213e+21
45.4558  3.69233e+21
45.5731  3.63734e+21
45.6904  3.58079e+21
45.8077  3.52612e+21
45.925  3.47686e+21
46.0423  3.43551e+21
46.1596  3.40369e+21
46.2769  3.38241e+21
46.3942  3.37129e+21
46.5115  3.36927e+21
46.6288  3.37417e+21
46.7461  3.38349e+21
46.8634  3.39422e+21
46.9808  3.40284e+21
47.0981  3.40697e+21
47.2154  3.40378e+21
47.3327  3.39193e+21
47.45  3.37069e+21
47.5673  3.34044e+21
47.6846  3.30255e+21
47.8019  3.25876e+21
47.9192  3.21144e+21
48.0365  3.16347e+21
48.1538  3.11708e+21
48.2711  3.07484e+21
48.3884  3.03812e+21
48.5057  3.00848e+21
48.623  2.9863e+21
48.7403  2.97137e+21
48.8576  2.96286e+21
48.9749  2.9594e+21
49.0922  2.95887e+21
49.2095  2.95906e+21
49.3269  2.95758e+21
49.4442  2.95197e+21
49.5615  2.9405e+21
49.6788  2.92196e+21
49.7961  2.89592e+21
49.9134  2.86238e+21
50.0307  2.82255e+21
50.148  2.77764e+21
50.2653  2.72953e+21
50.3826  2.67993e+21
50.4999  2.63026e+21
50.6172  2.58207e+21
50.7345  2.53626e+21
50.8518  2.49348e+21
