#S 1 spectral density
#N 2
#UFWHM 21.5841
#L  abscissas [um]  spectral density
-58.5938  1.47518e+20
-58.4764  1.51375e+20
-58.3591  1.55685e+20
-58.2418  1.5991e+20
-58.1245  1.6358e+20
-58.0072  1.66156e+20
-57.8899  1.67306e+20
-57.7726  1.66861e+20
-57.6553  1.6489e+20
-57.538  1.61723e+20
-57.4207  1.57816e+20
-57.3034  1.53742e+20
-57.1861  1.4999e+20
-57.0688  1.46921e+20
-56.9515  1.44818e+20
-56.8342  1.43656e+20
-56.7169  1.43533e+20
-56.5996  1.44216e+20
-56.4823  1.45745e+20
-56.365  1.48117e+20
-56.2477  1.51337e+20
-56.1303  1.55622e+20
-56.013  1.6101e+20
-55.8957  1.67541e+20
-55.7784  1.75003e+20
-55.6611  1.83069e+20
-55.5438  1.91301e+20
-55.4265  1.99196e+20
-55.3092  2.06118e+20
-55.1919  2.11655e+20
-55.0746  2.15502e+20
-54.9573  2.17455e+20
-54.84  2.17558e+20
-54.7227  2.15916e+20
-54.6054  2.12852e+20
-54.4881  2.08704e+20
-54.3708  2.03884e+20
-54.2535  1.98694e+20
-54.1362  1.93556e+20
-54.0189  1.8875e+20
-53.9016  1.84667e+20
-53.7842  1.81578e+20
-53.6669  1.798e+20
-53.5496  1.79455e+20
-53.4323  1.80763e+20
-53.315  1.83638e+20
-53.1977  1.88075e+20
-53.0804  1.93847e+20
-52.9631  2.00568e+20
-52.8458  2.07767e+20
-52.7285  2.14896e+20
-52.6112  2.21273e+20
-52.4939  2.26267e+20
-52.3766  2.29314e+20
-52.2593  2.30113e+20
-52.142  2.28404e+20
-52.0247  2.2452e+20
-51.9074  2.18694e+20
-51.7901  2.11711e+20
-51.6728  2.04285e+20
-51.5555  1.97196e+20
-51.4381  1.91323e+20
-51.3208  1.87226e+20
-51.2035  1.85417e+20
-51.0862  1.86053e+20
-50.9689  1.89244e+20
-50.8516  1.94887e+20
-50.7343  2.02772e+20
-50.617  2.12452e+20
-50.4997  2.23502e+20
-50.3824  2.35292e+20
-50.2651  2.47061e+20
-50.1478  2.57912e+20
-50.0305  2.66996e+20
-49.9132  2.73434e+20
-49.7959  2.76593e+20
-49.6786  2.76111e+20
-49.5613  2.71909e+20
-49.444  2.64373e+20
-49.3267  2.54108e+20
-49.2094  2.42179e+20
-49.092  2.29616e+20
-48.9747  2.17559e+20
-48.8574  2.06899e+20
-48.7401  1.98523e+20
-48.6228  1.92845e+20
-48.5055  1.90269e+20
-48.3882  1.90845e+20
-48.2709  1.94418e+20
-48.1536  2.00689e+20
-48.0363  2.09223e+20
-47.919  2.1934e+20
-47.8017  2.30282e+20
-47.6844  2.41179e+20
-47.5671  2.51236e+20
-47.4498  2.59586e+20
-47.3325  2.65752e+20
-47.2152  2.69296e+20
-47.0979  2.70331e+20
-46.9806  2.69063e+20
-46.8633  2.66069e+20
-46.7459  2.62205e+20
-46.6286  2.58226e+20
-46.5113  2.54971e+20
-46.394  2.53079e+20
-46.2767  2.53141e+20
-46.1594  2.55439e+20
-46.0421  2.60049e+20
-45.9248  2.6681e+20
-45.8075  2.75412e+20
-45.6902  2.85266e+20
-45.5729  2.95649e+20
-45.4556  3.0566e+20
-45.3383  3.145e+20
-45.221  3.21291e+20
-45.1037  3.25403e+20
-44.9864  3.26509e+20
-44.8691  3.24559e+20
-44.7518  3.19862e+20
-44.6345  3.1298e+20
-44.5172  3.04834e+20
-44.3998  2.96145e+20
-44.2825  2.87812e+20
-44.1652  2.80399e+20
-44.0479  2.74429e+20
-43.9306  2.70098e+20
-43.8133  2.6773e+20
-43.696  2.67422e+20
-43.5787  2.69285e+20
-43.4614  2.73502e+20
-43.3441  2.80217e+20
-43.2268  2.89429e+20
-43.1095  3.0098e+20
-42.9922  3.14471e+20
-42.8749  3.2931e+20
-42.7576  3.44643e+20
-42.6403  3.59646e+20
-42.523  3.7343e+20
-42.4057  3.8542e+20
-42.2884  3.95166e+20
-42.171  4.02512e+20
-42.0537  4.07695e+20
-41.9364  4.10881e+20
-41.8191  4.1244e+20
-41.7018  4.12642e+20
-41.5845  4.1175e+20
-41.4672  4.09884e+20
-41.3499  4.07083e+20
-41.2326  4.03607e+20
-41.1153  3.99563e+20
-40.998  3.95269e+20
-40.8807  3.91028e+20
-40.7634  3.87155e+20
-40.6461  3.83928e+20
-40.5288  3.81449e+20
-40.4115  3.79588e+20
-40.2942  3.78146e+20
-40.1769  3.76927e+20
-40.0596  3.75582e+20
-39.9423  3.74025e+20
-39.825  3.72389e+20
-39.7076  3.70688e+20
-39.5903  3.694e+20
-39.473  3.68713e+20
-39.3557  3.68862e+20
-39.2384  3.69828e+20
-39.1211  3.71631e+20
-39.0038  3.73925e+20
-38.8865  3.76281e+20
-38.7692  3.78448e+20
-38.6519  3.8018e+20
-38.5346  3.81452e+20
-38.4173  3.82316e+20
-38.3  3.83097e+20
-38.1827  3.84109e+20
-38.0654  3.85616e+20
-37.9481  3.87812e+20
-37.8308  3.90747e+20
-37.7135  3.94352e+20
-37.5962  3.98516e+20
-37.4789  4.02978e+20
-37.3615  4.07664e+20
-37.2442  4.12404e+20
-37.1269  4.17189e+20
-37.0096  4.22004e+20
-36.8923  4.26827e+20
-36.775  4.31519e+20
-36.6577  4.35886e+20
-36.5404  4.399e+20
-36.4231  4.43239e+20
-36.3058  4.4586e+20
-36.1885  4.47703e+20
-36.0712  4.48928e+20
-35.9539  4.49736e+20
-35.8366  4.50521e+20
-35.7193  4.51619e+20
-35.602  4.5325e+20
-35.4847  4.55897e+20
-35.3674  4.59589e+20
-35.2501  4.64496e+20
-35.1328  4.70676e+20
-35.0154  4.77912e+20
-34.8981  4.86247e+20
-34.7808  4.954e+20
-34.6635  5.05012e+20
-34.5462  5.14735e+20
-34.4289  5.24238e+20
-34.3116  5.32984e+20
-34.1943  5.40442e+20
-34.077  5.46378e+20
-33.9597  5.50538e+20
-33.8424  5.52945e+20
-33.7251  5.53631e+20
-33.6078  5.53116e+20
-33.4905  5.51808e+20
-33.3732  5.50315e+20
-33.2559  5.4917e+20
-33.1386  5.4886e+20
-33.0213  5.49796e+20
-32.904  5.52297e+20
-32.7867  5.56493e+20
-32.6693  5.62574e+20
-32.552  5.70434e+20
-32.4347  5.80144e+20
-32.3174  5.91507e+20
-32.2001  6.04278e+20
-32.0828  6.18025e+20
-31.9655  6.32211e+20
-31.8482  6.46389e+20
-31.7309  6.59859e+20
-31.6136  6.72193e+20
-31.4963  6.82967e+20
-31.379  6.92065e+20
-31.2617  6.99471e+20
-31.1444  7.05486e+20
-31.0271  7.10611e+20
-30.9098  7.1522e+20
-30.7925  7.20198e+20
-30.6752  7.26034e+20
-30.5579  7.33464e+20
-30.4406  7.42913e+20
-30.3232  7.54745e+20
-30.2059  7.69083e+20
-30.0886  7.85979e+20
-29.9713  8.04861e+20
-29.854  8.25309e+20
-29.7367  8.46554e+20
-29.6194  8.67712e+20
-29.5021  8.87723e+20
-29.3848  9.05995e+20
-29.2675  9.21673e+20
-29.1502  9.34434e+20
-29.0329  9.43713e+20
-28.9156  9.49677e+20
-28.7983  9.52211e+20
-28.681  9.51688e+20
-28.5637  9.48449e+20
-28.4464  9.43021e+20
-28.3291  9.36106e+20
-28.2118  9.28497e+20
-28.0944  9.21035e+20
-27.9771  9.14819e+20
-27.8598  9.10605e+20
-27.7425  9.09271e+20
-27.6252  9.11246e+20
-27.5079  9.16779e+20
-27.3906  9.25686e+20
-27.2733  9.37529e+20
-27.156  9.51693e+20
-27.0387  9.67579e+20
-26.9214  9.84479e+20
-26.8041  1.00197e+21
-26.6868  1.01975e+21
-26.5695  1.03756e+21
-26.4522  1.05525e+21
-26.3349  1.07257e+21
-26.2176  1.08905e+21
-26.1003  1.10428e+21
-25.983  1.11764e+21
-25.8657  1.12874e+21
-25.7483  1.13715e+21
-25.631  1.14284e+21
-25.5137  1.14584e+21
-25.3964  1.14683e+21
-25.2791  1.14606e+21
-25.1618  1.14439e+21
-25.0445  1.14226e+21
-24.9272  1.14025e+21
-24.8099  1.13851e+21
-24.6926  1.13768e+21
-24.5753  1.13779e+21
-24.458  1.13957e+21
-24.3407  1.14309e+21
-24.2234  1.14905e+21
-24.1061  1.15765e+21
-23.9888  1.16931e+21
-23.8715  1.18408e+21
-23.7542  1.20189e+21
-23.6369  1.2224e+21
-23.5196  1.24522e+21
-23.4023  1.26977e+21
-23.2849  1.29589e+21
-23.1676  1.32312e+21
-23.0503  1.35133e+21
-22.933  1.38048e+21
-22.8157  1.41048e+21
-22.6984  1.44138e+21
-22.5811  1.47297e+21
-22.4638  1.50516e+21
-22.3465  1.53812e+21
-22.2292  1.57168e+21
-22.1119  1.60619e+21
-21.9946  1.64204e+21
-21.8773  1.67963e+21
-21.76  1.7193e+21
-21.6427  1.76119e+21
-21.5254  1.80512e+21
-21.4081  1.85057e+21
-21.2908  1.89691e+21
-21.1735  1.94345e+21
-21.0561  1.9895e+21
-20.9388  2.03482e+21
-20.8215  2.07935e+21
-20.7042  2.12382e+21
-20.5869  2.16879e+21
-20.4696  2.21551e+21
-20.3523  2.26476e+21
-20.235  2.31757e+21
-20.1177  2.37428e+21
-20.0004  2.43558e+21
-19.8831  2.50144e+21
-19.7658  2.57246e+21
-19.6485  2.6487e+21
-19.5312  2.7306e+21
-19.4139  2.81858e+21
-19.2966  2.91288e+21
-19.1793  3.01362e+21
-19.062  3.12043e+21
-18.9447  3.23238e+21
-18.8274  3.34828e+21
-18.71  3.46652e+21
-18.5927  3.58579e+21
-18.4754  3.70462e+21
-18.3581  3.82217e+21
-18.2408  3.93845e+21
-18.1235  4.05348e+21
-18.0062  4.16863e+21
-17.8889  4.28489e+21
-17.7716  4.40362e+21
-17.6543  4.52657e+21
-17.537  4.65467e+21
-17.4197  4.789e+21
-17.3024  4.93031e+21
-17.1851  5.07951e+21
-17.0678  5.23656e+21
-16.9505  5.40176e+21
-16.8332  5.57499e+21
-16.7159  5.75555e+21
-16.5986  5.94267e+21
-16.4813  6.13521e+21
-16.364  6.33144e+21
-16.2466  6.52986e+21
-16.1293  6.7288e+21
-16.012  6.92674e+21
-15.8947  7.12253e+21
-15.7774  7.31586e+21
-15.6601  7.50664e+21
-15.5428  7.69566e+21
-15.4255  7.88389e+21
-15.3082  8.07316e+21
-15.1909  8.26505e+21
-15.0736  8.4618e+21
-14.9563  8.66537e+21
-14.839  8.87742e+21
-14.7217  9.09982e+21
-14.6044  9.33348e+21
-14.4871  9.57954e+21
-14.3698  9.83804e+21
-14.2525  1.01086e+22
-14.1352  1.03906e+22
-14.0178  1.06826e+22
-13.9005  1.09833e+22
-13.7832  1.12904e+22
-13.6659  1.16022e+22
-13.5486  1.19172e+22
-13.4313  1.22332e+22
-13.314  1.25493e+22
-13.1967  1.28648e+22
-13.0794  1.31783e+22
-12.9621  1.34902e+22
-12.8448  1.38e+22
-12.7275  1.41077e+22
-12.6102  1.4413e+22
-12.4929  1.47173e+22
-12.3756  1.50195e+22
-12.2583  1.53203e+22
-12.141  1.56194e+22
-12.0237  1.59164e+22
-11.9064  1.62106e+22
-11.7891  1.65017e+22
-11.6718  1.67884e+22
-11.5544  1.70703e+22
-11.4371  1.7347e+22
-11.3198  1.76182e+22
-11.2025  1.78843e+22
-11.0852  1.81465e+22
-10.9679  1.8406e+22
-10.8506  1.8665e+22
-10.7333  1.89259e+22
-10.616  1.9191e+22
-10.4987  1.94631e+22
-10.3814  1.97445e+22
-10.2641  2.00376e+22
-10.1468  2.03439e+22
-10.0295  2.0665e+22
-9.91217  2.1001e+22
-9.79487  2.13523e+22
-9.67756  2.17174e+22
-9.56026  2.20944e+22
-9.44295  2.24809e+22
-9.32565  2.28736e+22
-9.20834  2.32688e+22
-9.09104  2.36625e+22
-8.97373  2.40509e+22
-8.85643  2.4431e+22
-8.73913  2.4799e+22
-8.62182  2.51533e+22
-8.50452  2.54926e+22
-8.38721  2.58156e+22
-8.26991  2.61232e+22
-8.1526  2.64159e+22
-8.03529  2.66949e+22
-7.91799  2.69618e+22
-7.80069  2.72195e+22
-7.68338  2.74692e+22
-7.56608  2.77137e+22
-7.44877  2.7955e+22
-7.33146  2.81944e+22
-7.21416  2.84334e+22
-7.09685  2.86731e+22
-6.97955  2.89135e+22
-6.86224  2.91548e+22
-6.74494  2.93972e+22
-6.62763  2.96398e+22
-6.51033  2.98829e+22
-6.39302  3.01261e+22
-6.27572  3.03694e+22
-6.15842  3.06128e+22
-6.04111  3.08569e+22
-5.92381  3.11014e+22
-5.8065  3.13471e+22
-5.68919  3.15938e+22
-5.57189  3.18419e+22
-5.45458  3.20911e+22
-5.33728  3.23414e+22
-5.21997  3.25919e+22
-5.10267  3.28424e+22
-4.98536  3.3091e+22
-4.86806  3.33361e+22
-4.75075  3.35761e+22
-4.63345  3.38087e+22
-4.51614  3.40318e+22
-4.39884  3.42441e+22
-4.28154  3.44439e+22
-4.16423  3.46313e+22
-4.04692  3.48059e+22
-3.92962  3.49688e+22
-3.81231  3.51214e+22
-3.69501  3.52651e+22
-3.5777  3.54019e+22
-3.4604  3.55335e+22
-3.34309  3.56613e+22
-3.22579  3.57862e+22
-3.10849  3.59098e+22
-2.99118  3.60324e+22
-2.87387  3.61548e+22
-2.75657  3.62777e+22
-2.63926  3.64005e+22
-2.52196  3.65233e+22
-2.40465  3.66453e+22
-2.28735  3.6765e+22
-2.17005  3.68809e+22
-2.05274  3.69916e+22
-1.93544  3.70946e+22
-1.81813  3.71894e+22
-1.70083  3.72743e+22
-1.58352  3.73491e+22
-1.46622  3.74138e+22
-1.34891  3.7469e+22
-1.2316  3.7515e+22
-1.1143  3.75529e+22
-0.996995  3.75829e+22
-0.87969  3.76064e+22
-0.762385  3.76233e+22
-0.64508  3.76351e+22
-0.527775  3.76424e+22
-0.41047  3.76466e+22
-0.293165  3.76486e+22
-0.17586  3.76497e+22
-0.058555  3.76507e+22
0.05875  3.76521e+22
0.176055  3.7654e+22
0.29336  3.76559e+22
0.410665  3.7657e+22
0.52797  3.76561e+22
0.645275  3.76522e+22
0.76258  3.76438e+22
0.879885  3.76303e+22
0.99719  3.76106e+22
1.1145  3.75841e+22
1.2318  3.755e+22
1.3491  3.75077e+22
1.46641  3.7456e+22
1.58371  3.73947e+22
1.70102  3.7323e+22
1.81832  3.72409e+22
1.93563  3.71491e+22
2.05294  3.70483e+22
2.17024  3.69403e+22
2.28754  3.68267e+22
2.40485  3.67093e+22
2.52216  3.65898e+22
2.63946  3.64695e+22
2.75677  3.63491e+22
2.87407  3.62294e+22
2.99137  3.61098e+22
3.10868  3.59904e+22
3.22599  3.58703e+22
3.34329  3.5749e+22
3.4606  3.56251e+22
3.5779  3.54975e+22
3.69521  3.53643e+22
3.81251  3.52243e+22
3.92982  3.50753e+22
4.04712  3.49159e+22
4.16443  3.47445e+22
4.28173  3.45602e+22
4.39903  3.43628e+22
4.51634  3.41532e+22
4.63364  3.39321e+22
4.75095  3.37016e+22
4.86825  3.34635e+22
4.98556  3.32202e+22
5.10286  3.29737e+22
5.22017  3.27251e+22
5.33748  3.24765e+22
5.45478  3.22283e+22
5.57209  3.19813e+22
5.68939  3.17356e+22
5.8067  3.14913e+22
5.924  3.12481e+22
6.0413  3.10061e+22
6.15861  3.07649e+22
6.27591  3.05239e+22
6.39322  3.02832e+22
6.51052  3.00425e+22
6.62783  2.98017e+22
6.74514  2.95611e+22
6.86244  2.93211e+22
6.97975  2.90816e+22
7.09705  2.88431e+22
7.21436  2.86055e+22
7.33166  2.8368e+22
7.44897  2.81301e+22
7.56627  2.78907e+22
7.68358  2.76476e+22
7.80088  2.73993e+22
7.91819  2.71433e+22
8.03549  2.68776e+22
8.1528  2.66001e+22
8.2701  2.63088e+22
8.38741  2.60023e+22
8.50471  2.56802e+22
8.62202  2.5342e+22
8.73932  2.49884e+22
8.85662  2.46211e+22
8.97393  2.42417e+22
9.09123  2.38536e+22
9.20854  2.34603e+22
9.32584  2.30654e+22
9.44315  2.26729e+22
9.56045  2.22866e+22
9.67776  2.19097e+22
9.79506  2.15451e+22
9.91237  2.11938e+22
10.0297  2.08582e+22
10.147  2.05376e+22
10.2643  2.02316e+22
10.3816  1.9939e+22
10.4989  1.96579e+22
10.6162  1.9386e+22
10.7335  1.91213e+22
10.8508  1.88608e+22
10.9681  1.86016e+22
11.0854  1.8342e+22
11.2027  1.80794e+22
11.32  1.78126e+22
11.4373  1.75407e+22
11.5546  1.72634e+22
11.6719  1.69804e+22
11.7893  1.66925e+22
11.9066  1.64005e+22
12.0239  1.61046e+22
12.1412  1.58063e+22
12.2585  1.5506e+22
12.3758  1.52037e+22
12.4931  1.49e+22
12.6104  1.45946e+22
12.7277  1.42873e+22
12.845  1.39783e+22
12.9623  1.36668e+22
13.0796  1.33534e+22
13.1969  1.30379e+22
13.3142  1.27208e+22
13.4315  1.24025e+22
13.5488  1.20845e+22
13.6661  1.17673e+22
13.7834  1.14532e+22
13.9007  1.11438e+22
14.018  1.08408e+22
14.1354  1.05464e+22
14.2527  1.0262e+22
14.37  9.98908e+21
14.4873  9.72861e+21
14.6046  9.4801e+21
14.7219  9.24434e+21
14.8392  9.01996e+21
14.9565  8.80581e+21
15.0738  8.60026e+21
15.1911  8.40145e+21
15.3084  8.20728e+21
15.4257  8.01592e+21
15.543  7.82543e+21
15.6603  7.63399e+21
15.7776  7.44082e+21
15.8949  7.24488e+21
16.0122  7.04634e+21
16.1295  6.84568e+21
16.2468  6.6441e+21
16.3641  6.44292e+21
16.4815  6.24388e+21
16.5988  6.04882e+21
16.7161  5.85889e+21
16.8334  5.67583e+21
16.9507  5.50025e+21
17.068  5.33272e+21
17.1853  5.17335e+21
17.3026  5.02211e+21
17.4199  4.87853e+21
17.5372  4.7421e+21
17.6545  4.61187e+21
17.7718  4.48702e+21
17.8891  4.36605e+21
18.0064  4.24767e+21
18.1237  4.13028e+21
18.241  4.01284e+21
18.3583  3.89411e+21
18.4756  3.77406e+21
18.5929  3.65279e+21
18.7102  3.53106e+21
18.8275  3.41032e+21
18.9449  3.2921e+21
19.0622  3.17791e+21
19.1795  3.0691e+21
19.2968  2.9661e+21
19.4141  2.86984e+21
19.5314  2.78004e+21
19.6487  2.69638e+21
19.766  2.61848e+21
19.8833  2.54595e+21
20.0006  2.47844e+21
20.1179  2.4157e+21
20.2352  2.35753e+21
20.3525  2.30338e+21
20.4698  2.25272e+21
20.5871  2.20464e+21
20.7044  2.15823e+21
20.8217  2.11238e+21
20.939  2.06632e+21
21.0563  2.01957e+21
21.1736  1.97201e+21
21.291  1.92411e+21
21.4083  1.87629e+21
21.5256  1.82959e+21
21.6429  1.7844e+21
21.7602  1.74142e+21
21.8775  1.70058e+21
21.9948  1.66198e+21
22.1121  1.625e+21
22.2294  1.58941e+21
22.3467  1.55483e+21
22.464  1.52111e+21
22.5813  1.48794e+21
22.6986  1.45558e+21
22.8159  1.42391e+21
22.9332  1.39308e+21
23.0505  1.36313e+21
23.1678  1.33424e+21
23.2851  1.30638e+21
23.4024  1.27964e+21
23.5198  1.25445e+21
23.6371  1.23121e+21
23.7544  1.21024e+21
23.8717  1.19213e+21
23.989  1.1769e+21
24.1063  1.16494e+21
24.2236  1.15605e+21
24.3409  1.1499e+21
24.4582  1.14616e+21
24.5755  1.1443e+21
24.6928  1.14392e+21
24.8101  1.1446e+21
24.9274  1.14612e+21
25.0447  1.14803e+21
25.162  1.14999e+21
25.2793  1.15156e+21
25.3966  1.15217e+21
25.5139  1.1511e+21
25.6312  1.14784e+21
25.7485  1.14201e+21
25.8658  1.13339e+21
25.9832  1.12215e+21
26.1005  1.10862e+21
26.2178  1.09338e+21
26.3351  1.07673e+21
26.4524  1.05947e+21
26.5697  1.04172e+21
26.687  1.02395e+21
26.8043  1.00611e+21
26.9216  9.88588e+20
27.0389  9.71698e+20
27.1562  9.56003e+20
27.2735  9.41905e+20
27.3908  9.3023e+20
27.5081  9.21486e+20
27.6254  9.1613e+20
27.7427  9.14294e+20
27.86  9.1585e+20
27.9773  9.2027e+20
28.0946  9.26694e+20
28.212  9.34237e+20
28.3293  9.42034e+20
28.4466  9.49e+20
28.5639  9.54522e+20
28.6812  9.57712e+20
28.7985  9.5819e+20
28.9158  9.55566e+20
29.0331  9.49582e+20
29.1504  9.40181e+20
29.2677  9.27424e+20
29.385  9.1162e+20
29.5023  8.93259e+20
29.6196  8.73135e+20
29.7369  8.51947e+20
29.8542  8.30668e+20
29.9715  8.10224e+20
30.0888  7.91356e+20
30.2061  7.74581e+20
30.3234  7.60252e+20
30.4407  7.48465e+20
30.558  7.39058e+20
30.6754  7.31664e+20
30.7927  7.25825e+20
30.91  7.209e+20
31.0273  7.16116e+20
31.1446  7.1106e+20
31.2619  7.04901e+20
31.3792  6.97382e+20
31.4965  6.88118e+20
31.6138  6.77139e+20
31.7311  6.64667e+20
31.8484  6.51086e+20
31.9657  6.36827e+20
32.083  6.22519e+20
32.2003  6.08699e+20
32.3176  5.95884e+20
32.4349  5.84452e+20
32.5522  5.74721e+20
32.6695  5.66849e+20
32.7868  5.60801e+20
32.9042  5.56575e+20
33.0215  5.54106e+20
33.1388  5.53115e+20
33.2561  5.534e+20
33.3734  5.54462e+20
33.4907  5.55836e+20
33.608  5.57004e+20
33.7253  5.57394e+20
33.8426  5.565e+20
33.9599  5.53941e+20
34.0772  5.49583e+20
34.1945  5.43432e+20
34.3118  5.35788e+20
34.4291  5.26914e+20
34.5464  5.17254e+20
34.6637  5.07388e+20
34.781  4.97671e+20
34.8983  4.88508e+20
35.0156  4.80172e+20
35.1329  4.72858e+20
35.2503  4.66704e+20
35.3676  4.61749e+20
35.4849  4.58038e+20
35.6022  4.55434e+20
35.7195  4.53664e+20
35.8368  4.52638e+20
35.9541  4.51801e+20
36.0714  4.50869e+20
36.1887  4.49538e+20
36.306  4.47509e+20
36.4233  4.44774e+20
36.5406  4.41303e+20
36.6579  4.37213e+20
36.7752  4.32691e+20
36.8925  4.27928e+20
37.0098  4.23048e+20
37.1271  4.18155e+20
37.2444  4.13316e+20
37.3617  4.08555e+20
37.479  4.0387e+20
37.5964  3.99411e+20
37.7137  3.95295e+20
37.831  3.91702e+20
37.9483  3.88833e+20
38.0656  3.86651e+20
38.1829  3.8516e+20
38.3002  3.84199e+20
38.4175  3.83441e+20
38.5348  3.82545e+20
38.6521  3.81267e+20
38.7694  3.79483e+20
38.8867  3.77298e+20
39.004  3.74896e+20
39.1213  3.72656e+20
39.2386  3.70822e+20
39.3559  3.69793e+20
39.4732  3.69691e+20
39.5905  3.70417e+20
39.7078  3.71791e+20
39.8251  3.73476e+20
39.9425  3.75186e+20
40.0598  3.76722e+20
40.1771  3.7807e+20
40.2944  3.79376e+20
40.4117  3.80833e+20
40.529  3.82811e+20
40.6463  3.85406e+20
40.7636  3.88677e+20
40.8809  3.92589e+20
40.9982  3.96855e+20
41.1155  4.01183e+20
41.2328  4.05229e+20
41.3501  4.08725e+20
41.4674  4.115e+20
41.5847  4.13368e+20
41.702  4.14248e+20
41.8193  4.14003e+20
41.9366  4.12393e+20
42.0539  4.09166e+20
42.1712  4.03936e+20
42.2885  3.96482e+20
42.4059  3.86662e+20
42.5232  3.74618e+20
42.6405  3.60791e+20
42.7578  3.45707e+20
42.8751  3.30335e+20
42.9924  3.15553e+20
43.1097  3.02119e+20
43.227  2.9062e+20
43.3443  2.81497e+20
43.4616  2.74867e+20
43.5789  2.7075e+20
43.6962  2.68959e+20
43.8135  2.69417e+20
43.9308  2.71849e+20
44.0481  2.7619e+20
44.1654  2.82268e+20
44.2827  2.89723e+20
44.4  2.98142e+20
44.5173  3.06806e+20
44.6347  3.14959e+20
44.752  3.21716e+20
44.8693  3.26289e+20
44.9866  3.28121e+20
45.1039  3.26875e+20
45.2212  3.22594e+20
45.3385  3.15672e+20
45.4558  3.06736e+20
45.5731  2.96582e+20
45.6904  2.86163e+20
45.8077  2.76297e+20
45.925  2.67711e+20
46.0423  2.60936e+20
46.1596  2.56399e+20
46.2769  2.54169e+20
46.3942  2.54156e+20
46.5115  2.56079e+20
46.6288  2.59358e+20
46.7461  2.63368e+20
46.8634  2.67218e+20
46.9808  2.70131e+20
47.0981  2.71324e+20
47.2154  2.70207e+20
47.3327  2.66558e+20
47.45  2.60253e+20
47.5673  2.51776e+20
47.6846  2.41629e+20
47.8019  2.30661e+20
47.9192  2.1968e+20
48.0365  2.09549e+20
48.1538  2.01077e+20
48.2711  1.94855e+20
48.3884  1.91331e+20
48.5057  1.90895e+20
48.623  1.93571e+20
48.7403  1.99318e+20
48.8576  2.07819e+20
48.9749  2.18534e+20
49.0922  2.30666e+20
49.2095  2.43224e+20
49.3269  2.55144e+20
49.4442  2.65322e+20
49.5615  2.72764e+20
49.6788  2.76841e+20
49.7961  2.77212e+20
49.9134  2.73893e+20
50.0307  2.67316e+20
50.148  2.58132e+20
50.2653  2.4717e+20
50.3826  2.35375e+20
50.4999  2.23581e+20
50.6172  2.12513e+20
50.7345  2.02812e+20
50.8518  1.95014e+20
50.9691  1.89429e+20
