#S 1 spectral density
#N 2
#UFWHM 71.5561
#L  abscissas [um]  spectral density
-58.5938  1.67581e+21
-58.4764  1.69429e+21
-58.3591  1.71044e+21
-58.2418  1.72339e+21
-58.1245  1.73284e+21
-58.0072  1.73838e+21
-57.8899  1.74023e+21
-57.7726  1.73883e+21
-57.6553  1.73513e+21
-57.538  1.73022e+21
-57.4207  1.72554e+21
-57.3034  1.72211e+21
-57.1861  1.72088e+21
-57.0688  1.72207e+21
-56.9515  1.72571e+21
-56.8342  1.73111e+21
-56.7169  1.73737e+21
-56.5996  1.74364e+21
-56.4823  1.74891e+21
-56.365  1.75255e+21
-56.2477  1.75452e+21
-56.1303  1.75518e+21
-56.013  1.75514e+21
-55.8957  1.75555e+21
-55.7784  1.75743e+21
-55.6611  1.76207e+21
-55.5438  1.77049e+21
-55.4265  1.78356e+21
-55.3092  1.8019e+21
-55.1919  1.8257e+21
-55.0746  1.85492e+21
-54.9573  1.88907e+21
-54.84  1.92733e+21
-54.7227  1.96864e+21
-54.6054  2.01126e+21
-54.4881  2.05386e+21
-54.3708  2.09486e+21
-54.2535  2.13255e+21
-54.1362  2.16548e+21
-54.0189  2.19291e+21
-53.9016  2.21412e+21
-53.7842  2.22928e+21
-53.6669  2.2388e+21
-53.5496  2.24359e+21
-53.4323  2.24508e+21
-53.315  2.24463e+21
-53.1977  2.24381e+21
-53.0804  2.24404e+21
-52.9631  2.24634e+21
-52.8458  2.25144e+21
-52.7285  2.25974e+21
-52.6112  2.27083e+21
-52.4939  2.28424e+21
-52.3766  2.29887e+21
-52.2593  2.31387e+21
-52.142  2.32816e+21
-52.0247  2.34094e+21
-51.9074  2.35197e+21
-51.7901  2.36113e+21
-51.6728  2.36864e+21
-51.5555  2.37545e+21
-51.4381  2.38262e+21
-51.3208  2.39122e+21
-51.2035  2.4027e+21
-51.0862  2.41799e+21
-50.9689  2.43838e+21
-50.8516  2.46456e+21
-50.7343  2.49705e+21
-50.617  2.53594e+21
-50.4997  2.58056e+21
-50.3824  2.62993e+21
-50.2651  2.68234e+21
-50.1478  2.7356e+21
-50.0305  2.78739e+21
-49.9132  2.83485e+21
-49.7959  2.87609e+21
-49.6786  2.90948e+21
-49.5613  2.93387e+21
-49.444  2.94913e+21
-49.3267  2.95618e+21
-49.2094  2.95633e+21
-49.092  2.95189e+21
-48.9747  2.94501e+21
-48.8574  2.93804e+21
-48.7401  2.93329e+21
-48.6228  2.93238e+21
-48.5055  2.93666e+21
-48.3882  2.94698e+21
-48.2709  2.96347e+21
-48.1536  2.98586e+21
-48.0363  3.0137e+21
-47.919  3.04561e+21
-47.8017  3.08043e+21
-47.6844  3.11662e+21
-47.5671  3.15291e+21
-47.4498  3.18804e+21
-47.3325  3.22123e+21
-47.2152  3.25236e+21
-47.0979  3.28159e+21
-46.9806  3.30924e+21
-46.8633  3.33665e+21
-46.7459  3.36493e+21
-46.6286  3.39496e+21
-46.5113  3.42787e+21
-46.394  3.46378e+21
-46.2767  3.50303e+21
-46.1594  3.54507e+21
-46.0421  3.58922e+21
-45.9248  3.63444e+21
-45.8075  3.67909e+21
-45.6902  3.72187e+21
-45.5729  3.76108e+21
-45.4556  3.7951e+21
-45.3383  3.82278e+21
-45.221  3.84273e+21
-45.1037  3.85498e+21
-44.9864  3.8597e+21
-44.8691  3.85764e+21
-44.7518  3.85024e+21
-44.6345  3.83954e+21
-44.5172  3.82756e+21
-44.3998  3.8168e+21
-44.2825  3.80897e+21
-44.1652  3.80559e+21
-44.0479  3.80794e+21
-43.9306  3.81646e+21
-43.8133  3.83131e+21
-43.696  3.85251e+21
-43.5787  3.87974e+21
-43.4614  3.91258e+21
-43.3441  3.9509e+21
-43.2268  3.99387e+21
-43.1095  4.04092e+21
-42.9922  4.09126e+21
-42.8749  4.14387e+21
-42.7576  4.19749e+21
-42.6403  4.25111e+21
-42.523  4.30379e+21
-42.4057  4.35468e+21
-42.2884  4.40278e+21
-42.171  4.44802e+21
-42.0537  4.4902e+21
-41.9364  4.52867e+21
-41.8191  4.56343e+21
-41.7018  4.59332e+21
-41.5845  4.61809e+21
-41.4672  4.63673e+21
-41.3499  4.64877e+21
-41.2326  4.65407e+21
-41.1153  4.6526e+21
-40.998  4.64559e+21
-40.8807  4.63445e+21
-40.7634  4.62098e+21
-40.6461  4.60756e+21
-40.5288  4.59612e+21
-40.4115  4.58929e+21
-40.2942  4.58896e+21
-40.1769  4.59657e+21
-40.0596  4.61306e+21
-39.9423  4.63904e+21
-39.825  4.67432e+21
-39.7076  4.71862e+21
-39.5903  4.77058e+21
-39.473  4.82819e+21
-39.3557  4.88942e+21
-39.2384  4.95135e+21
-39.1211  5.01101e+21
-39.0038  5.06575e+21
-38.8865  5.11298e+21
-38.7692  5.15093e+21
-38.6519  5.17924e+21
-38.5346  5.19768e+21
-38.4173  5.20763e+21
-38.3  5.21114e+21
-38.1827  5.21057e+21
-38.0654  5.20855e+21
-37.9481  5.20768e+21
-37.8308  5.21012e+21
-37.7135  5.21748e+21
-37.5962  5.23039e+21
-37.4789  5.24945e+21
-37.3615  5.27468e+21
-37.2442  5.30519e+21
-37.1269  5.3405e+21
-37.0096  5.37898e+21
-36.8923  5.41999e+21
-36.775  5.46218e+21
-36.6577  5.50461e+21
-36.5404  5.54657e+21
-36.4231  5.58741e+21
-36.3058  5.62747e+21
-36.1885  5.66715e+21
-36.0712  5.70692e+21
-35.9539  5.74797e+21
-35.8366  5.79096e+21
-35.7193  5.83718e+21
-35.602  5.88723e+21
-35.4847  5.94125e+21
-35.3674  5.9988e+21
-35.2501  6.059e+21
-35.1328  6.12052e+21
-35.0154  6.18205e+21
-34.8981  6.24182e+21
-34.7808  6.29759e+21
-34.6635  6.34803e+21
-34.5462  6.39147e+21
-34.4289  6.42668e+21
-34.3116  6.45312e+21
-34.1943  6.47049e+21
-34.077  6.47915e+21
-33.9597  6.48064e+21
-33.8424  6.47602e+21
-33.7251  6.46758e+21
-33.6078  6.45763e+21
-33.4905  6.44835e+21
-33.3732  6.44187e+21
-33.2559  6.43992e+21
-33.1386  6.44354e+21
-33.0213  6.45343e+21
-32.904  6.46912e+21
-32.7867  6.49033e+21
-32.6693  6.51628e+21
-32.552  6.5458e+21
-32.4347  6.57811e+21
-32.3174  6.61159e+21
-32.2001  6.646e+21
-32.0828  6.6805e+21
-31.9655  6.71463e+21
-31.8482  6.74826e+21
-31.7309  6.78096e+21
-31.6136  6.81311e+21
-31.4963  6.84483e+21
-31.379  6.87592e+21
-31.2617  6.90661e+21
-31.1444  6.93652e+21
-31.0271  6.96576e+21
-30.9098  6.99408e+21
-30.7925  7.02101e+21
-30.6752  7.04607e+21
-30.5579  7.06884e+21
-30.4406  7.08918e+21
-30.3232  7.10744e+21
-30.2059  7.12436e+21
-30.0886  7.14012e+21
-29.9713  7.15634e+21
-29.854  7.1741e+21
-29.7367  7.19468e+21
-29.6194  7.2196e+21
-29.5021  7.24964e+21
-29.3848  7.28551e+21
-29.2675  7.32802e+21
-29.1502  7.37616e+21
-29.0329  7.42938e+21
-28.9156  7.48604e+21
-28.7983  7.54393e+21
-28.681  7.60054e+21
-28.5637  7.65314e+21
-28.4464  7.69892e+21
-28.3291  7.73586e+21
-28.2118  7.76189e+21
-28.0944  7.77656e+21
-27.9771  7.78013e+21
-27.8598  7.77384e+21
-27.7425  7.76002e+21
-27.6252  7.74067e+21
-27.5079  7.71955e+21
-27.3906  7.69971e+21
-27.2733  7.68409e+21
-27.156  7.67569e+21
-27.0387  7.6764e+21
-26.9214  7.68846e+21
-26.8041  7.71285e+21
-26.6868  7.7496e+21
-26.5695  7.7981e+21
-26.4522  7.85654e+21
-26.3349  7.92277e+21
-26.2176  7.99368e+21
-26.1003  8.06563e+21
-25.983  8.13499e+21
-25.8657  8.19848e+21
-25.7483  8.25379e+21
-25.631  8.2998e+21
-25.5137  8.33709e+21
-25.3964  8.3661e+21
-25.2791  8.3896e+21
-25.1618  8.41042e+21
-25.0445  8.43153e+21
-24.9272  8.45621e+21
-24.8099  8.48652e+21
-24.6926  8.52425e+21
-24.5753  8.57055e+21
-24.458  8.62445e+21
-24.3407  8.68495e+21
-24.2234  8.74976e+21
-24.1061  8.81559e+21
-23.9888  8.87881e+21
-23.8715  8.93546e+21
-23.7542  8.98153e+21
-23.6369  9.0138e+21
-23.5196  9.02963e+21
-23.4023  9.02801e+21
-23.2849  9.00942e+21
-23.1676  8.97583e+21
-23.0503  8.93095e+21
-22.933  8.87839e+21
-22.8157  8.82378e+21
-22.6984  8.77196e+21
-22.5811  8.72747e+21
-22.4638  8.69424e+21
-22.3465  8.67466e+21
-22.2292  8.67075e+21
-22.1119  8.68282e+21
-21.9946  8.70987e+21
-21.8773  8.75005e+21
-21.76  8.80025e+21
-21.6427  8.85731e+21
-21.5254  8.91718e+21
-21.4081  8.9757e+21
-21.2908  9.02899e+21
-21.1735  9.07395e+21
-21.0561  9.10885e+21
-20.9388  9.13313e+21
-20.8215  9.14856e+21
-20.7042  9.15653e+21
-20.5869  9.16082e+21
-20.4696  9.1651e+21
-20.3523  9.17285e+21
-20.235  9.18726e+21
-20.1177  9.21017e+21
-20.0004  9.24282e+21
-19.8831  9.28564e+21
-19.7658  9.33727e+21
-19.6485  9.39659e+21
-19.5312  9.46185e+21
-19.4139  9.53084e+21
-19.2966  9.60138e+21
-19.1793  9.67119e+21
-19.062  9.73782e+21
-18.9447  9.79899e+21
-18.8274  9.85249e+21
-18.71  9.89646e+21
-18.5927  9.93014e+21
-18.4754  9.95314e+21
-18.3581  9.96675e+21
-18.2408  9.97177e+21
-18.1235  9.97109e+21
-18.0062  9.96709e+21
-17.8889  9.96203e+21
-17.7716  9.9579e+21
-17.6543  9.95538e+21
-17.537  9.95512e+21
-17.4197  9.9564e+21
-17.3024  9.95787e+21
-17.1851  9.95811e+21
-17.0678  9.95534e+21
-16.9505  9.94913e+21
-16.8332  9.93885e+21
-16.7159  9.92461e+21
-16.5986  9.90712e+21
-16.4813  9.88779e+21
-16.364  9.86858e+21
-16.2466  9.85152e+21
-16.1293  9.83992e+21
-16.012  9.83519e+21
-15.8947  9.83998e+21
-15.7774  9.85598e+21
-15.6601  9.88416e+21
-15.5428  9.92475e+21
-15.4255  9.97678e+21
-15.3082  1.00386e+22
-15.1909  1.01079e+22
-15.0736  1.01807e+22
-14.9563  1.02536e+22
-14.839  1.03231e+22
-14.7217  1.03855e+22
-14.6044  1.04383e+22
-14.4871  1.04798e+22
-14.3698  1.05092e+22
-14.2525  1.05266e+22
-14.1352  1.05333e+22
-14.0178  1.05306e+22
-13.9005  1.05214e+22
-13.7832  1.05079e+22
-13.6659  1.04932e+22
-13.5486  1.04789e+22
-13.4313  1.04675e+22
-13.314  1.04599e+22
-13.1967  1.04566e+22
-13.0794  1.04576e+22
-12.9621  1.04616e+22
-12.8448  1.04677e+22
-12.7275  1.04743e+22
-12.6102  1.04797e+22
-12.4929  1.04827e+22
-12.3756  1.04822e+22
-12.2583  1.04787e+22
-12.141  1.04726e+22
-12.0237  1.04651e+22
-11.9064  1.04577e+22
-11.7891  1.04524e+22
-11.6718  1.04513e+22
-11.5544  1.04557e+22
-11.4371  1.04684e+22
-11.3198  1.04892e+22
-11.2025  1.05188e+22
-11.0852  1.05568e+22
-10.9679  1.0602e+22
-10.8506  1.0652e+22
-10.7333  1.07045e+22
-10.616  1.07564e+22
-10.4987  1.08048e+22
-10.3814  1.08464e+22
-10.2641  1.08791e+22
-10.1468  1.09016e+22
-10.0295  1.09133e+22
-9.91217  1.0915e+22
-9.79487  1.09089e+22
-9.67756  1.08977e+22
-9.56026  1.08849e+22
-9.44295  1.08742e+22
-9.32565  1.0869e+22
-9.20834  1.08727e+22
-9.09104  1.08869e+22
-8.97373  1.09138e+22
-8.85643  1.09523e+22
-8.73913  1.10018e+22
-8.62182  1.10599e+22
-8.50452  1.11231e+22
-8.38721  1.11876e+22
-8.26991  1.12487e+22
-8.1526  1.13027e+22
-8.03529  1.13456e+22
-7.91799  1.13744e+22
-7.80069  1.13874e+22
-7.68338  1.13839e+22
-7.56608  1.13657e+22
-7.44877  1.13347e+22
-7.33146  1.12945e+22
-7.21416  1.12487e+22
-7.09685  1.12015e+22
-6.97955  1.11567e+22
-6.86224  1.11172e+22
-6.74494  1.10864e+22
-6.62763  1.10645e+22
-6.51033  1.10519e+22
-6.39302  1.10475e+22
-6.27572  1.10495e+22
-6.15842  1.10548e+22
-6.04111  1.10606e+22
-5.92381  1.10638e+22
-5.8065  1.10619e+22
-5.68919  1.10527e+22
-5.57189  1.10354e+22
-5.45458  1.10104e+22
-5.33728  1.0979e+22
-5.21997  1.09439e+22
-5.10267  1.09088e+22
-4.98536  1.0877e+22
-4.86806  1.08527e+22
-4.75075  1.08388e+22
-4.63345  1.08378e+22
-4.51614  1.08514e+22
-4.39884  1.08797e+22
-4.28154  1.09228e+22
-4.16423  1.09782e+22
-4.04692  1.10443e+22
-3.92962  1.11175e+22
-3.81231  1.11942e+22
-3.69501  1.12705e+22
-3.5777  1.13416e+22
-3.4604  1.1404e+22
-3.34309  1.14542e+22
-3.22579  1.14891e+22
-3.10849  1.15077e+22
-2.99118  1.15095e+22
-2.87387  1.14969e+22
-2.75657  1.1472e+22
-2.63926  1.1439e+22
-2.52196  1.14017e+22
-2.40465  1.13644e+22
-2.28735  1.13306e+22
-2.17005  1.13025e+22
-2.05274  1.1283e+22
-1.93544  1.12717e+22
-1.81813  1.12687e+22
-1.70083  1.12732e+22
-1.58352  1.12836e+22
-1.46622  1.1298e+22
-1.34891  1.13144e+22
-1.2316  1.13309e+22
-1.1143  1.13456e+22
-0.996995  1.13565e+22
-0.87969  1.13625e+22
-0.762385  1.13631e+22
-0.64508  1.13585e+22
-0.527775  1.13497e+22
-0.41047  1.13387e+22
-0.293165  1.13275e+22
-0.17586  1.13186e+22
-0.058555  1.13135e+22
0.05875  1.1313e+22
0.176055  1.13175e+22
0.29336  1.13255e+22
0.410665  1.13361e+22
0.52797  1.13463e+22
0.645275  1.13545e+22
0.76258  1.13587e+22
0.879885  1.13578e+22
0.99719  1.13518e+22
1.1145  1.13407e+22
1.2318  1.13263e+22
1.3491  1.13101e+22
1.46641  1.1294e+22
1.58371  1.12798e+22
1.70102  1.12695e+22
1.81832  1.12653e+22
1.93563  1.12682e+22
2.05294  1.12795e+22
2.17024  1.1299e+22
2.28754  1.13264e+22
2.40485  1.136e+22
2.52216  1.13964e+22
2.63946  1.14334e+22
2.75677  1.14658e+22
2.87407  1.14898e+22
2.99137  1.15019e+22
3.10868  1.14993e+22
3.22599  1.14802e+22
3.34329  1.14448e+22
3.4606  1.13947e+22
3.5779  1.13322e+22
3.69521  1.1261e+22
3.81251  1.11849e+22
3.92982  1.11085e+22
4.04712  1.10356e+22
4.16443  1.09697e+22
4.28173  1.09143e+22
4.39903  1.08715e+22
4.51634  1.0843e+22
4.63364  1.08295e+22
4.75095  1.08301e+22
4.86825  1.08437e+22
4.98556  1.08674e+22
5.10286  1.08986e+22
5.22017  1.0933e+22
5.33748  1.09672e+22
5.45478  1.09977e+22
5.57209  1.1022e+22
5.68939  1.10385e+22
5.8067  1.10469e+22
5.924  1.10483e+22
6.0413  1.10447e+22
6.15861  1.10385e+22
6.27591  1.10329e+22
6.39322  1.10308e+22
6.51052  1.10354e+22
6.62783  1.1048e+22
6.74514  1.107e+22
6.86244  1.11012e+22
6.97975  1.11403e+22
7.09705  1.11852e+22
7.21436  1.1232e+22
7.33166  1.12779e+22
7.44897  1.13179e+22
7.56627  1.13484e+22
7.68358  1.13662e+22
7.80088  1.1369e+22
7.91819  1.13556e+22
8.03549  1.13263e+22
8.1528  1.12833e+22
8.2701  1.12291e+22
8.38741  1.11676e+22
8.50471  1.11031e+22
8.62202  1.10399e+22
8.73932  1.09821e+22
8.85662  1.09326e+22
8.97393  1.08941e+22
9.09123  1.08675e+22
9.20854  1.08531e+22
9.32584  1.08496e+22
9.44315  1.08545e+22
9.56045  1.0865e+22
9.67776  1.08773e+22
9.79506  1.0888e+22
9.91237  1.08934e+22
10.0297  1.08909e+22
10.147  1.08783e+22
10.2643  1.08551e+22
10.3816  1.08216e+22
10.4989  1.07791e+22
10.6162  1.07302e+22
10.7335  1.06777e+22
10.8508  1.06248e+22
10.9681  1.05743e+22
11.0854  1.05289e+22
11.2027  1.04909e+22
11.32  1.04611e+22
11.4373  1.04402e+22
11.5546  1.04279e+22
11.6719  1.0423e+22
11.7893  1.04245e+22
11.9066  1.04295e+22
12.0239  1.04371e+22
12.1412  1.04446e+22
12.2585  1.04505e+22
12.3758  1.04539e+22
12.4931  1.04539e+22
12.6104  1.04507e+22
12.7277  1.04451e+22
12.845  1.04384e+22
12.9623  1.0432e+22
13.0796  1.04275e+22
13.1969  1.04263e+22
13.3142  1.04293e+22
13.4315  1.04368e+22
13.5488  1.04479e+22
13.6661  1.04619e+22
13.7834  1.04764e+22
13.9007  1.04896e+22
14.018  1.04988e+22
14.1354  1.0501e+22
14.2527  1.04943e+22
14.37  1.04765e+22
14.4873  1.04469e+22
14.6046  1.04051e+22
14.7219  1.0352e+22
14.8392  1.02893e+22
14.9565  1.02197e+22
15.0738  1.01465e+22
15.1911  1.00735e+22
15.3084  1.00043e+22
15.4257  9.94227e+21
15.543  9.89006e+21
15.6603  9.84944e+21
15.7776  9.82118e+21
15.8949  9.80524e+21
16.0122  9.80029e+21
16.1295  9.80489e+21
16.2468  9.81668e+21
16.3641  9.83334e+21
16.4815  9.85265e+21
16.5988  9.87148e+21
16.7161  9.88897e+21
16.8334  9.90314e+21
16.9507  9.91306e+21
17.068  9.91888e+21
17.1853  9.92098e+21
17.3026  9.92021e+21
17.4199  9.91824e+21
17.5372  9.91654e+21
17.6545  9.91612e+21
17.7718  9.91787e+21
17.8891  9.92136e+21
18.0064  9.92567e+21
18.1237  9.92918e+21
18.241  9.92912e+21
18.3583  9.9234e+21
18.4756  9.90945e+21
18.5929  9.88606e+21
18.7102  9.8524e+21
18.8275  9.8083e+21
18.9449  9.75512e+21
19.0622  9.69424e+21
19.1795  9.62806e+21
19.2968  9.55873e+21
19.4141  9.48857e+21
19.5314  9.42e+21
19.6487  9.35506e+21
19.766  9.29583e+21
19.8833  9.24422e+21
20.0006  9.20149e+21
20.1179  9.16847e+21
20.2352  9.14494e+21
20.3525  9.13009e+21
20.4698  9.12164e+21
20.5871  9.11664e+21
20.7044  9.11137e+21
20.8217  9.10237e+21
20.939  9.08633e+21
21.0563  9.06102e+21
21.1736  9.02564e+21
21.291  8.97989e+21
21.4083  8.92649e+21
21.5256  8.86813e+21
21.6429  8.80835e+21
21.7602  8.75153e+21
21.8775  8.70156e+21
21.9948  8.66178e+21
22.1121  8.63521e+21
22.2294  8.62375e+21
22.3467  8.6279e+21
22.464  8.6476e+21
22.5813  8.68094e+21
22.6986  8.7252e+21
22.8159  8.77686e+21
22.9332  8.83096e+21
23.0505  8.88282e+21
23.1678  8.92706e+21
23.2851  8.9599e+21
23.4024  8.97778e+21
23.5198  8.97861e+21
23.6371  8.96221e+21
23.7544  8.92946e+21
23.8717  8.88309e+21
23.989  8.82633e+21
24.1063  8.76303e+21
24.2236  8.69738e+21
24.3409  8.63288e+21
24.4582  8.57265e+21
24.5755  8.51908e+21
24.6928  8.47337e+21
24.8101  8.43579e+21
24.9274  8.40553e+21
25.0447  8.38112e+21
25.162  8.36002e+21
25.2793  8.33919e+21
25.3966  8.3154e+21
25.5139  8.28599e+21
25.6312  8.24865e+21
25.7485  8.20217e+21
25.8658  8.14663e+21
25.9832  8.08274e+21
26.1005  8.01343e+21
26.2178  7.94173e+21
26.3351  7.87096e+21
26.4524  7.80484e+21
26.5697  7.74657e+21
26.687  7.69839e+21
26.8043  7.66194e+21
26.9216  7.63801e+21
27.0389  7.62602e+21
27.1562  7.62524e+21
27.2735  7.63363e+21
27.3908  7.64892e+21
27.5081  7.6685e+21
27.6254  7.68903e+21
27.7427  7.70765e+21
27.86  7.72076e+21
27.9773  7.72624e+21
28.0946  7.72182e+21
28.212  7.70618e+21
28.3293  7.67925e+21
28.4466  7.64161e+21
28.5639  7.59513e+21
28.6812  7.54206e+21
28.7985  7.48499e+21
28.9158  7.42694e+21
29.0331  7.37032e+21
29.1504  7.31714e+21
29.2677  7.26926e+21
29.385  7.22735e+21
29.5023  7.19178e+21
29.6196  7.16211e+21
29.7369  7.1378e+21
29.8542  7.11771e+21
29.9715  7.10046e+21
30.0888  7.08455e+21
30.2061  7.06888e+21
30.3234  7.05237e+21
30.4407  7.0341e+21
30.558  7.01377e+21
30.6754  6.99076e+21
30.7927  6.96562e+21
30.91  6.93868e+21
31.0273  6.91016e+21
31.1446  6.88048e+21
31.2619  6.8502e+21
31.3792  6.81934e+21
31.4965  6.78797e+21
31.6138  6.75634e+21
31.7311  6.72393e+21
31.8484  6.69104e+21
31.9657  6.65747e+21
32.083  6.6232e+21
32.2003  6.58882e+21
32.3176  6.55441e+21
32.4349  6.52092e+21
32.5522  6.48872e+21
32.6695  6.45927e+21
32.7868  6.43346e+21
32.9042  6.41219e+21
33.0215  6.39649e+21
33.1388  6.38663e+21
33.2561  6.38291e+21
33.3734  6.38475e+21
33.4907  6.39093e+21
33.608  6.40001e+21
33.7253  6.40978e+21
33.8426  6.41775e+21
33.9599  6.42212e+21
34.0772  6.42048e+21
34.1945  6.41147e+21
34.3118  6.39384e+21
34.4291  6.36729e+21
34.5464  6.33203e+21
34.6637  6.28871e+21
34.781  6.23826e+21
34.8983  6.18243e+21
35.0156  6.12295e+21
35.1329  6.06158e+21
35.2503  6.00028e+21
35.3676  5.9402e+21
35.4849  5.88289e+21
35.6022  5.82931e+21
35.7195  5.77954e+21
35.8368  5.73338e+21
35.9541  5.69047e+21
36.0714  5.64973e+21
36.1887  5.61017e+21
36.306  5.57098e+21
36.4233  5.53109e+21
36.5406  5.49042e+21
36.6579  5.44885e+21
36.7752  5.40664e+21
36.8925  5.36483e+21
37.0098  5.32409e+21
37.1271  5.28582e+21
37.2444  5.25079e+21
37.3617  5.22038e+21
37.479  5.19541e+21
37.5964  5.17621e+21
37.7137  5.16328e+21
37.831  5.15579e+21
37.9483  5.15316e+21
38.0656  5.15366e+21
38.1829  5.15516e+21
38.3002  5.15542e+21
38.4175  5.1515e+21
38.5348  5.14092e+21
38.6521  5.1221e+21
38.7694  5.09348e+21
38.8867  5.05521e+21
39.004  5.00776e+21
39.1213  4.95308e+21
39.2386  4.89356e+21
39.3559  4.83203e+21
39.4732  4.77118e+21
39.5905  4.71394e+21
39.7078  4.66258e+21
39.8251  4.61889e+21
39.9425  4.58421e+21
40.0598  4.55872e+21
40.1771  4.54265e+21
40.2944  4.53562e+21
40.4117  4.53642e+21
40.529  4.54339e+21
40.6463  4.55489e+21
40.7636  4.56848e+21
40.8809  4.58197e+21
40.9982  4.59322e+21
41.1155  4.60004e+21
41.2328  4.60127e+21
41.3501  4.59595e+21
41.4674  4.58362e+21
41.5847  4.56486e+21
41.702  4.53998e+21
41.8193  4.50997e+21
41.9366  4.47525e+21
42.0539  4.43669e+21
42.1712  4.39468e+21
42.2885  4.34928e+21
42.4059  4.30128e+21
42.5232  4.25056e+21
42.6405  4.19808e+21
42.7578  4.14459e+21
42.8751  4.09109e+21
42.9924  4.03895e+21
43.1097  3.98896e+21
43.227  3.94211e+21
43.3443  3.89957e+21
43.4616  3.86159e+21
43.5789  3.82907e+21
43.6962  3.80204e+21
43.8135  3.7811e+21
43.9308  3.76643e+21
44.0481  3.75816e+21
44.1654  3.75589e+21
44.2827  3.75924e+21
44.4  3.76706e+21
44.5173  3.77783e+21
44.6347  3.78976e+21
44.752  3.80032e+21
44.8693  3.80748e+21
44.9866  3.80948e+21
45.1039  3.80477e+21
45.2212  3.79229e+21
45.3385  3.77215e+21
45.4558  3.74453e+21
45.5731  3.71059e+21
45.6904  3.67159e+21
45.8077  3.62893e+21
45.925  3.58446e+21
46.0423  3.53964e+21
46.1596  3.49566e+21
46.2769  3.45392e+21
46.3942  3.41498e+21
46.5115  3.3794e+21
46.6288  3.34691e+21
46.7461  3.31715e+21
46.8634  3.28934e+21
46.9808  3.26208e+21
47.0981  3.23477e+21
47.2154  3.20595e+21
47.3327  3.17523e+21
47.45  3.1423e+21
47.5673  3.10751e+21
47.6846  3.07175e+21
47.8019  3.03594e+21
47.9192  3.00146e+21
48.0365  2.96998e+21
48.1538  2.94253e+21
48.2711  2.92048e+21
48.3884  2.90415e+21
48.5057  2.89415e+21
48.623  2.89001e+21
48.7403  2.89102e+21
48.8576  2.89583e+21
48.9749  2.90278e+21
49.0922  2.90959e+21
49.2095  2.91402e+21
49.3269  2.91379e+21
49.4442  2.9067e+21
49.5615  2.89134e+21
49.6788  2.86705e+21
49.7961  2.83393e+21
49.9134  2.79274e+21
50.0307  2.74547e+21
50.148  2.69408e+21
50.2653  2.64125e+21
50.3826  2.58936e+21
50.4999  2.54039e+21
50.6172  2.49624e+21
50.7345  2.45786e+21
