#S 1 spectral density
#N 2
#UFWHM 25.3379
#L  abscissas [um]  spectral density
-58.5938  1.00911e+20
-58.4764  9.65701e+19
-58.3591  9.40477e+19
-58.2418  9.32083e+19
-58.1245  9.36656e+19
-58.0072  9.48602e+19
-57.8899  9.62754e+19
-57.7726  9.74557e+19
-57.6553  9.82388e+19
-57.538  9.87183e+19
-57.4207  9.92255e+19
-57.3034  1.0018e+20
-57.1861  1.02056e+20
-57.0688  1.05099e+20
-56.9515  1.09412e+20
-56.8342  1.14722e+20
-56.7169  1.20726e+20
-56.5996  1.26817e+20
-56.4823  1.32619e+20
-56.365  1.37719e+20
-56.2477  1.41906e+20
-56.1303  1.4508e+20
-56.013  1.47385e+20
-55.8957  1.48834e+20
-55.7784  1.49585e+20
-55.6611  1.49588e+20
-55.5438  1.48858e+20
-55.4265  1.47477e+20
-55.3092  1.45514e+20
-55.1919  1.43105e+20
-55.0746  1.40615e+20
-54.9573  1.3827e+20
-54.84  1.36514e+20
-54.7227  1.3546e+20
-54.6054  1.35217e+20
-54.4881  1.35621e+20
-54.3708  1.36277e+20
-54.2535  1.36743e+20
-54.1362  1.36533e+20
-54.0189  1.35304e+20
-53.9016  1.32873e+20
-53.7842  1.29408e+20
-53.6669  1.25377e+20
-53.5496  1.21466e+20
-53.4323  1.18526e+20
-53.315  1.17466e+20
-53.1977  1.19042e+20
-53.0804  1.23791e+20
-52.9631  1.3192e+20
-52.8458  1.43265e+20
-52.7285  1.57235e+20
-52.6112  1.73007e+20
-52.4939  1.89466e+20
-52.3766  2.05484e+20
-52.2593  2.19871e+20
-52.142  2.31747e+20
-52.0247  2.40359e+20
-51.9074  2.45267e+20
-51.7901  2.46286e+20
-51.6728  2.43631e+20
-51.5555  2.37519e+20
-51.4381  2.28349e+20
-51.3208  2.16643e+20
-51.2035  2.02851e+20
-51.0862  1.87628e+20
-50.9689  1.71485e+20
-50.8516  1.55118e+20
-50.7343  1.39118e+20
-50.617  1.24192e+20
-50.4997  1.10929e+20
-50.3824  9.9778e+19
-50.2651  9.10926e+19
-50.1478  8.50782e+19
-50.0305  8.17311e+19
-49.9132  8.10017e+19
-49.7959  8.26382e+19
-49.6786  8.64362e+19
-49.5613  9.21413e+19
-49.444  9.94813e+19
-49.3267  1.08114e+20
-49.2094  1.17588e+20
-49.092  1.27384e+20
-48.9747  1.36814e+20
-48.8574  1.45309e+20
-48.7401  1.5223e+20
-48.6228  1.57175e+20
-48.5055  1.59966e+20
-48.3882  1.60762e+20
-48.2709  1.60027e+20
-48.1536  1.58413e+20
-48.0363  1.56704e+20
-47.919  1.55798e+20
-47.8017  1.56425e+20
-47.6844  1.59162e+20
-47.5671  1.64349e+20
-47.4498  1.72225e+20
-47.3325  1.82653e+20
-47.2152  1.95482e+20
-47.0979  2.10212e+20
-46.9806  2.26147e+20
-46.8633  2.42432e+20
-46.7459  2.57982e+20
-46.6286  2.71597e+20
-46.5113  2.82055e+20
-46.394  2.88498e+20
-46.2767  2.90315e+20
-46.1594  2.87571e+20
-46.0421  2.80818e+20
-45.9248  2.71279e+20
-45.8075  2.60529e+20
-45.6902  2.50077e+20
-45.5729  2.41555e+20
-45.4556  2.35891e+20
-45.3383  2.33564e+20
-45.221  2.34322e+20
-45.1037  2.37345e+20
-44.9864  2.41577e+20
-44.8691  2.45801e+20
-44.7518  2.4893e+20
-44.6345  2.50263e+20
-44.5172  2.49513e+20
-44.3998  2.4685e+20
-44.2825  2.4249e+20
-44.1652  2.37139e+20
-44.0479  2.3154e+20
-43.9306  2.26284e+20
-43.8133  2.22003e+20
-43.696  2.19214e+20
-43.5787  2.1828e+20
-43.4614  2.19295e+20
-43.3441  2.22364e+20
-43.2268  2.27137e+20
-43.1095  2.33203e+20
-42.9922  2.39731e+20
-42.8749  2.45962e+20
-42.7576  2.51034e+20
-42.6403  2.54392e+20
-42.523  2.55785e+20
-42.4057  2.55477e+20
-42.2884  2.54144e+20
-42.171  2.52845e+20
-42.0537  2.52869e+20
-41.9364  2.5537e+20
-41.8191  2.61115e+20
-41.7018  2.70321e+20
-41.5845  2.82735e+20
-41.4672  2.97475e+20
-41.3499  3.13347e+20
-41.2326  3.28903e+20
-41.1153  3.43008e+20
-40.998  3.54678e+20
-40.8807  3.63399e+20
-40.7634  3.69063e+20
-40.6461  3.72016e+20
-40.5288  3.72683e+20
-40.4115  3.71745e+20
-40.2942  3.69964e+20
-40.1769  3.67654e+20
-40.0596  3.65317e+20
-39.9423  3.63256e+20
-39.825  3.61606e+20
-39.7076  3.60442e+20
-39.5903  3.59721e+20
-39.473  3.59226e+20
-39.3557  3.58713e+20
-39.2384  3.57814e+20
-39.1211  3.5599e+20
-39.0038  3.5299e+20
-38.8865  3.48539e+20
-38.7692  3.42716e+20
-38.6519  3.36017e+20
-38.5346  3.29078e+20
-38.4173  3.22859e+20
-38.3  3.18462e+20
-38.1827  3.16958e+20
-38.0654  3.19169e+20
-37.9481  3.25613e+20
-37.8308  3.36427e+20
-37.7135  3.51296e+20
-37.5962  3.69501e+20
-37.4789  3.90146e+20
-37.3615  4.1205e+20
-37.2442  4.33882e+20
-37.1269  4.54609e+20
-37.0096  4.72696e+20
-36.8923  4.87366e+20
-36.775  4.97732e+20
-36.6577  5.03376e+20
-36.5404  5.04156e+20
-36.4231  5.00416e+20
-36.3058  4.93034e+20
-36.1885  4.8309e+20
-36.0712  4.71924e+20
-35.9539  4.60847e+20
-35.8366  4.51012e+20
-35.7193  4.43306e+20
-35.602  4.38011e+20
-35.4847  4.34784e+20
-35.3674  4.33124e+20
-35.2501  4.3219e+20
-35.1328  4.31031e+20
-35.0154  4.29188e+20
-34.8981  4.26507e+20
-34.7808  4.23429e+20
-34.6635  4.20767e+20
-34.5462  4.19995e+20
-34.4289  4.22464e+20
-34.3116  4.29714e+20
-34.1943  4.42843e+20
-34.077  4.62655e+20
-33.9597  4.89238e+20
-33.8424  5.21974e+20
-33.7251  5.59651e+20
-33.6078  6.00536e+20
-33.4905  6.42423e+20
-33.3732  6.82937e+20
-33.2559  7.19665e+20
-33.1386  7.50742e+20
-33.0213  7.74562e+20
-32.904  7.90276e+20
-32.7867  7.98256e+20
-32.6693  7.99189e+20
-32.552  7.94666e+20
-32.4347  7.87142e+20
-32.3174  7.78512e+20
-32.2001  7.71334e+20
-32.0828  7.67171e+20
-31.9655  7.67189e+20
-31.8482  7.71853e+20
-31.7309  7.8053e+20
-31.6136  7.92388e+20
-31.4963  8.05865e+20
-31.379  8.19451e+20
-31.2617  8.31446e+20
-31.1444  8.40686e+20
-31.0271  8.46262e+20
-30.9098  8.47735e+20
-30.7925  8.45346e+20
-30.6752  8.39476e+20
-30.5579  8.30704e+20
-30.4406  8.19918e+20
-30.3232  8.08158e+20
-30.2059  7.96217e+20
-30.0886  7.84573e+20
-29.9713  7.73671e+20
-29.854  7.63637e+20
-29.7367  7.54432e+20
-29.6194  7.45833e+20
-29.5021  7.37507e+20
-29.3848  7.29304e+20
-29.2675  7.21414e+20
-29.1502  7.13812e+20
-29.0329  7.07302e+20
-28.9156  7.02734e+20
-28.7983  7.01183e+20
-28.681  7.03987e+20
-28.5637  7.12274e+20
-28.4464  7.27334e+20
-28.3291  7.49795e+20
-28.2118  7.79936e+20
-28.0944  8.17673e+20
-27.9771  8.61737e+20
-27.8598  9.10438e+20
-27.7425  9.61477e+20
-27.6252  1.01182e+21
-27.5079  1.05861e+21
-27.3906  1.09882e+21
-27.2733  1.13031e+21
-27.156  1.15218e+21
-27.0387  1.1641e+21
-26.9214  1.16781e+21
-26.8041  1.16577e+21
-26.6868  1.16155e+21
-26.5695  1.15875e+21
-26.4522  1.16096e+21
-26.3349  1.17125e+21
-26.2176  1.19126e+21
-26.1003  1.22166e+21
-25.983  1.26156e+21
-25.8657  1.30905e+21
-25.7483  1.36179e+21
-25.631  1.41671e+21
-25.5137  1.47123e+21
-25.3964  1.52256e+21
-25.2791  1.56919e+21
-25.1618  1.60993e+21
-25.0445  1.64473e+21
-24.9272  1.67418e+21
-24.8099  1.69972e+21
-24.6926  1.72332e+21
-24.5753  1.74764e+21
-24.458  1.7747e+21
-24.3407  1.80696e+21
-24.2234  1.84577e+21
-24.1061  1.89173e+21
-23.9888  1.94449e+21
-23.8715  2.00249e+21
-23.7542  2.06373e+21
-23.6369  2.12581e+21
-23.5196  2.18648e+21
-23.4023  2.24429e+21
-23.2849  2.29877e+21
-23.1676  2.3506e+21
-23.0503  2.40153e+21
-22.933  2.45399e+21
-22.8157  2.51063e+21
-22.6984  2.5738e+21
-22.5811  2.64523e+21
-22.4638  2.72614e+21
-22.3465  2.81632e+21
-22.2292  2.91534e+21
-22.1119  3.02177e+21
-21.9946  3.13399e+21
-21.8773  3.25032e+21
-21.76  3.36897e+21
-21.6427  3.48851e+21
-21.5254  3.60735e+21
-21.4081  3.72476e+21
-21.2908  3.83995e+21
-21.1735  3.95296e+21
-21.0561  4.06454e+21
-20.9388  4.17558e+21
-20.8215  4.28825e+21
-20.7042  4.40441e+21
-20.5869  4.52602e+21
-20.4696  4.65444e+21
-20.3523  4.79045e+21
-20.235  4.93295e+21
-20.1177  5.08019e+21
-20.0004  5.22921e+21
-19.8831  5.37626e+21
-19.7658  5.51748e+21
-19.6485  5.64951e+21
-19.5312  5.7703e+21
-19.4139  5.87861e+21
-19.2966  5.97474e+21
-19.1793  6.06094e+21
-19.062  6.13994e+21
-18.9447  6.21568e+21
-18.8274  6.29262e+21
-18.71  6.37544e+21
-18.5927  6.46845e+21
-18.4754  6.57603e+21
-18.3581  6.70129e+21
-18.2408  6.84753e+21
-18.1235  7.0158e+21
-18.0062  7.20638e+21
-17.8889  7.41783e+21
-17.7716  7.64782e+21
-17.6543  7.89249e+21
-17.537  8.1471e+21
-17.4197  8.40679e+21
-17.3024  8.6667e+21
-17.1851  8.92311e+21
-17.0678  9.1728e+21
-16.9505  9.41462e+21
-16.8332  9.64803e+21
-16.7159  9.87426e+21
-16.5986  1.00948e+22
-16.4813  1.0312e+22
-16.364  1.05278e+22
-16.2466  1.07431e+22
-16.1293  1.09583e+22
-16.012  1.1173e+22
-15.8947  1.13851e+22
-15.7774  1.15922e+22
-15.6601  1.17915e+22
-15.5428  1.19794e+22
-15.4255  1.21537e+22
-15.3082  1.23123e+22
-15.1909  1.24544e+22
-15.0736  1.25808e+22
-14.9563  1.26935e+22
-14.839  1.27965e+22
-14.7217  1.28945e+22
-14.6044  1.29924e+22
-14.4871  1.30967e+22
-14.3698  1.32119e+22
-14.2525  1.33422e+22
-14.1352  1.34903e+22
-14.0178  1.36577e+22
-13.9005  1.38435e+22
-13.7832  1.40459e+22
-13.6659  1.4261e+22
-13.5486  1.44861e+22
-13.4313  1.47154e+22
-13.314  1.49455e+22
-13.1967  1.51729e+22
-13.0794  1.53951e+22
-12.9621  1.5611e+22
-12.8448  1.5821e+22
-12.7275  1.60262e+22
-12.6102  1.62297e+22
-12.4929  1.64353e+22
-12.3756  1.66462e+22
-12.2583  1.68666e+22
-12.141  1.70993e+22
-12.0237  1.73463e+22
-11.9064  1.76075e+22
-11.7891  1.78824e+22
-11.6718  1.81683e+22
-11.5544  1.84613e+22
-11.4371  1.8757e+22
-11.3198  1.90503e+22
-11.2025  1.93368e+22
-11.0852  1.96131e+22
-10.9679  1.98764e+22
-10.8506  2.01261e+22
-10.7333  2.03626e+22
-10.616  2.05881e+22
-10.4987  2.0806e+22
-10.3814  2.10205e+22
-10.2641  2.12362e+22
-10.1468  2.14577e+22
-10.0295  2.1689e+22
-9.91217  2.19323e+22
-9.79487  2.21893e+22
-9.67756  2.2459e+22
-9.56026  2.27385e+22
-9.44295  2.30236e+22
-9.32565  2.33086e+22
-9.20834  2.35866e+22
-9.09104  2.38507e+22
-8.97373  2.40944e+22
-8.85643  2.43132e+22
-8.73913  2.45025e+22
-8.62182  2.46619e+22
-8.50452  2.47921e+22
-8.38721  2.48957e+22
-8.26991  2.49776e+22
-8.1526  2.50431e+22
-8.03529  2.50982e+22
-7.91799  2.51492e+22
-7.80069  2.52018e+22
-7.68338  2.52599e+22
-7.56608  2.53269e+22
-7.44877  2.54048e+22
-7.33146  2.54939e+22
-7.21416  2.55933e+22
-7.09685  2.5702e+22
-6.97955  2.58178e+22
-6.86224  2.59393e+22
-6.74494  2.60656e+22
-6.62763  2.61957e+22
-6.51033  2.63307e+22
-6.39302  2.64725e+22
-6.27572  2.66234e+22
-6.15842  2.67871e+22
-6.04111  2.69667e+22
-5.92381  2.71653e+22
-5.8065  2.73859e+22
-5.68919  2.76291e+22
-5.57189  2.78946e+22
-5.45458  2.81796e+22
-5.33728  2.84803e+22
-5.21997  2.87899e+22
-5.10267  2.9101e+22
-4.98536  2.94044e+22
-4.86806  2.96911e+22
-4.75075  2.99522e+22
-4.63345  3.01807e+22
-4.51614  3.03712e+22
-4.39884  3.05211e+22
-4.28154  3.06313e+22
-4.16423  3.07057e+22
-4.04692  3.07504e+22
-3.92962  3.07745e+22
-3.81231  3.07879e+22
-3.69501  3.07999e+22
-3.5777  3.08197e+22
-3.4604  3.0854e+22
-3.34309  3.09075e+22
-3.22579  3.09814e+22
-3.10849  3.10753e+22
-2.99118  3.11855e+22
-2.87387  3.13067e+22
-2.75657  3.14325e+22
-2.63926  3.15552e+22
-2.52196  3.1668e+22
-2.40465  3.17642e+22
-2.28735  3.18381e+22
-2.17005  3.18873e+22
-2.05274  3.19106e+22
-1.93544  3.19093e+22
-1.81813  3.18877e+22
-1.70083  3.18513e+22
-1.58352  3.1807e+22
-1.46622  3.17624e+22
-1.34891  3.17243e+22
-1.2316  3.16976e+22
-1.1143  3.1686e+22
-0.996995  3.16902e+22
-0.87969  3.17095e+22
-0.762385  3.17399e+22
-0.64508  3.17783e+22
-0.527775  3.18192e+22
-0.41047  3.18581e+22
-0.293165  3.18908e+22
-0.17586  3.19142e+22
-0.058555  3.19264e+22
0.05875  3.19256e+22
0.176055  3.19124e+22
0.29336  3.18873e+22
0.410665  3.18533e+22
0.52797  3.18125e+22
0.645275  3.17698e+22
0.76258  3.17295e+22
0.879885  3.16971e+22
0.99719  3.16756e+22
1.1145  3.16693e+22
1.2318  3.16786e+22
1.3491  3.17031e+22
1.46641  3.17387e+22
1.58371  3.17807e+22
1.70102  3.18223e+22
1.81832  3.18559e+22
1.93563  3.18748e+22
2.05294  3.18731e+22
2.17024  3.18473e+22
2.28754  3.17958e+22
2.40485  3.17191e+22
2.52216  3.16207e+22
2.63946  3.15058e+22
2.75677  3.13807e+22
2.87407  3.1253e+22
2.99137  3.11295e+22
3.10868  3.10171e+22
3.22599  3.09209e+22
3.34329  3.08444e+22
3.4606  3.07886e+22
3.5779  3.07514e+22
3.69521  3.07286e+22
3.81251  3.07135e+22
3.92982  3.06965e+22
4.04712  3.06686e+22
4.16443  3.06204e+22
4.28173  3.05423e+22
4.39903  3.04284e+22
4.51634  3.0275e+22
4.63364  3.00817e+22
4.75095  2.98505e+22
4.86825  2.9587e+22
4.98556  2.92984e+22
5.10286  2.89939e+22
5.22017  2.86817e+22
5.33748  2.83714e+22
5.45478  2.80705e+22
5.57209  2.77854e+22
5.68939  2.75197e+22
5.8067  2.72765e+22
5.924  2.70558e+22
6.0413  2.68569e+22
6.15861  2.66769e+22
6.27591  2.65125e+22
6.39322  2.63607e+22
6.51052  2.62179e+22
6.62783  2.60814e+22
6.74514  2.59497e+22
6.86244  2.58222e+22
6.97975  2.56991e+22
7.09705  2.55816e+22
7.21436  2.54715e+22
7.33166  2.53702e+22
7.44897  2.52798e+22
7.56627  2.52004e+22
7.68358  2.51318e+22
7.80088  2.50722e+22
7.91819  2.50181e+22
8.03549  2.49654e+22
8.1528  2.49086e+22
8.2701  2.48413e+22
8.38741  2.47576e+22
8.50471  2.46521e+22
8.62202  2.45199e+22
8.73932  2.43582e+22
8.85662  2.41668e+22
8.97393  2.3946e+22
9.09123  2.37001e+22
9.20854  2.34342e+22
9.32584  2.31545e+22
9.44315  2.28678e+22
9.56045  2.25811e+22
9.67776  2.23003e+22
9.79506  2.20297e+22
9.91237  2.17715e+22
10.0297  2.15274e+22
10.147  2.12957e+22
10.2643  2.10736e+22
10.3816  2.08576e+22
10.4989  2.06428e+22
10.6162  2.04245e+22
10.7335  2.0199e+22
10.8508  1.99626e+22
10.9681  1.97129e+22
11.0854  1.94498e+22
11.2027  1.91737e+22
11.32  1.88873e+22
11.4373  1.85943e+22
11.5546  1.82991e+22
11.6719  1.80062e+22
11.7893  1.77207e+22
11.9066  1.74462e+22
12.0239  1.71848e+22
12.1412  1.69383e+22
12.2585  1.67059e+22
12.3758  1.64859e+22
12.4931  1.62751e+22
12.6104  1.60698e+22
12.7277  1.58664e+22
12.845  1.56614e+22
12.9623  1.54518e+22
13.0796  1.52363e+22
13.1969  1.50143e+22
13.3142  1.47877e+22
13.4315  1.45579e+22
13.5488  1.43291e+22
13.6661  1.41049e+22
13.7834  1.389e+22
13.9007  1.36884e+22
14.018  1.35029e+22
14.1354  1.3336e+22
14.2527  1.3188e+22
14.37  1.30581e+22
14.4873  1.2943e+22
14.6046  1.28388e+22
14.7219  1.27409e+22
14.8392  1.26431e+22
14.9565  1.254e+22
15.0738  1.24275e+22
15.1911  1.23013e+22
15.3084  1.21595e+22
15.4257  1.20014e+22
15.543  1.1828e+22
15.6603  1.16406e+22
15.7776  1.14425e+22
15.8949  1.12364e+22
16.0122  1.10254e+22
16.1295  1.08121e+22
16.2468  1.0598e+22
16.3641  1.03836e+22
16.4815  1.01691e+22
16.5988  9.95305e+21
16.7161  9.73318e+21
16.8334  9.50791e+21
16.9507  9.27557e+21
17.068  9.03501e+21
17.1853  8.78648e+21
17.3026  8.53159e+21
17.4199  8.27327e+21
17.5372  8.01531e+21
17.6545  7.76277e+21
17.7718  7.52042e+21
17.8891  7.29251e+21
18.0064  7.08351e+21
18.1237  6.89538e+21
18.241  6.72949e+21
18.3583  6.58562e+21
18.4756  6.46229e+21
18.5929  6.35685e+21
18.7102  6.26562e+21
18.8275  6.18469e+21
18.9449  6.10932e+21
19.0622  6.03518e+21
19.1795  5.95764e+21
19.2968  5.87275e+21
19.4141  5.77789e+21
19.5314  5.67097e+21
19.6487  5.55152e+21
19.766  5.42094e+21
19.8833  5.28108e+21
20.0006  5.13574e+21
20.1179  4.98843e+21
20.2352  4.84315e+21
20.3525  4.70246e+21
20.4698  4.56851e+21
20.5871  4.44198e+21
20.7044  4.32229e+21
20.8217  4.20814e+21
20.939  4.09743e+21
21.0563  3.98804e+21
21.1736  3.87845e+21
21.291  3.76719e+21
21.4083  3.65385e+21
21.5256  3.5383e+21
21.6429  3.42125e+21
21.7602  3.30366e+21
21.8775  3.18679e+21
21.9948  3.07229e+21
22.1121  2.9619e+21
22.2294  2.85716e+21
22.3467  2.76e+21
22.464  2.6715e+21
22.5813  2.59229e+21
22.6986  2.52245e+21
22.8159  2.46097e+21
22.9332  2.40583e+21
23.0505  2.35485e+21
23.1678  2.30521e+21
23.2851  2.25463e+21
23.4024  2.2014e+21
23.5198  2.14488e+21
23.6371  2.08551e+21
23.7544  2.02479e+21
23.8717  1.96495e+21
23.989  1.90837e+21
24.1063  1.85708e+21
24.2236  1.81255e+21
24.3409  1.77503e+21
24.4582  1.74412e+21
24.5755  1.71809e+21
24.6928  1.69496e+21
24.8101  1.67225e+21
24.9274  1.64756e+21
25.0447  1.61894e+21
25.162  1.58494e+21
25.2793  1.545e+21
25.3966  1.49915e+21
25.5139  1.44857e+21
25.6312  1.39506e+21
25.7485  1.34114e+21
25.8658  1.28955e+21
25.9832  1.24303e+21
26.1005  1.2044e+21
26.2178  1.1752e+21
26.3351  1.15622e+21
26.4524  1.14694e+21
26.5697  1.14554e+21
26.687  1.14897e+21
26.8043  1.15391e+21
26.9216  1.15638e+21
27.0389  1.15288e+21
27.1562  1.14103e+21
27.2735  1.11944e+21
27.3908  1.08794e+21
27.5081  1.04798e+21
27.6254  1.00155e+21
27.7427  9.51602e+20
27.86  9.01082e+20
27.9773  8.52843e+20
28.0946  8.09464e+20
28.212  7.72422e+20
28.3293  7.42833e+20
28.4466  7.21021e+20
28.5639  7.06507e+20
28.6812  6.98813e+20
28.7985  6.96455e+20
28.9158  6.98401e+20
29.0331  7.03422e+20
29.1504  7.1014e+20
29.2677  7.18019e+20
29.385  7.26242e+20
29.5023  7.34585e+20
29.6196  7.43033e+20
29.7369  7.51827e+20
29.8542  7.61264e+20
29.9715  7.71453e+20
30.0888  7.82372e+20
30.2061  7.94047e+20
30.3234  8.06059e+20
30.4407  8.17817e+20
30.558  8.28538e+20
30.6754  8.37251e+20
30.7927  8.431e+20
30.91  8.45462e+20
31.0273  8.43816e+20
31.1446  8.38159e+20
31.2619  8.2882e+20
31.3792  8.16773e+20
31.4965  8.03325e+20
31.6138  7.89978e+20
31.7311  7.78119e+20
31.8484  7.69529e+20
31.9657  7.65072e+20
32.083  7.6502e+20
32.2003  7.69193e+20
32.3176  7.76426e+20
32.4349  7.84837e+20
32.5522  7.92305e+20
32.6695  7.96474e+20
32.7868  7.95343e+20
32.9042  7.87042e+20
33.0215  7.70971e+20
33.1388  7.46919e+20
33.2561  7.15654e+20
33.3734  6.78826e+20
33.4907  6.38251e+20
33.608  5.96431e+20
33.7253  5.55763e+20
33.8426  5.1819e+20
33.9599  4.85725e+20
34.0772  4.59388e+20
34.1945  4.3983e+20
34.3118  4.26815e+20
34.4291  4.19709e+20
34.5464  4.17342e+20
34.6637  4.18201e+20
34.781  4.20809e+20
34.8983  4.23872e+20
35.0156  4.26471e+20
35.1329  4.28229e+20
35.2503  4.29291e+20
35.3676  4.30258e+20
35.4849  4.31904e+20
35.6022  4.35125e+20
35.7195  4.40522e+20
35.8368  4.48235e+20
35.9541  4.57983e+20
36.0714  4.69045e+20
36.1887  4.80124e+20
36.306  4.90018e+20
36.4233  4.97259e+20
36.5406  5.00837e+20
36.6579  4.99919e+20
36.7752  4.94194e+20
36.8925  4.83701e+20
37.0098  4.68997e+20
37.1271  4.50851e+20
37.2444  4.30269e+20
37.3617  4.08491e+20
37.479  3.86762e+20
37.5964  3.6624e+20
37.7137  3.48205e+20
37.831  3.3351e+20
37.9483  3.22882e+20
38.0656  3.16548e+20
38.1829  3.14473e+20
38.3002  3.16058e+20
38.4175  3.20487e+20
38.5348  3.26697e+20
38.6521  3.33647e+20
38.7694  3.40342e+20
38.8867  3.46082e+20
39.004  3.50468e+20
39.1213  3.53427e+20
39.2386  3.55241e+20
39.3559  3.56248e+20
39.4732  3.56797e+20
39.5905  3.57307e+20
39.7078  3.5809e+20
39.8251  3.59337e+20
39.9425  3.61042e+20
40.0598  3.63172e+20
40.1771  3.65524e+20
40.2944  3.67879e+20
40.4117  3.69748e+20
40.529  3.70632e+20
40.6463  3.69959e+20
40.7636  3.6705e+20
40.8809  3.61298e+20
40.9982  3.52596e+20
41.1155  3.40913e+20
41.2328  3.2686e+20
41.3501  3.11283e+20
41.4674  2.95548e+20
41.5847  2.80955e+20
41.702  2.6868e+20
41.8193  2.59639e+20
41.9366  2.54075e+20
42.0539  2.51718e+20
42.1712  2.5178e+20
42.2885  2.53125e+20
42.4059  2.54453e+20
42.5232  2.54714e+20
42.6405  2.53269e+20
42.7578  2.49844e+20
42.8751  2.44719e+20
42.9924  2.38464e+20
43.1097  2.31935e+20
43.227  2.25923e+20
43.3443  2.2121e+20
43.4616  2.18244e+20
43.5789  2.17274e+20
43.6962  2.18303e+20
43.8135  2.21174e+20
43.9308  2.25538e+20
44.0481  2.30814e+20
44.1654  2.36411e+20
44.2827  2.41724e+20
44.4  2.46038e+20
44.5173  2.48726e+20
44.6347  2.49415e+20
44.752  2.4801e+20
44.8693  2.44794e+20
44.9866  2.40604e+20
45.1039  2.36412e+20
45.2212  2.33426e+20
45.3385  2.32809e+20
45.4558  2.3527e+20
45.5731  2.41039e+20
45.6904  2.49708e+20
45.8077  2.60134e+20
45.925  2.70906e+20
46.0423  2.80399e+20
46.1596  2.87048e+20
46.2769  2.89645e+20
46.3942  2.87676e+20
46.5115  2.8114e+20
46.6288  2.70536e+20
46.7461  2.56853e+20
46.8634  2.41308e+20
46.9808  2.25044e+20
47.0981  2.09146e+20
47.2154  1.94535e+20
47.3327  1.81809e+20
47.45  1.71474e+20
47.5673  1.63715e+20
47.6846  1.58642e+20
47.8019  1.56013e+20
47.9192  1.55472e+20
48.0365  1.56434e+20
48.1538  1.58145e+20
48.2711  1.59767e+20
48.3884  1.60501e+20
48.5057  1.59651e+20
48.623  1.56799e+20
48.7403  1.51795e+20
48.8576  1.44792e+20
48.9749  1.36264e+20
49.0922  1.26805e+20
49.2095  1.17029e+20
49.3269  1.07554e+20
49.4442  9.89887e+19
49.5615  9.16885e+19
49.6788  8.60394e+19
49.7961  8.23003e+19
49.9134  8.07449e+19
50.0307  8.15865e+19
50.148  8.50047e+19
50.2653  9.11216e+19
50.3826  9.98744e+19
50.4999  1.11106e+20
50.6172  1.24455e+20
50.7345  1.39446e+20
