#S 1 spectral density
#N 2
#UFWHM 25.1033
#L  abscissas [um]  spectral density
-58.5938  1.01561e+20
-58.4764  9.58306e+19
-58.3591  9.20381e+19
-58.2418  9.01672e+19
-58.1245  8.99114e+19
-58.0072  9.07256e+19
-57.8899  9.20576e+19
-57.7726  9.33519e+19
-57.6553  9.43161e+19
-57.538  9.48988e+19
-57.4207  9.5292e+19
-57.3034  9.58147e+19
-57.1861  9.69008e+19
-57.0688  9.88228e+19
-56.9515  1.01792e+20
-56.8342  1.05694e+20
-56.7169  1.10429e+20
-56.5996  1.15612e+20
-56.4823  1.21051e+20
-56.365  1.26458e+20
-56.2477  1.31672e+20
-56.1303  1.36534e+20
-56.013  1.41033e+20
-55.8957  1.44953e+20
-55.7784  1.48165e+20
-55.6611  1.50333e+20
-55.5438  1.51209e+20
-55.4265  1.50706e+20
-55.3092  1.48816e+20
-55.1919  1.45728e+20
-55.0746  1.41968e+20
-54.9573  1.38021e+20
-54.84  1.34641e+20
-54.7227  1.32263e+20
-54.6054  1.31264e+20
-54.4881  1.3167e+20
-54.3708  1.33155e+20
-54.2535  1.35218e+20
-54.1362  1.37194e+20
-54.0189  1.38463e+20
-53.9016  1.38509e+20
-53.7842  1.37155e+20
-53.6669  1.3457e+20
-53.5496  1.31218e+20
-53.4323  1.27833e+20
-53.315  1.25323e+20
-53.1977  1.24561e+20
-53.0804  1.26285e+20
-52.9631  1.30961e+20
-52.8458  1.38711e+20
-52.7285  1.49202e+20
-52.6112  1.61831e+20
-52.4939  1.75627e+20
-52.3766  1.89544e+20
-52.2593  2.0241e+20
-52.142  2.13307e+20
-52.0247  2.21421e+20
-51.9074  2.26249e+20
-51.7901  2.27553e+20
-51.6728  2.25518e+20
-51.5555  2.20366e+20
-51.4381  2.12516e+20
-51.3208  2.02514e+20
-51.2035  1.90825e+20
-51.0862  1.78087e+20
-50.9689  1.64754e+20
-50.8516  1.51414e+20
-50.7343  1.38516e+20
-50.617  1.26594e+20
-50.4997  1.1605e+20
-50.3824  1.07175e+20
-50.2651  1.00179e+20
-50.1478  9.51982e+19
-50.0305  9.21966e+19
-49.9132  9.11815e+19
-49.7959  9.1982e+19
-49.6786  9.45274e+19
-49.5613  9.87058e+19
-49.444  1.04385e+20
-49.3267  1.11335e+20
-49.2094  1.19193e+20
-49.092  1.27481e+20
-48.9747  1.35521e+20
-48.8574  1.42709e+20
-48.7401  1.48352e+20
-48.6228  1.51981e+20
-48.5055  1.53353e+20
-48.3882  1.52566e+20
-48.2709  1.50051e+20
-48.1536  1.46455e+20
-48.0363  1.42588e+20
-47.919  1.39408e+20
-47.8017  1.37755e+20
-47.6844  1.38344e+20
-47.5671  1.41672e+20
-47.4498  1.48154e+20
-47.3325  1.57835e+20
-47.2152  1.70691e+20
-47.0979  1.86325e+20
-46.9806  2.04072e+20
-46.8633  2.23004e+20
-46.7459  2.41894e+20
-46.6286  2.59301e+20
-46.5113  2.73697e+20
-46.394  2.83878e+20
-46.2767  2.88887e+20
-46.1594  2.88484e+20
-46.0421  2.82993e+20
-45.9248  2.73534e+20
-45.8075  2.61713e+20
-45.6902  2.49214e+20
-45.5729  2.37969e+20
-45.4556  2.2931e+20
-45.3383  2.24168e+20
-45.221  2.22738e+20
-45.1037  2.2458e+20
-44.9864  2.28906e+20
-44.8691  2.34613e+20
-44.7518  2.40542e+20
-44.6345  2.45755e+20
-44.5172  2.49571e+20
-44.3998  2.51671e+20
-44.2825  2.5173e+20
-44.1652  2.49962e+20
-44.0479  2.467e+20
-43.9306  2.42286e+20
-43.8133  2.37284e+20
-43.696  2.32325e+20
-43.5787  2.28085e+20
-43.4614  2.25073e+20
-43.3441  2.23889e+20
-43.2268  2.24659e+20
-43.1095  2.27383e+20
-42.9922  2.31505e+20
-42.8749  2.36371e+20
-42.7576  2.4105e+20
-42.6403  2.44768e+20
-42.523  2.46937e+20
-42.4057  2.47433e+20
-42.2884  2.46558e+20
-42.171  2.45056e+20
-42.0537  2.44025e+20
-41.9364  2.44573e+20
-41.8191  2.47552e+20
-41.7018  2.53424e+20
-41.5845  2.62247e+20
-41.4672  2.73496e+20
-41.3499  2.86344e+20
-41.2326  2.9964e+20
-41.1153  3.12454e+20
-40.998  3.23894e+20
-40.8807  3.33413e+20
-40.7634  3.40775e+20
-40.6461  3.46096e+20
-40.5288  3.4953e+20
-40.4115  3.51475e+20
-40.2942  3.52437e+20
-40.1769  3.52548e+20
-40.0596  3.52195e+20
-39.9423  3.51654e+20
-39.825  3.51126e+20
-39.7076  3.50812e+20
-39.5903  3.50809e+20
-39.473  3.51068e+20
-39.3557  3.51472e+20
-39.2384  3.5172e+20
-39.1211  3.51254e+20
-39.0038  3.49739e+20
-38.8865  3.4674e+20
-38.7692  3.42122e+20
-38.6519  3.36159e+20
-38.5346  3.29305e+20
-38.4173  3.22389e+20
-38.3  3.16483e+20
-38.1827  3.12766e+20
-38.0654  3.12269e+20
-37.9481  3.15836e+20
-37.8308  3.23996e+20
-37.7135  3.36842e+20
-37.5962  3.54041e+20
-37.4789  3.7497e+20
-37.3615  3.98599e+20
-37.2442  4.23568e+20
-37.1269  4.48622e+20
-37.0096  4.71851e+20
-36.8923  4.91946e+20
-36.775  5.07432e+20
-36.6577  5.17297e+20
-36.5404  5.20871e+20
-36.4231  5.18111e+20
-36.3058  5.09715e+20
-36.1885  4.96799e+20
-36.0712  4.80968e+20
-35.9539  4.63991e+20
-35.8366  4.47634e+20
-35.7193  4.33434e+20
-35.602  4.22316e+20
-35.4847  4.14472e+20
-35.3674  4.0974e+20
-35.2501  4.07399e+20
-35.1328  4.06398e+20
-35.0154  4.05936e+20
-34.8981  4.05371e+20
-34.7808  4.04562e+20
-34.6635  4.03752e+20
-34.5462  4.03937e+20
-34.4289  4.06173e+20
-34.3116  4.11931e+20
-34.1943  4.2248e+20
-34.077  4.39021e+20
-33.9597  4.62205e+20
-33.8424  4.92081e+20
-33.7251  5.28067e+20
-33.6078  5.68959e+20
-33.4905  6.12871e+20
-33.3732  6.57502e+20
-33.2559  7.00231e+20
-33.1386  7.38695e+20
-33.0213  7.70597e+20
-32.904  7.94245e+20
-32.7867  8.09143e+20
-32.6693  8.15197e+20
-32.552  8.13366e+20
-32.4347  8.0576e+20
-32.3174  7.94187e+20
-32.2001  7.81444e+20
-32.0828  7.6961e+20
-31.9655  7.60541e+20
-31.8482  7.55553e+20
-31.7309  7.54873e+20
-31.6136  7.58451e+20
-31.4963  7.65366e+20
-31.379  7.74542e+20
-31.2617  7.84459e+20
-31.1444  7.93886e+20
-31.0271  8.01655e+20
-30.9098  8.06878e+20
-30.7925  8.09255e+20
-30.6752  8.08608e+20
-30.5579  8.04996e+20
-30.4406  7.98881e+20
-30.3232  7.91004e+20
-30.2059  7.82032e+20
-30.0886  7.72445e+20
-29.9713  7.62808e+20
-29.854  7.53455e+20
-29.7367  7.44592e+20
-29.6194  7.36195e+20
-29.5021  7.28087e+20
-29.3848  7.20181e+20
-29.2675  7.12636e+20
-29.1502  7.05301e+20
-29.0329  6.98779e+20
-28.9156  6.93704e+20
-28.7983  6.90951e+20
-28.681  6.91709e+20
-28.5637  6.97068e+20
-28.4464  7.08392e+20
-28.3291  7.26507e+20
-28.2118  7.51998e+20
-28.0944  7.85171e+20
-27.9771  8.25149e+20
-27.8598  8.70626e+20
-27.7425  9.19591e+20
-27.6252  9.69184e+20
-27.5079  1.01654e+21
-27.3906  1.05851e+21
-27.2733  1.09264e+21
-27.156  1.11763e+21
-27.0387  1.13271e+21
-26.9214  1.13914e+21
-26.8041  1.13905e+21
-26.6868  1.13575e+21
-26.5695  1.13278e+21
-26.4522  1.13388e+21
-26.3349  1.14241e+21
-26.2176  1.16045e+21
-26.1003  1.18914e+21
-25.983  1.22806e+21
-25.8657  1.27567e+21
-25.7483  1.32979e+21
-25.631  1.38728e+21
-25.5137  1.44525e+21
-25.3964  1.50037e+21
-25.2791  1.55039e+21
-25.1618  1.59331e+21
-25.0445  1.62829e+21
-24.9272  1.6553e+21
-24.8099  1.67541e+21
-24.6926  1.69054e+21
-24.5753  1.70367e+21
-24.458  1.71749e+21
-24.3407  1.73543e+21
-24.2234  1.75997e+21
-24.1061  1.7929e+21
-23.9888  1.83493e+21
-23.8715  1.8853e+21
-23.7542  1.94247e+21
-23.6369  2.00407e+21
-23.5196  2.06746e+21
-23.4023  2.13039e+21
-23.2849  2.19134e+21
-23.1676  2.24981e+21
-23.0503  2.30637e+21
-22.933  2.36249e+21
-22.8157  2.42018e+21
-22.6984  2.48156e+21
-22.5811  2.54864e+21
-22.4638  2.6233e+21
-22.3465  2.70638e+21
-22.2292  2.79873e+21
-22.1119  2.90023e+21
-21.9946  3.01038e+21
-21.8773  3.12836e+21
-21.76  3.25271e+21
-21.6427  3.38183e+21
-21.5254  3.51336e+21
-21.4081  3.64529e+21
-21.2908  3.77516e+21
-21.1735  3.90113e+21
-21.0561  4.02207e+21
-20.9388  4.13729e+21
-20.8215  4.24776e+21
-20.7042  4.35478e+21
-20.5869  4.46048e+21
-20.4696  4.56708e+21
-20.3523  4.67688e+21
-20.235  4.79089e+21
-20.1177  4.90971e+21
-20.0004  5.03287e+21
-19.8831  5.15892e+21
-19.7658  5.28592e+21
-19.6485  5.41184e+21
-19.5312  5.53526e+21
-19.4139  5.65476e+21
-19.2966  5.76974e+21
-19.1793  5.88088e+21
-19.062  5.9889e+21
-18.9447  6.0954e+21
-18.8274  6.20244e+21
-18.71  6.3125e+21
-18.5927  6.42806e+21
-18.4754  6.55214e+21
-18.3581  6.68713e+21
-18.2408  6.83618e+21
-18.1235  7.00084e+21
-18.0062  7.18225e+21
-17.8889  7.38025e+21
-17.7716  7.59386e+21
-17.6543  7.82061e+21
-17.537  8.05694e+21
-17.4197  8.29897e+21
-17.3024  8.54244e+21
-17.1851  8.78393e+21
-17.0678  9.02024e+21
-16.9505  9.25001e+21
-16.8332  9.47241e+21
-16.7159  9.68843e+21
-16.5986  9.89937e+21
-16.4813  1.01076e+22
-16.364  1.03153e+22
-16.2466  1.05238e+22
-16.1293  1.07343e+22
-16.012  1.09468e+22
-15.8947  1.11601e+22
-15.7774  1.13723e+22
-15.6601  1.1581e+22
-15.5428  1.17827e+22
-15.4255  1.19747e+22
-15.3082  1.21546e+22
-15.1909  1.23205e+22
-15.0736  1.24722e+22
-14.9563  1.26104e+22
-14.839  1.27378e+22
-14.7217  1.2858e+22
-14.6044  1.29749e+22
-14.4871  1.30944e+22
-14.3698  1.32205e+22
-14.2525  1.33578e+22
-14.1352  1.35091e+22
-14.0178  1.36766e+22
-13.9005  1.38602e+22
-13.7832  1.4059e+22
-13.6659  1.427e+22
-13.5486  1.44913e+22
-13.4313  1.47176e+22
-13.314  1.49459e+22
-13.1967  1.51725e+22
-13.0794  1.53948e+22
-12.9621  1.56114e+22
-12.8448  1.58222e+22
-12.7275  1.60275e+22
-12.6102  1.62302e+22
-12.4929  1.64335e+22
-12.3756  1.66404e+22
-12.2583  1.68554e+22
-12.141  1.70815e+22
-12.0237  1.73211e+22
-11.9064  1.7575e+22
-11.7891  1.78435e+22
-11.6718  1.81244e+22
-11.5544  1.84147e+22
-11.4371  1.87103e+22
-11.3198  1.90065e+22
-11.2025  1.92987e+22
-11.0852  1.95833e+22
-10.9679  1.98567e+22
-10.8506  2.01177e+22
-10.7333  2.03655e+22
-10.616  2.06016e+22
-10.4987  2.08285e+22
-10.3814  2.10496e+22
-10.2641  2.12691e+22
-10.1468  2.14914e+22
-10.0295  2.17205e+22
-9.91217  2.19591e+22
-9.79487  2.22095e+22
-9.67756  2.24711e+22
-9.56026  2.27421e+22
-9.44295  2.3019e+22
-9.32565  2.32966e+22
-9.20834  2.35686e+22
-9.09104  2.38284e+22
-8.97373  2.40696e+22
-8.85643  2.42879e+22
-8.73913  2.44783e+22
-8.62182  2.46404e+22
-8.50452  2.47745e+22
-8.38721  2.48831e+22
-8.26991  2.4971e+22
-8.1526  2.50434e+22
-8.03529  2.51063e+22
-7.91799  2.5166e+22
-7.80069  2.52283e+22
-7.68338  2.52973e+22
-7.56608  2.53764e+22
-7.44877  2.54674e+22
-7.33146  2.55703e+22
-7.21416  2.56842e+22
-7.09685  2.58073e+22
-6.97955  2.5937e+22
-6.86224  2.60713e+22
-6.74494  2.62088e+22
-6.62763  2.63479e+22
-6.51033  2.64891e+22
-6.39302  2.66342e+22
-6.27572  2.67853e+22
-6.15842  2.69463e+22
-6.04111  2.71206e+22
-5.92381  2.73121e+22
-5.8065  2.7524e+22
-5.68919  2.7758e+22
-5.57189  2.80147e+22
-5.45458  2.82918e+22
-5.33728  2.85865e+22
-5.21997  2.88922e+22
-5.10267  2.9202e+22
-4.98536  2.95067e+22
-4.86806  2.97971e+22
-4.75075  3.00643e+22
-4.63345  3.03005e+22
-4.51614  3.05003e+22
-4.39884  3.06603e+22
-4.28154  3.07813e+22
-4.16423  3.08667e+22
-4.04692  3.09229e+22
-3.92962  3.09589e+22
-3.81231  3.09849e+22
-3.69501  3.10107e+22
-3.5777  3.10458e+22
-3.4604  3.10971e+22
-3.34309  3.11694e+22
-3.22579  3.1264e+22
-3.10849  3.13801e+22
-2.99118  3.15132e+22
-2.87387  3.16572e+22
-2.75657  3.18045e+22
-2.63926  3.1946e+22
-2.52196  3.20736e+22
-2.40465  3.21793e+22
-2.28735  3.22567e+22
-2.17005  3.23024e+22
-2.05274  3.23153e+22
-1.93544  3.22968e+22
-1.81813  3.22521e+22
-1.70083  3.21876e+22
-1.58352  3.2112e+22
-1.46622  3.20345e+22
-1.34891  3.19634e+22
-1.2316  3.19054e+22
-1.1143  3.18653e+22
-0.996995  3.1845e+22
-0.87969  3.18443e+22
-0.762385  3.18592e+22
-0.64508  3.18863e+22
-0.527775  3.19197e+22
-0.41047  3.19541e+22
-0.293165  3.19843e+22
-0.17586  3.20066e+22
-0.058555  3.20183e+22
0.05875  3.20176e+22
0.176055  3.20049e+22
0.29336  3.19811e+22
0.410665  3.19497e+22
0.52797  3.19137e+22
0.645275  3.18786e+22
0.76258  3.18496e+22
0.879885  3.18326e+22
0.99719  3.18312e+22
1.1145  3.18493e+22
1.2318  3.18869e+22
1.3491  3.19425e+22
1.46641  3.20109e+22
1.58371  3.20855e+22
1.70102  3.21582e+22
1.81832  3.22195e+22
1.93563  3.22613e+22
2.05294  3.22766e+22
2.17024  3.22609e+22
2.28754  3.22127e+22
2.40485  3.21325e+22
2.52216  3.20244e+22
2.63946  3.18947e+22
2.75677  3.17508e+22
2.87407  3.16017e+22
2.99137  3.14556e+22
3.10868  3.13204e+22
3.22599  3.12021e+22
3.34329  3.1105e+22
3.4606  3.10304e+22
3.5779  3.09763e+22
3.69521  3.09383e+22
3.81251  3.09095e+22
3.92982  3.08799e+22
4.04712  3.08401e+22
4.16443  3.07804e+22
4.28173  3.06912e+22
4.39903  3.05665e+22
4.51634  3.0403e+22
4.63364  3.02005e+22
4.75095  2.99615e+22
4.86825  2.9692e+22
4.98556  2.93997e+22
5.10286  2.90939e+22
5.22017  2.87831e+22
5.33748  2.84767e+22
5.45478  2.81818e+22
5.57209  2.79045e+22
5.68939  2.76476e+22
5.8067  2.74135e+22
5.924  2.72012e+22
6.0413  2.70094e+22
6.15861  2.68345e+22
6.27591  2.66726e+22
6.39322  2.65205e+22
6.51052  2.63742e+22
6.62783  2.62314e+22
6.74514  2.60907e+22
6.86244  2.59519e+22
6.97975  2.5816e+22
7.09705  2.56846e+22
7.21436  2.55601e+22
7.33166  2.54445e+22
7.44897  2.53403e+22
7.56627  2.52481e+22
7.68358  2.51676e+22
7.80088  2.50973e+22
7.91819  2.50336e+22
8.03549  2.49723e+22
8.1528  2.49078e+22
8.2701  2.48338e+22
8.38741  2.47442e+22
8.50471  2.46336e+22
8.62202  2.44974e+22
8.73932  2.4333e+22
8.85662  2.41404e+22
8.97393  2.39202e+22
9.09123  2.36766e+22
9.20854  2.34149e+22
9.32584  2.3141e+22
9.44315  2.28617e+22
9.56045  2.25831e+22
9.67776  2.23107e+22
9.79506  2.2048e+22
9.91237  2.17965e+22
10.0297  2.1557e+22
10.147  2.13274e+22
10.2643  2.11045e+22
10.3816  2.08847e+22
10.4989  2.06634e+22
10.6162  2.04363e+22
10.7335  2.02002e+22
10.8508  1.99526e+22
10.9681  1.96918e+22
11.0854  1.94186e+22
11.2027  1.91345e+22
11.32  1.88425e+22
11.4373  1.85467e+22
11.5546  1.82516e+22
11.6719  1.79614e+22
11.7893  1.76809e+22
11.9066  1.74129e+22
12.0239  1.71588e+22
12.1412  1.69195e+22
12.2585  1.66937e+22
12.3758  1.6479e+22
12.4931  1.62721e+22
12.6104  1.6069e+22
12.7277  1.58665e+22
12.845  1.56613e+22
12.9623  1.5451e+22
13.0796  1.52347e+22
13.1969  1.50125e+22
13.3142  1.47866e+22
13.4315  1.45588e+22
13.5488  1.4333e+22
13.6661  1.41126e+22
13.7834  1.39018e+22
13.9007  1.37038e+22
14.018  1.35205e+22
14.1354  1.33536e+22
14.2527  1.32024e+22
14.37  1.30656e+22
14.4873  1.29396e+22
14.6046  1.28203e+22
14.7219  1.27034e+22
14.8392  1.25835e+22
14.9565  1.24562e+22
15.0738  1.23183e+22
15.1911  1.21669e+22
15.3084  1.20014e+22
15.4257  1.18222e+22
15.543  1.16312e+22
15.6603  1.14303e+22
15.7776  1.12229e+22
15.8949  1.10118e+22
16.0122  1.07998e+22
16.1295  1.05888e+22
16.2468  1.03796e+22
16.3641  1.0172e+22
16.4815  9.96578e+21
16.5988  9.75881e+21
16.7161  9.54866e+21
16.8334  9.33373e+21
16.9507  9.11247e+21
17.068  8.88405e+21
17.1853  8.64896e+21
17.3026  8.40901e+21
17.4199  8.16712e+21
17.5372  7.92674e+21
17.6545  7.69235e+21
17.7718  7.46776e+21
17.8891  7.25602e+21
18.0064  7.06024e+21
18.1237  6.88102e+21
18.241  6.7185e+21
18.3583  6.57158e+21
18.4756  6.43836e+21
18.5929  6.31629e+21
18.7102  6.20248e+21
18.8275  6.09435e+21
18.9449  5.989e+21
19.0622  5.88431e+21
19.1795  5.77805e+21
19.2968  5.66854e+21
19.4141  5.55519e+21
19.5314  5.43743e+21
19.6487  5.31569e+21
19.766  5.19149e+21
19.8833  5.06607e+21
20.0006  4.94185e+21
20.1179  4.82045e+21
20.2352  4.70355e+21
20.3525  4.59123e+21
20.4698  4.4833e+21
20.5871  4.37839e+21
20.7044  4.27439e+21
20.8217  4.16916e+21
20.939  4.06048e+21
21.0563  3.94678e+21
21.1736  3.82774e+21
21.291  3.70352e+21
21.4083  3.57556e+21
21.5256  3.4456e+21
21.6429  3.316e+21
21.7602  3.189e+21
21.8775  3.06659e+21
21.9948  2.95058e+21
22.1121  2.84237e+21
22.2294  2.74266e+21
22.3467  2.6522e+21
22.464  2.57079e+21
22.5813  2.4978e+21
22.6986  2.43226e+21
22.8159  2.37251e+21
22.9332  2.31627e+21
23.0505  2.2616e+21
23.1678  2.20632e+21
23.2851  2.14914e+21
23.4024  2.0895e+21
23.5198  2.02794e+21
23.6371  1.96597e+21
23.7544  1.90583e+21
23.8717  1.85013e+21
23.989  1.80125e+21
24.1063  1.76071e+21
24.2236  1.72918e+21
24.3409  1.70587e+21
24.4582  1.68916e+21
24.5755  1.67623e+21
24.6928  1.66412e+21
24.8101  1.64972e+21
24.9274  1.63028e+21
25.0447  1.60394e+21
25.162  1.56963e+21
25.2793  1.52742e+21
25.3966  1.47811e+21
25.5139  1.42371e+21
25.6312  1.36673e+21
25.7485  1.31024e+21
25.8658  1.25729e+21
25.9832  1.21067e+21
26.1005  1.173e+21
26.2178  1.14551e+21
26.3351  1.12848e+21
26.4524  1.12093e+21
26.5697  1.12059e+21
26.687  1.12413e+21
26.8043  1.12812e+21
26.9216  1.1286e+21
27.0389  1.12234e+21
27.1562  1.10732e+21
27.2735  1.0826e+21
27.3908  1.04846e+21
27.5081  1.00674e+21
27.6254  9.5974e+20
27.7427  9.10537e+20
27.86  8.62078e+20
27.9773  8.17044e+20
28.0946  7.77719e+20
28.212  7.45197e+20
28.3293  7.20203e+20
28.4466  7.02683e+20
28.5639  6.91848e+20
28.6812  6.87029e+20
28.7985  6.86663e+20
28.9158  6.89772e+20
29.0331  6.95273e+20
29.1504  7.0197e+20
29.2677  7.09575e+20
29.385  7.17436e+20
29.5023  7.25466e+20
29.6196  7.3368e+20
29.7369  7.42252e+20
29.8542  7.5132e+20
29.9715  7.60785e+20
30.0888  7.70394e+20
30.2061  7.79965e+20
30.3234  7.88969e+20
30.4407  7.96801e+20
30.558  8.02828e+20
30.6754  8.06368e+20
30.7927  8.06997e+20
30.91  8.04608e+20
31.0273  7.99245e+20
31.1446  7.91449e+20
31.2619  7.8197e+20
31.3792  7.72057e+20
31.4965  7.6306e+20
31.6138  7.56298e+20
31.7311  7.52731e+20
31.8484  7.53491e+20
31.9657  7.58652e+20
32.083  7.67626e+20
32.2003  7.794e+20
32.3176  7.92107e+20
32.4349  8.03368e+20
32.5522  8.10846e+20
32.6695  8.12258e+20
32.7868  8.05965e+20
32.9042  7.90724e+20
33.0215  7.66735e+20
33.1388  7.34637e+20
33.2561  6.96043e+20
33.3734  6.53278e+20
33.4907  6.08657e+20
33.608  5.64878e+20
33.7253  5.2426e+20
33.8426  4.88416e+20
33.9599  4.58825e+20
34.0772  4.35873e+20
34.1945  4.19562e+20
34.3118  4.09089e+20
34.4291  4.03435e+20
34.5464  4.01255e+20
34.6637  4.01125e+20
34.781  4.0187e+20
34.8983  4.02669e+20
35.0156  4.03177e+20
35.1329  4.0359e+20
35.2503  4.04544e+20
35.3676  4.06957e+20
35.4849  4.1172e+20
35.6022  4.19597e+20
35.7195  4.30822e+20
35.8368  4.45021e+20
35.9541  4.61271e+20
36.0714  4.78181e+20
36.1887  4.93865e+20
36.306  5.06668e+20
36.4233  5.14861e+20
36.5406  5.17404e+20
36.6579  5.13652e+20
36.7752  5.03688e+20
36.8925  4.88072e+20
37.0098  4.6796e+20
37.1271  4.4471e+20
37.2444  4.19844e+20
37.3617  3.94981e+20
37.479  3.71575e+20
37.5964  3.50818e+20
37.7137  3.33826e+20
37.831  3.21175e+20
37.9483  3.13211e+20
38.0656  3.09749e+20
38.1829  3.10369e+20
38.3002  3.14149e+20
38.4175  3.20062e+20
38.5348  3.26958e+20
38.6521  3.3381e+20
38.7694  3.3976e+20
38.8867  3.44298e+20
39.004  3.47241e+20
39.1213  3.48726e+20
39.2386  3.49193e+20
39.3559  3.4907e+20
39.4732  3.4871e+20
39.5905  3.48465e+20
39.7078  3.48528e+20
39.8251  3.48925e+20
39.9425  3.49498e+20
40.0598  3.50094e+20
40.1771  3.50451e+20
40.2944  3.50381e+20
40.4117  3.49505e+20
40.529  3.47513e+20
40.6463  3.44093e+20
40.7636  3.38841e+20
40.8809  3.31428e+20
40.9982  3.21957e+20
41.1155  3.10542e+20
41.2328  2.97807e+20
41.3501  2.84518e+20
41.4674  2.71816e+20
41.5847  2.6071e+20
41.702  2.52014e+20
41.8193  2.46283e+20
41.9366  2.43443e+20
42.0539  2.43005e+20
42.1712  2.44087e+20
42.2885  2.45609e+20
42.4059  2.46466e+20
42.5232  2.45924e+20
42.6405  2.43718e+20
42.7578  2.39963e+20
42.8751  2.35269e+20
42.9924  2.30422e+20
43.1097  2.26339e+20
43.227  2.23692e+20
43.3443  2.22994e+20
43.4616  2.24274e+20
43.5789  2.27304e+20
43.6962  2.31599e+20
43.8135  2.36574e+20
43.9308  2.41605e+20
44.0481  2.45977e+20
44.1654  2.49182e+20
44.2827  2.50873e+20
44.4  2.50745e+20
44.5173  2.48672e+20
44.6347  2.44812e+20
44.752  2.39565e+20
44.8693  2.33597e+20
44.9866  2.27977e+20
45.1039  2.23736e+20
45.2212  2.21976e+20
45.3385  2.23576e+20
45.4558  2.28859e+20
45.5731  2.37622e+20
45.6904  2.48988e+20
45.8077  2.61428e+20
45.925  2.73224e+20
46.0423  2.82592e+20
46.1596  2.87931e+20
46.2769  2.88146e+20
46.3942  2.82955e+20
46.5115  2.72661e+20
46.6288  2.58112e+20
46.7461  2.4064e+20
46.8634  2.21769e+20
46.9808  2.02877e+20
47.0981  1.85196e+20
47.2154  1.69706e+20
47.3327  1.56982e+20
47.45  1.47424e+20
47.5673  1.41079e+20
47.6846  1.37885e+20
47.8019  1.3742e+20
47.9192  1.39169e+20
48.0365  1.42409e+20
48.1538  1.46283e+20
48.2711  1.49889e+20
48.3884  1.52398e+20
48.5057  1.53127e+20
48.623  1.51686e+20
48.7403  1.47987e+20
48.8576  1.42257e+20
48.9749  1.35026e+20
49.0922  1.26949e+20
49.2095  1.18671e+20
49.3269  1.10806e+20
49.4442  1.03912e+20
49.5615  9.82687e+19
49.6788  9.41359e+19
49.7961  9.16342e+19
49.9134  9.09042e+19
50.0307  9.2017e+19
50.148  9.50655e+19
50.2653  1.00136e+20
50.3826  1.07178e+20
50.4999  1.16123e+20
50.6172  1.26742e+20
50.7345  1.38725e+20
50.8518  1.51635e+20
