#S 1 spectral density
#N 2
#UFWHM 22.288
#L  abscissas [um]  spectral density
-58.5938  1.6115e+20
-58.4764  1.55423e+20
-58.3591  1.50176e+20
-58.2418  1.45824e+20
-58.1245  1.4279e+20
-58.0072  1.41424e+20
-57.8899  1.41942e+20
-57.7726  1.44519e+20
-57.6553  1.49325e+20
-57.538  1.56481e+20
-57.4207  1.65897e+20
-57.3034  1.77363e+20
-57.1861  1.90405e+20
-57.0688  2.04336e+20
-56.9515  2.18198e+20
-56.8342  2.30936e+20
-56.7169  2.41691e+20
-56.5996  2.4943e+20
-56.4823  2.53756e+20
-56.365  2.54461e+20
-56.2477  2.51652e+20
-56.1303  2.45964e+20
-56.013  2.38157e+20
-55.8957  2.29131e+20
-55.7784  2.19677e+20
-55.6611  2.10626e+20
-55.5438  2.02648e+20
-55.4265  1.96144e+20
-55.3092  1.91391e+20
-55.1919  1.88602e+20
-55.0746  1.87836e+20
-54.9573  1.89101e+20
-54.84  1.92232e+20
-54.7227  1.97066e+20
-54.6054  2.03259e+20
-54.4881  2.10463e+20
-54.3708  2.18249e+20
-54.2535  2.25959e+20
-54.1362  2.33147e+20
-54.0189  2.39264e+20
-53.9016  2.43885e+20
-53.7842  2.467e+20
-53.6669  2.47663e+20
-53.5496  2.46669e+20
-53.4323  2.43937e+20
-53.315  2.39694e+20
-53.1977  2.34317e+20
-53.0804  2.28154e+20
-52.9631  2.2167e+20
-52.8458  2.15264e+20
-52.7285  2.09217e+20
-52.6112  2.03778e+20
-52.4939  1.99139e+20
-52.3766  1.95436e+20
-52.2593  1.92778e+20
-52.142  1.91225e+20
-52.0247  1.91112e+20
-51.9074  1.92398e+20
-51.7901  1.95368e+20
-51.6728  1.99966e+20
-51.5555  2.06064e+20
-51.4381  2.13509e+20
-51.3208  2.21748e+20
-51.2035  2.30254e+20
-51.0862  2.38259e+20
-50.9689  2.4523e+20
-50.8516  2.50644e+20
-50.7343  2.54086e+20
-50.617  2.55411e+20
-50.4997  2.54757e+20
-50.3824  2.52326e+20
-50.2651  2.4851e+20
-50.1478  2.43555e+20
-50.0305  2.38002e+20
-49.9132  2.32108e+20
-49.7959  2.2633e+20
-49.6786  2.21131e+20
-49.5613  2.16871e+20
-49.444  2.14056e+20
-49.3267  2.13047e+20
-49.2094  2.14187e+20
-49.092  2.1756e+20
-48.9747  2.23131e+20
-48.8574  2.30471e+20
-48.7401  2.39094e+20
-48.6228  2.48198e+20
-48.5055  2.57159e+20
-48.3882  2.65212e+20
-48.2709  2.71866e+20
-48.1536  2.76796e+20
-48.0363  2.79856e+20
-47.919  2.81086e+20
-47.8017  2.80662e+20
-47.6844  2.78802e+20
-47.5671  2.75815e+20
-47.4498  2.71944e+20
-47.3325  2.67678e+20
-47.2152  2.63258e+20
-47.0979  2.59181e+20
-46.9806  2.55773e+20
-46.8633  2.53335e+20
-46.7459  2.5224e+20
-46.6286  2.52457e+20
-46.5113  2.54018e+20
-46.394  2.56631e+20
-46.2767  2.60077e+20
-46.1594  2.64023e+20
-46.0421  2.67996e+20
-45.9248  2.71807e+20
-45.8075  2.75217e+20
-45.6902  2.78093e+20
-45.5729  2.80445e+20
-45.4556  2.82162e+20
-45.3383  2.83469e+20
-45.221  2.84375e+20
-45.1037  2.85134e+20
-44.9864  2.86058e+20
-44.8691  2.87517e+20
-44.7518  2.89883e+20
-44.6345  2.93547e+20
-44.5172  2.98822e+20
-44.3998  3.05646e+20
-44.2825  3.13932e+20
-44.1652  3.2314e+20
-44.0479  3.32628e+20
-43.9306  3.41531e+20
-43.8133  3.49333e+20
-43.696  3.55417e+20
-43.5787  3.59574e+20
-43.4614  3.61929e+20
-43.3441  3.62838e+20
-43.2268  3.62896e+20
-43.1095  3.62676e+20
-42.9922  3.62728e+20
-42.8749  3.63377e+20
-42.7576  3.64823e+20
-42.6403  3.67092e+20
-42.523  3.70006e+20
-42.4057  3.735e+20
-42.2884  3.77447e+20
-42.171  3.8165e+20
-42.0537  3.86181e+20
-41.9364  3.90716e+20
-41.8191  3.95127e+20
-41.7018  3.99019e+20
-41.5845  4.01949e+20
-41.4672  4.03508e+20
-41.3499  4.03084e+20
-41.2326  4.00672e+20
-41.1153  3.96151e+20
-40.998  3.89811e+20
-40.8807  3.82207e+20
-40.7634  3.73941e+20
-40.6461  3.65786e+20
-40.5288  3.58367e+20
-40.4115  3.52192e+20
-40.2942  3.47586e+20
-40.1769  3.44874e+20
-40.0596  3.44104e+20
-39.9423  3.45449e+20
-39.825  3.49096e+20
-39.7076  3.55053e+20
-39.5903  3.63569e+20
-39.473  3.74522e+20
-39.3557  3.87644e+20
-39.2384  4.02384e+20
-39.1211  4.1822e+20
-39.0038  4.34163e+20
-38.8865  4.49205e+20
-38.7692  4.62582e+20
-38.6519  4.73568e+20
-38.5346  4.81764e+20
-38.4173  4.86924e+20
-38.3  4.89231e+20
-38.1827  4.88869e+20
-38.0654  4.86221e+20
-37.9481  4.81591e+20
-37.8308  4.75236e+20
-37.7135  4.67492e+20
-37.5962  4.58682e+20
-37.4789  4.4905e+20
-37.3615  4.39125e+20
-37.2442  4.29312e+20
-37.1269  4.20356e+20
-37.0096  4.12828e+20
-36.8923  4.07343e+20
-36.775  4.04356e+20
-36.6577  4.04119e+20
-36.5404  4.06907e+20
-36.4231  4.12576e+20
-36.3058  4.21004e+20
-36.1885  4.31912e+20
-36.0712  4.45021e+20
-35.9539  4.59899e+20
-35.8366  4.76176e+20
-35.7193  4.93336e+20
-35.602  5.10668e+20
-35.4847  5.27777e+20
-35.3674  5.4392e+20
-35.2501  5.58616e+20
-35.1328  5.71442e+20
-35.0154  5.82068e+20
-34.8981  5.90546e+20
-34.7808  5.97008e+20
-34.6635  6.01611e+20
-34.5462  6.04813e+20
-34.4289  6.0712e+20
-34.3116  6.08938e+20
-34.1943  6.1055e+20
-34.077  6.12513e+20
-33.9597  6.1503e+20
-33.8424  6.18386e+20
-33.7251  6.22567e+20
-33.6078  6.27746e+20
-33.4905  6.33744e+20
-33.3732  6.40326e+20
-33.2559  6.47084e+20
-33.1386  6.5355e+20
-33.0213  6.5923e+20
-32.904  6.63722e+20
-32.7867  6.66742e+20
-32.6693  6.68279e+20
-32.552  6.68476e+20
-32.4347  6.67944e+20
-32.3174  6.67265e+20
-32.2001  6.67309e+20
-32.0828  6.68764e+20
-31.9655  6.72304e+20
-31.8482  6.78367e+20
-31.7309  6.87147e+20
-31.6136  6.98513e+20
-31.4963  7.12043e+20
-31.379  7.27202e+20
-31.2617  7.43103e+20
-31.1444  7.58901e+20
-31.0271  7.73612e+20
-30.9098  7.86198e+20
-30.7925  7.95997e+20
-30.6752  8.02426e+20
-30.5579  8.05263e+20
-30.4406  8.04659e+20
-30.3232  8.01163e+20
-30.2059  7.95606e+20
-30.0886  7.89351e+20
-29.9713  7.8354e+20
-29.854  7.79753e+20
-29.7367  7.79285e+20
-29.6194  7.83299e+20
-29.5021  7.92428e+20
-29.3848  8.07337e+20
-29.2675  8.27842e+20
-29.1502  8.53583e+20
-29.0329  8.83321e+20
-28.9156  9.15764e+20
-28.7983  9.48923e+20
-28.681  9.80763e+20
-28.5637  1.00914e+21
-28.4464  1.03211e+21
-28.3291  1.04811e+21
-28.2118  1.05616e+21
-28.0944  1.05605e+21
-27.9771  1.04838e+21
-27.8598  1.03431e+21
-27.7425  1.01579e+21
-27.6252  9.94892e+20
-27.5079  9.74076e+20
-27.3906  9.55569e+20
-27.2733  9.41358e+20
-27.156  9.33002e+20
-27.0387  9.31777e+20
-26.9214  9.38241e+20
-26.8041  9.52529e+20
-26.6868  9.74197e+20
-26.5695  1.00223e+21
-26.4522  1.03511e+21
-26.3349  1.07076e+21
-26.2176  1.10681e+21
-26.1003  1.14076e+21
-25.983  1.17029e+21
-25.8657  1.19357e+21
-25.7483  1.20936e+21
-25.631  1.21736e+21
-25.5137  1.21794e+21
-25.3964  1.21281e+21
-25.2791  1.20358e+21
-25.1618  1.19285e+21
-25.0445  1.18285e+21
-24.9272  1.17587e+21
-24.8099  1.17354e+21
-24.6926  1.17739e+21
-24.5753  1.18789e+21
-24.458  1.20548e+21
-24.3407  1.22951e+21
-24.2234  1.25927e+21
-24.1061  1.29329e+21
-23.9888  1.32998e+21
-23.8715  1.3675e+21
-23.7542  1.40397e+21
-23.6369  1.43769e+21
-23.5196  1.46739e+21
-23.4023  1.49234e+21
-23.2849  1.51269e+21
-23.1676  1.52909e+21
-23.0503  1.54297e+21
-22.933  1.55617e+21
-22.8157  1.57078e+21
-22.6984  1.58895e+21
-22.5811  1.61243e+21
-22.4638  1.64255e+21
-22.3465  1.68061e+21
-22.2292  1.72677e+21
-22.1119  1.78115e+21
-21.9946  1.84318e+21
-21.8773  1.91203e+21
-21.76  1.98617e+21
-21.6427  2.06378e+21
-21.5254  2.14281e+21
-21.4081  2.2208e+21
-21.2908  2.29562e+21
-21.1735  2.36559e+21
-21.0561  2.42936e+21
-20.9388  2.48677e+21
-20.8215  2.53821e+21
-20.7042  2.58534e+21
-20.5869  2.63001e+21
-20.4696  2.67485e+21
-20.3523  2.72211e+21
-20.235  2.77411e+21
-20.1177  2.83232e+21
-20.0004  2.89815e+21
-19.8831  2.97195e+21
-19.7658  3.0542e+21
-19.6485  3.1447e+21
-19.5312  3.24319e+21
-19.4139  3.34922e+21
-19.2966  3.4621e+21
-19.1793  3.58112e+21
-19.062  3.70502e+21
-18.9447  3.83237e+21
-18.8274  3.96168e+21
-18.71  4.09142e+21
-18.5927  4.22034e+21
-18.4754  4.34751e+21
-18.3581  4.4727e+21
-18.2408  4.59652e+21
-18.1235  4.71965e+21
-18.0062  4.84379e+21
-17.8889  4.97043e+21
-17.7716  5.10107e+21
-17.6543  5.23731e+21
-17.537  5.37984e+21
-17.4197  5.52937e+21
-17.3024  5.68607e+21
-17.1851  5.85046e+21
-17.0678  6.02207e+21
-16.9505  6.20099e+21
-16.8332  6.38708e+21
-16.7159  6.57977e+21
-16.5986  6.77872e+21
-16.4813  6.98351e+21
-16.364  7.19288e+21
-16.2466  7.40632e+21
-16.1293  7.62278e+21
-16.012  7.8411e+21
-15.8947  8.06066e+21
-15.7774  8.2809e+21
-15.6601  8.50137e+21
-15.5428  8.72204e+21
-15.4255  8.94276e+21
-15.3082  9.16385e+21
-15.1909  9.38542e+21
-15.0736  9.60786e+21
-14.9563  9.83167e+21
-14.839  1.00571e+22
-14.7217  1.0285e+22
-14.6044  1.05156e+22
-14.4871  1.07499e+22
-14.3698  1.09883e+22
-14.2525  1.12312e+22
-14.1352  1.14791e+22
-14.0178  1.17322e+22
-13.9005  1.19907e+22
-13.7832  1.22539e+22
-13.6659  1.25218e+22
-13.5486  1.27942e+22
-13.4313  1.30694e+22
-13.314  1.33475e+22
-13.1967  1.36274e+22
-13.0794  1.39077e+22
-12.9621  1.4188e+22
-12.8448  1.44669e+22
-12.7275  1.47434e+22
-12.6102  1.50169e+22
-12.4929  1.52875e+22
-12.3756  1.55543e+22
-12.2583  1.58184e+22
-12.141  1.60803e+22
-12.0237  1.63407e+22
-11.9064  1.66011e+22
-11.7891  1.68632e+22
-11.6718  1.71279e+22
-11.5544  1.73973e+22
-11.4371  1.76731e+22
-11.3198  1.79561e+22
-11.2025  1.8248e+22
-11.0852  1.85494e+22
-10.9679  1.88609e+22
-10.8506  1.91823e+22
-10.7333  1.95129e+22
-10.616  1.98512e+22
-10.4987  2.01953e+22
-10.3814  2.05426e+22
-10.2641  2.08902e+22
-10.1468  2.12349e+22
-10.0295  2.15739e+22
-9.91217  2.19041e+22
-9.79487  2.22233e+22
-9.67756  2.25294e+22
-9.56026  2.28209e+22
-9.44295  2.30974e+22
-9.32565  2.33589e+22
-9.20834  2.36063e+22
-9.09104  2.38411e+22
-8.97373  2.40655e+22
-8.85643  2.42829e+22
-8.73913  2.44956e+22
-8.62182  2.47079e+22
-8.50452  2.49232e+22
-8.38721  2.51441e+22
-8.26991  2.53739e+22
-8.1526  2.56144e+22
-8.03529  2.58664e+22
-7.91799  2.61302e+22
-7.80069  2.64056e+22
-7.68338  2.66903e+22
-7.56608  2.69827e+22
-7.44877  2.72802e+22
-7.33146  2.75793e+22
-7.21416  2.78769e+22
-7.09685  2.81701e+22
-6.97955  2.84551e+22
-6.86224  2.87299e+22
-6.74494  2.89926e+22
-6.62763  2.92413e+22
-6.51033  2.94763e+22
-6.39302  2.96975e+22
-6.27572  2.99062e+22
-6.15842  3.01038e+22
-6.04111  3.02928e+22
-5.92381  3.04748e+22
-5.8065  3.06525e+22
-5.68919  3.08275e+22
-5.57189  3.1002e+22
-5.45458  3.11771e+22
-5.33728  3.13542e+22
-5.21997  3.15334e+22
-5.10267  3.17153e+22
-4.98536  3.1899e+22
-4.86806  3.20837e+22
-4.75075  3.22683e+22
-4.63345  3.24512e+22
-4.51614  3.26308e+22
-4.39884  3.28061e+22
-4.28154  3.29759e+22
-4.16423  3.31402e+22
-4.04692  3.32984e+22
-3.92962  3.34512e+22
-3.81231  3.35993e+22
-3.69501  3.37431e+22
-3.5777  3.3883e+22
-3.4604  3.40195e+22
-3.34309  3.41521e+22
-3.22579  3.42801e+22
-3.10849  3.44036e+22
-2.99118  3.45216e+22
-2.87387  3.46338e+22
-2.75657  3.47405e+22
-2.63926  3.48415e+22
-2.52196  3.49371e+22
-2.40465  3.50281e+22
-2.28735  3.51149e+22
-2.17005  3.5198e+22
-2.05274  3.52785e+22
-1.93544  3.53568e+22
-1.81813  3.54346e+22
-1.70083  3.55127e+22
-1.58352  3.55928e+22
-1.46622  3.56756e+22
-1.34891  3.57624e+22
-1.2316  3.58528e+22
-1.1143  3.59467e+22
-0.996995  3.60419e+22
-0.87969  3.61369e+22
-0.762385  3.62283e+22
-0.64508  3.63138e+22
-0.527775  3.63898e+22
-0.41047  3.64543e+22
-0.293165  3.65046e+22
-0.17586  3.65393e+22
-0.058555  3.65574e+22
0.05875  3.65585e+22
0.176055  3.65423e+22
0.29336  3.65098e+22
0.410665  3.64616e+22
0.52797  3.63997e+22
0.645275  3.63262e+22
0.76258  3.62435e+22
0.879885  3.61548e+22
0.99719  3.60631e+22
1.1145  3.59709e+22
1.2318  3.58806e+22
1.3491  3.57937e+22
1.46641  3.57106e+22
1.58371  3.56312e+22
1.70102  3.55547e+22
1.81832  3.54798e+22
1.93563  3.54055e+22
2.05294  3.53303e+22
2.17024  3.52531e+22
2.28754  3.5173e+22
2.40485  3.50894e+22
2.52216  3.50014e+22
2.63946  3.49085e+22
2.75677  3.48102e+22
2.87407  3.47065e+22
2.99137  3.45966e+22
3.10868  3.44813e+22
3.22599  3.43604e+22
3.34329  3.42349e+22
3.4606  3.4105e+22
3.5779  3.39712e+22
3.69521  3.38335e+22
3.81251  3.36922e+22
3.92982  3.35464e+22
4.04712  3.3396e+22
4.16443  3.32401e+22
4.28173  3.30783e+22
4.39903  3.29107e+22
4.51634  3.27378e+22
4.63364  3.25606e+22
4.75095  3.23802e+22
4.86825  3.21982e+22
4.98556  3.20162e+22
5.10286  3.18354e+22
5.22017  3.16563e+22
5.33748  3.14801e+22
5.45478  3.1306e+22
5.57209  3.11337e+22
5.68939  3.09621e+22
5.8067  3.07897e+22
5.924  3.06145e+22
6.0413  3.0435e+22
6.15861  3.02484e+22
6.27591  3.00526e+22
6.39322  2.98458e+22
6.51052  2.96262e+22
6.62783  2.93927e+22
6.74514  2.91451e+22
6.86244  2.8884e+22
6.97975  2.86102e+22
7.09705  2.83263e+22
7.21436  2.80347e+22
7.33166  2.77381e+22
7.44897  2.74403e+22
7.56627  2.71447e+22
7.68358  2.68537e+22
7.80088  2.65705e+22
7.91819  2.62971e+22
8.03549  2.60352e+22
8.1528  2.57851e+22
8.2701  2.55465e+22
8.38741  2.53184e+22
8.50471  2.50991e+22
8.62202  2.48855e+22
8.73932  2.46744e+22
8.85662  2.44628e+22
8.97393  2.42466e+22
9.09123  2.40228e+22
9.20854  2.37887e+22
9.32584  2.35418e+22
9.44315  2.32804e+22
9.56045  2.30041e+22
9.67776  2.27125e+22
9.79506  2.24068e+22
9.91237  2.20873e+22
10.0297  2.17573e+22
10.147  2.14186e+22
10.2643  2.1074e+22
10.3816  2.07268e+22
10.4989  2.03798e+22
10.6162  2.0036e+22
10.7335  1.96983e+22
10.8508  1.93682e+22
10.9681  1.9047e+22
11.0854  1.87361e+22
11.2027  1.84348e+22
11.32  1.8143e+22
11.4373  1.78598e+22
11.5546  1.75842e+22
11.6719  1.73144e+22
11.7893  1.70491e+22
11.9066  1.67867e+22
12.0239  1.65252e+22
12.1412  1.62638e+22
12.2585  1.60012e+22
12.3758  1.5736e+22
12.4931  1.54677e+22
12.6104  1.51961e+22
12.7277  1.49211e+22
12.845  1.46434e+22
12.9623  1.43631e+22
13.0796  1.40816e+22
13.1969  1.37998e+22
13.3142  1.35188e+22
13.4315  1.32392e+22
13.5488  1.29626e+22
13.6661  1.2689e+22
13.7834  1.24197e+22
13.9007  1.2155e+22
14.018  1.18951e+22
14.1354  1.16405e+22
14.2527  1.13909e+22
14.37  1.11464e+22
14.4873  1.09066e+22
14.6046  1.06703e+22
14.7219  1.0438e+22
14.8392  1.02083e+22
14.9565  9.98102e+21
15.0738  9.75531e+21
15.1911  9.53086e+21
15.3084  9.30707e+21
15.4257  9.084e+21
15.543  8.86112e+21
15.6603  8.63808e+21
15.7776  8.41538e+21
15.8949  8.19272e+21
16.0122  7.9707e+21
16.1295  7.74981e+21
16.2468  7.53107e+21
16.3641  7.31516e+21
16.4815  7.10318e+21
16.5988  6.89616e+21
16.7161  6.69459e+21
16.8334  6.4995e+21
16.9507  6.3112e+21
17.068  6.13002e+21
17.1853  5.95603e+21
17.3026  5.78956e+21
17.4199  5.63056e+21
17.5372  5.47896e+21
17.6545  5.33426e+21
17.7718  5.1961e+21
17.8891  5.06331e+21
18.0064  4.93455e+21
18.1237  4.80822e+21
18.241  4.68289e+21
18.3583  4.55684e+21
18.4756  4.42931e+21
18.5929  4.29985e+21
18.7102  4.16869e+21
18.8275  4.03663e+21
18.9449  3.90513e+21
19.0622  3.77561e+21
19.1795  3.64981e+21
19.2968  3.52865e+21
19.4141  3.4138e+21
19.5314  3.30594e+21
19.6487  3.20572e+21
19.766  3.11348e+21
19.8833  3.02961e+21
20.0006  2.95407e+21
20.1179  2.88669e+21
20.2352  2.82686e+21
20.3525  2.77323e+21
20.4698  2.72434e+21
20.5871  2.67782e+21
20.7044  2.63141e+21
20.8217  2.58246e+21
20.939  2.52908e+21
21.0563  2.4698e+21
21.1736  2.40407e+21
21.291  2.33237e+21
21.4083  2.25561e+21
21.5256  2.17603e+21
21.6429  2.09549e+21
21.7602  2.0165e+21
21.8775  1.94102e+21
21.9948  1.8711e+21
22.1121  1.80785e+21
22.2294  1.75249e+21
22.3467  1.70533e+21
22.464  1.66656e+21
22.5813  1.63546e+21
22.6986  1.6112e+21
22.8159  1.59217e+21
22.9332  1.57662e+21
23.0505  1.56242e+21
23.1678  1.54756e+21
23.2851  1.53014e+21
23.4024  1.50875e+21
23.5198  1.48268e+21
23.6371  1.45201e+21
23.7544  1.41733e+21
23.8717  1.38007e+21
23.989  1.34168e+21
24.1063  1.30431e+21
24.2236  1.2697e+21
24.3409  1.23954e+21
24.4582  1.21513e+21
24.5755  1.19733e+21
24.6928  1.18653e+21
24.8101  1.1825e+21
24.9274  1.18461e+21
25.0447  1.19141e+21
25.162  1.20114e+21
25.2793  1.21162e+21
25.3966  1.22049e+21
25.5139  1.22527e+21
25.6312  1.22406e+21
25.7485  1.2156e+21
25.8658  1.19922e+21
25.9832  1.17547e+21
26.1005  1.14541e+21
26.2178  1.11113e+21
26.3351  1.07475e+21
26.4524  1.03899e+21
26.5697  1.00602e+21
26.687  9.78085e+20
26.8043  9.56437e+20
26.9216  9.42264e+20
27.0389  9.36004e+20
27.1562  9.37573e+20
27.2735  9.46094e+20
27.3908  9.60601e+20
27.5081  9.79288e+20
27.6254  1.00019e+21
27.7427  1.02107e+21
27.86  1.03958e+21
27.9773  1.05356e+21
28.0946  1.06106e+21
28.212  1.06087e+21
28.3293  1.05258e+21
28.4466  1.03632e+21
28.5639  1.01316e+21
28.6812  9.84506e+20
28.7985  9.52516e+20
28.9158  9.19263e+20
29.0331  8.86889e+20
29.1504  8.57189e+20
29.2677  8.31689e+20
29.385  8.1135e+20
29.5023  7.96679e+20
29.6196  7.87731e+20
29.7369  7.84023e+20
29.8542  7.84708e+20
29.9715  7.88708e+20
30.0888  7.94678e+20
30.2061  8.01098e+20
30.3234  8.06651e+20
30.4407  8.10167e+20
30.558  8.10706e+20
30.6754  8.07813e+20
30.7927  8.01297e+20
30.91  7.91427e+20
31.0273  7.78668e+20
31.1446  7.63997e+20
31.2619  7.48135e+20
31.3792  7.32228e+20
31.4965  7.1707e+20
31.6138  7.03508e+20
31.7311  6.92215e+20
31.8484  6.83582e+20
31.9657  6.77597e+20
32.083  6.74133e+20
32.2003  6.72743e+20
32.3176  6.72734e+20
32.4349  6.73359e+20
32.5522  6.73896e+20
32.6695  6.73645e+20
32.7868  6.72059e+20
32.9042  6.68917e+20
33.0215  6.64345e+20
33.1388  6.5855e+20
33.2561  6.52007e+20
33.3734  6.45125e+20
33.4907  6.38452e+20
33.608  6.32384e+20
33.7253  6.27189e+20
33.8426  6.22914e+20
33.9599  6.19595e+20
34.0772  6.17032e+20
34.1945  6.15047e+20
34.3118  6.13335e+20
34.4291  6.11513e+20
34.5464  6.09129e+20
34.6637  6.05789e+20
34.781  6.01063e+20
34.8983  5.94506e+20
35.0156  5.85859e+20
35.1329  5.74985e+20
35.2503  5.61962e+20
35.3676  5.47064e+20
35.4849  5.30696e+20
35.6022  5.13423e+20
35.7195  4.95822e+20
35.8368  4.78645e+20
35.9541  4.62254e+20
36.0714  4.47264e+20
36.1887  4.34114e+20
36.306  4.23139e+20
36.4233  4.14719e+20
36.5406  4.09098e+20
36.6579  4.06409e+20
36.7752  4.06657e+20
36.8925  4.09719e+20
37.0098  4.15269e+20
37.1271  4.22796e+20
37.2444  4.31788e+20
37.3617  4.41564e+20
37.479  4.51457e+20
37.5964  4.60987e+20
37.7137  4.69718e+20
37.831  4.77338e+20
37.9483  4.83526e+20
38.0656  4.87991e+20
38.1829  4.90454e+20
38.3002  4.90656e+20
38.4175  4.88212e+20
38.5348  4.8284e+20
38.6521  4.74527e+20
38.7694  4.63382e+20
38.8867  4.49912e+20
39.004  4.34754e+20
39.1213  4.18841e+20
39.2386  4.0301e+20
39.3559  3.88199e+20
39.4732  3.75165e+20
39.5905  3.64311e+20
39.7078  3.55907e+20
39.8251  3.49974e+20
39.9425  3.46419e+20
40.0598  3.45114e+20
40.1771  3.45922e+20
40.2944  3.48711e+20
40.4117  3.53318e+20
40.529  3.59596e+20
40.6463  3.67057e+20
40.7636  3.75217e+20
40.8809  3.83466e+20
40.9982  3.91053e+20
41.1155  3.9733e+20
41.2328  4.01789e+20
41.3501  4.04191e+20
41.4674  4.04516e+20
41.5847  4.02966e+20
41.702  4.00018e+20
41.8193  3.96114e+20
41.9366  3.91721e+20
42.0539  3.87208e+20
42.1712  3.82746e+20
42.2885  3.78507e+20
42.4059  3.74628e+20
42.5232  3.71177e+20
42.6405  3.683e+20
42.7578  3.66052e+20
42.8751  3.64618e+20
42.9924  3.6404e+20
43.1097  3.64045e+20
43.227  3.64277e+20
43.3443  3.64218e+20
43.4616  3.63251e+20
43.5789  3.60886e+20
43.6962  3.56653e+20
43.8135  3.50572e+20
43.9308  3.42715e+20
44.0481  3.33681e+20
44.1654  3.2424e+20
44.2827  3.15075e+20
44.4  3.06862e+20
44.5173  3.00073e+20
44.6347  2.94917e+20
44.752  2.91297e+20
44.8693  2.88968e+20
44.9866  2.8756e+20
45.1039  2.86669e+20
45.2212  2.8592e+20
45.3385  2.84998e+20
45.4558  2.83706e+20
45.5731  2.81927e+20
45.6904  2.79572e+20
45.8077  2.76637e+20
45.925  2.73184e+20
46.0423  2.69344e+20
46.1596  2.65339e+20
46.2769  2.61418e+20
46.3942  2.5796e+20
46.5115  2.55324e+20
46.6288  2.53803e+20
46.7461  2.53623e+20
46.8634  2.54796e+20
46.9808  2.57199e+20
47.0981  2.60676e+20
47.2154  2.64784e+20
47.3327  2.69234e+20
47.45  2.73476e+20
47.5673  2.77265e+20
47.6846  2.80236e+20
47.8019  2.82039e+20
47.9192  2.82386e+20
48.0365  2.8104e+20
48.1538  2.77862e+20
48.2711  2.72855e+20
48.3884  2.66065e+20
48.5057  2.57955e+20
48.623  2.48913e+20
48.7403  2.39712e+20
48.8576  2.31117e+20
48.9749  2.23781e+20
49.0922  2.18258e+20
49.2095  2.14915e+20
49.3269  2.13864e+20
49.4442  2.14935e+20
49.5615  2.17815e+20
49.6788  2.22119e+20
49.7961  2.27402e+20
49.9134  2.33164e+20
50.0307  2.39032e+20
50.148  2.44626e+20
50.2653  2.495e+20
50.3826  2.53317e+20
50.4999  2.55657e+20
50.6172  2.5621e+20
50.7345  2.54746e+20
