#S 1 spectral density
#N 2
#UFWHM 7.62483
#L  abscissas [um]  spectral density
-58.5938  1.17867e+20
-58.4764  1.09413e+20
-58.3591  1.01214e+20
-58.2418  9.37877e+19
-58.1245  8.74912e+19
-58.0072  8.24979e+19
-57.8899  7.88533e+19
-57.7726  7.63563e+19
-57.6553  7.48206e+19
-57.538  7.39659e+19
-57.4207  7.35358e+19
-57.3034  7.32791e+19
-57.1861  7.30384e+19
-57.0688  7.27483e+19
-56.9515  7.24691e+19
-56.8342  7.23047e+19
-56.7169  7.25891e+19
-56.5996  7.37308e+19
-56.4823  7.61522e+19
-56.365  8.02612e+19
-56.2477  8.63214e+19
-56.1303  9.43053e+19
-56.013  1.0395e+20
-55.8957  1.14614e+20
-55.7784  1.25431e+20
-55.6611  1.35335e+20
-55.5438  1.43331e+20
-55.4265  1.48586e+20
-55.3092  1.50615e+20
-55.1919  1.4929e+20
-55.0746  1.44907e+20
-54.9573  1.38164e+20
-54.84  1.3001e+20
-54.7227  1.21409e+20
-54.6054  1.1342e+20
-54.4881  1.06821e+20
-54.3708  1.02232e+20
-54.2535  9.99381e+19
-54.1362  1.00082e+20
-54.0189  1.02553e+20
-53.9016  1.07203e+20
-53.7842  1.13722e+20
-53.6669  1.21959e+20
-53.5496  1.31527e+20
-53.4323  1.423e+20
-53.315  1.53961e+20
-53.1977  1.66376e+20
-53.0804  1.79161e+20
-52.9631  1.91953e+20
-52.8458  2.04298e+20
-52.7285  2.15801e+20
-52.6112  2.25953e+20
-52.4939  2.34324e+20
-52.3766  2.40634e+20
-52.2593  2.44903e+20
-52.142  2.47229e+20
-52.0247  2.48213e+20
-51.9074  2.48447e+20
-51.7901  2.4894e+20
-51.6728  2.5061e+20
-51.5555  2.54242e+20
-51.4381  2.60415e+20
-51.3208  2.69378e+20
-51.2035  2.80771e+20
-51.0862  2.93876e+20
-50.9689  3.07629e+20
-50.8516  3.20838e+20
-50.7343  3.321e+20
-50.617  3.40267e+20
-50.4997  3.44596e+20
-50.3824  3.44559e+20
-50.2651  3.40312e+20
-50.1478  3.32328e+20
-50.0305  3.2162e+20
-49.9132  3.0906e+20
-49.7959  2.95913e+20
-49.6786  2.83213e+20
-49.5613  2.71809e+20
-49.444  2.62128e+20
-49.3267  2.54291e+20
-49.2094  2.48054e+20
-49.092  2.42833e+20
-48.9747  2.37907e+20
-48.8574  2.32647e+20
-48.7401  2.26327e+20
-48.6228  2.18725e+20
-48.5055  2.09972e+20
-48.3882  2.00378e+20
-48.2709  1.90814e+20
-48.1536  1.82174e+20
-48.0363  1.75437e+20
-47.919  1.71522e+20
-47.8017  1.70962e+20
-47.6844  1.74145e+20
-47.5671  1.80849e+20
-47.4498  1.90696e+20
-47.3325  2.02957e+20
-47.2152  2.1686e+20
-47.0979  2.31367e+20
-46.9806  2.45676e+20
-46.8633  2.58869e+20
-46.7459  2.70351e+20
-46.6286  2.79466e+20
-46.5113  2.85842e+20
-46.394  2.89282e+20
-46.2767  2.89808e+20
-46.1594  2.87639e+20
-46.0421  2.83135e+20
-45.9248  2.76785e+20
-45.8075  2.68967e+20
-45.6902  2.60114e+20
-45.5729  2.50428e+20
-45.4556  2.40093e+20
-45.3383  2.2893e+20
-45.221  2.17068e+20
-45.1037  2.04375e+20
-44.9864  1.91175e+20
-44.8691  1.77903e+20
-44.7518  1.65459e+20
-44.6345  1.54717e+20
-44.5172  1.4662e+20
-44.3998  1.41983e+20
-44.2825  1.41326e+20
-44.1652  1.44632e+20
-44.0479  1.5133e+20
-43.9306  1.60598e+20
-43.8133  1.71225e+20
-43.696  1.81916e+20
-43.5787  1.91684e+20
-43.4614  1.99691e+20
-43.3441  2.05675e+20
-43.2268  2.09517e+20
-43.1095  2.11427e+20
-42.9922  2.1184e+20
-42.8749  2.11072e+20
-42.7576  2.09457e+20
-42.6403  2.07143e+20
-42.523  2.04177e+20
-42.4057  2.00565e+20
-42.2884  1.96447e+20
-42.171  1.91891e+20
-42.0537  1.87101e+20
-41.9364  1.82387e+20
-41.8191  1.78037e+20
-41.7018  1.74259e+20
-41.5845  1.71177e+20
-41.4672  1.68786e+20
-41.3499  1.6704e+20
-41.2326  1.6584e+20
-41.1153  1.65161e+20
-40.998  1.65087e+20
-40.8807  1.65782e+20
-40.7634  1.67532e+20
-40.6461  1.7067e+20
-40.5288  1.75397e+20
-40.4115  1.81893e+20
-40.2942  1.90119e+20
-40.1769  1.99835e+20
-40.0596  2.10519e+20
-39.9423  2.21666e+20
-39.825  2.32697e+20
-39.7076  2.42982e+20
-39.5903  2.5212e+20
-39.473  2.59787e+20
-39.3557  2.65724e+20
-39.2384  2.70145e+20
-39.1211  2.73249e+20
-39.0038  2.75396e+20
-38.8865  2.7706e+20
-38.7692  2.78728e+20
-38.6519  2.80911e+20
-38.5346  2.83957e+20
-38.4173  2.87957e+20
-38.3  2.928e+20
-38.1827  2.98122e+20
-38.0654  3.03345e+20
-37.9481  3.07741e+20
-37.8308  3.10514e+20
-37.7135  3.11132e+20
-37.5962  3.09058e+20
-37.4789  3.04336e+20
-37.3615  2.97284e+20
-37.2442  2.88484e+20
-37.1269  2.78895e+20
-37.0096  2.69341e+20
-36.8923  2.60854e+20
-36.775  2.54015e+20
-36.6577  2.49199e+20
-36.5404  2.46631e+20
-36.4231  2.45969e+20
-36.3058  2.46866e+20
-36.1885  2.48741e+20
-36.0712  2.50986e+20
-35.9539  2.53121e+20
-35.8366  2.54781e+20
-35.7193  2.5571e+20
-35.602  2.55923e+20
-35.4847  2.55646e+20
-35.3674  2.55191e+20
-35.2501  2.54998e+20
-35.1328  2.55584e+20
-35.0154  2.57428e+20
-34.8981  2.60811e+20
-34.7808  2.65909e+20
-34.6635  2.72582e+20
-34.5462  2.80304e+20
-34.4289  2.88481e+20
-34.3116  2.96163e+20
-34.1943  3.02528e+20
-34.077  3.06716e+20
-33.9597  3.08147e+20
-33.8424  3.06398e+20
-33.7251  3.01464e+20
-33.6078  2.93663e+20
-33.4905  2.8328e+20
-33.3732  2.71e+20
-33.2559  2.57369e+20
-33.1386  2.42791e+20
-33.0213  2.27659e+20
-32.904  2.12314e+20
-32.7867  1.96955e+20
-32.6693  1.81961e+20
-32.552  1.67607e+20
-32.4347  1.54523e+20
-32.3174  1.43406e+20
-32.2001  1.34976e+20
-32.0828  1.30117e+20
-31.9655  1.29658e+20
-31.8482  1.34323e+20
-31.7309  1.44516e+20
-31.6136  1.60529e+20
-31.4963  1.82117e+20
-31.379  2.08959e+20
-31.2617  2.40103e+20
-31.1444  2.74538e+20
-31.0271  3.10916e+20
-30.9098  3.47919e+20
-30.7925  3.84077e+20
-30.6752  4.18086e+20
-30.5579  4.48887e+20
-30.4406  4.75717e+20
-30.3232  4.98023e+20
-30.2059  5.15797e+20
-30.0886  5.28947e+20
-29.9713  5.37733e+20
-29.854  5.42568e+20
-29.7367  5.43756e+20
-29.6194  5.41632e+20
-29.5021  5.36507e+20
-29.3848  5.28777e+20
-29.2675  5.1867e+20
-29.1502  5.0655e+20
-29.0329  4.92786e+20
-28.9156  4.7777e+20
-28.7983  4.61751e+20
-28.681  4.45302e+20
-28.5637  4.28726e+20
-28.4464  4.12346e+20
-28.3291  3.96675e+20
-28.2118  3.81965e+20
-28.0944  3.68759e+20
-27.9771  3.57436e+20
-27.8598  3.48374e+20
-27.7425  3.41752e+20
-27.6252  3.37524e+20
-27.5079  3.35512e+20
-27.3906  3.35221e+20
-27.2733  3.36179e+20
-27.156  3.37819e+20
-27.0387  3.39738e+20
-26.9214  3.41901e+20
-26.8041  3.44531e+20
-26.6868  3.48213e+20
-26.5695  3.53799e+20
-26.4522  3.62322e+20
-26.3349  3.74626e+20
-26.2176  3.91363e+20
-26.1003  4.12953e+20
-25.983  4.39106e+20
-25.8657  4.69164e+20
-25.7483  5.02291e+20
-25.631  5.37153e+20
-25.5137  5.72477e+20
-25.3964  6.07024e+20
-25.2791  6.39716e+20
-25.1618  6.69743e+20
-25.0445  6.96587e+20
-24.9272  7.20167e+20
-24.8099  7.4069e+20
-24.6926  7.58647e+20
-24.5753  7.74514e+20
-24.458  7.88927e+20
-24.3407  8.0245e+20
-24.2234  8.15014e+20
-24.1061  8.266e+20
-23.9888  8.36588e+20
-23.8715  8.44086e+20
-23.7542  8.47793e+20
-23.6369  8.47006e+20
-23.5196  8.40672e+20
-23.4023  8.28448e+20
-23.2849  8.10641e+20
-23.1676  7.88063e+20
-23.0503  7.61904e+20
-22.933  7.33945e+20
-22.8157  7.05866e+20
-22.6984  6.79309e+20
-22.5811  6.55658e+20
-22.4638  6.35907e+20
-22.3465  6.20658e+20
-22.2292  6.10233e+20
-22.1119  6.04603e+20
-21.9946  6.03603e+20
-21.8773  6.06905e+20
-21.76  6.14178e+20
-21.6427  6.24679e+20
-21.5254  6.37959e+20
-21.4081  6.53237e+20
-21.2908  6.701e+20
-21.1735  6.88014e+20
-21.0561  7.06756e+20
-20.9388  7.26389e+20
-20.8215  7.47218e+20
-20.7042  7.69345e+20
-20.5869  7.92711e+20
-20.4696  8.17221e+20
-20.3523  8.4185e+20
-20.235  8.65301e+20
-20.1177  8.85752e+20
-20.0004  9.01312e+20
-19.8831  9.10343e+20
-19.7658  9.11578e+20
-19.6485  9.04526e+20
-19.5312  8.89781e+20
-19.4139  8.68497e+20
-19.2966  8.42657e+20
-19.1793  8.14409e+20
-19.062  7.8553e+20
-18.9447  7.57679e+20
-18.8274  7.31567e+20
-18.71  7.07362e+20
-18.5927  6.84745e+20
-18.4754  6.62588e+20
-18.3581  6.40469e+20
-18.2408  6.17431e+20
-18.1235  5.935e+20
-18.0062  5.68641e+20
-17.8889  5.43674e+20
-17.7716  5.1952e+20
-17.6543  4.96923e+20
-17.537  4.77032e+20
-17.4197  4.60486e+20
-17.3024  4.47967e+20
-17.1851  4.39847e+20
-17.0678  4.36427e+20
-16.9505  4.37929e+20
-16.8332  4.44622e+20
-16.7159  4.56594e+20
-16.5986  4.74029e+20
-16.4813  4.96966e+20
-16.364  5.25384e+20
-16.2466  5.59102e+20
-16.1293  5.97965e+20
-16.012  6.41357e+20
-15.8947  6.88763e+20
-15.7774  7.39462e+20
-15.6601  7.92581e+20
-15.5428  8.47376e+20
-15.4255  9.03029e+20
-15.3082  9.58725e+20
-15.1909  1.01402e+21
-15.0736  1.06842e+21
-14.9563  1.12203e+21
-14.839  1.17474e+21
-14.7217  1.22748e+21
-14.6044  1.28095e+21
-14.4871  1.33608e+21
-14.3698  1.39416e+21
-14.2525  1.45676e+21
-14.1352  1.52507e+21
-14.0178  1.60033e+21
-13.9005  1.68365e+21
-13.7832  1.7757e+21
-13.6659  1.87718e+21
-13.5486  1.98786e+21
-13.4313  2.10773e+21
-13.314  2.23609e+21
-13.1967  2.37201e+21
-13.0794  2.51416e+21
-12.9621  2.66157e+21
-12.8448  2.81279e+21
-12.7275  2.96767e+21
-12.6102  3.12513e+21
-12.4929  3.28536e+21
-12.3756  3.44924e+21
-12.2583  3.61687e+21
-12.141  3.78976e+21
-12.0237  3.9683e+21
-11.9064  4.15372e+21
-11.7891  4.34556e+21
-11.6718  4.544e+21
-11.5544  4.74791e+21
-11.4371  4.95571e+21
-11.3198  5.16553e+21
-11.2025  5.37504e+21
-11.0852  5.58201e+21
-10.9679  5.78346e+21
-10.8506  5.97737e+21
-10.7333  6.16196e+21
-10.616  6.3355e+21
-10.4987  6.49686e+21
-10.3814  6.64593e+21
-10.2641  6.7832e+21
-10.1468  6.90995e+21
-10.0295  7.02832e+21
-9.91217  7.14076e+21
-9.79487  7.25022e+21
-9.67756  7.35972e+21
-9.56026  7.47258e+21
-9.44295  7.591e+21
-9.32565  7.71732e+21
-9.20834  7.85294e+21
-9.09104  7.99872e+21
-8.97373  8.15501e+21
-8.85643  8.32149e+21
-8.73913  8.49883e+21
-8.62182  8.6862e+21
-8.50452  8.88388e+21
-8.38721  9.09203e+21
-8.26991  9.31062e+21
-8.1526  9.54053e+21
-8.03529  9.78152e+21
-7.91799  1.00339e+22
-7.80069  1.02968e+22
-7.68338  1.05694e+22
-7.56608  1.08502e+22
-7.44877  1.11371e+22
-7.33146  1.14276e+22
-7.21416  1.17194e+22
-7.09685  1.20104e+22
-6.97955  1.22991e+22
-6.86224  1.25846e+22
-6.74494  1.28676e+22
-6.62763  1.315e+22
-6.51033  1.34348e+22
-6.39302  1.37264e+22
-6.27572  1.40308e+22
-6.15842  1.4354e+22
-6.04111  1.47027e+22
-5.92381  1.50836e+22
-5.8065  1.55032e+22
-5.68919  1.59666e+22
-5.57189  1.64789e+22
-5.45458  1.70439e+22
-5.33728  1.76627e+22
-5.21997  1.83366e+22
-5.10267  1.9064e+22
-4.98536  1.98427e+22
-4.86806  2.06682e+22
-4.75075  2.15358e+22
-4.63345  2.24398e+22
-4.51614  2.33742e+22
-4.39884  2.43335e+22
-4.28154  2.53137e+22
-4.16423  2.6312e+22
-4.04692  2.7326e+22
-3.92962  2.83564e+22
-3.81231  2.94042e+22
-3.69501  3.04714e+22
-3.5777  3.15612e+22
-3.4604  3.26754e+22
-3.34309  3.38164e+22
-3.22579  3.49837e+22
-3.10849  3.61776e+22
-2.99118  3.73941e+22
-2.87387  3.86292e+22
-2.75657  3.98768e+22
-2.63926  4.11285e+22
-2.52196  4.23752e+22
-2.40465  4.36074e+22
-2.28735  4.48155e+22
-2.17005  4.59903e+22
-2.05274  4.7124e+22
-1.93544  4.82101e+22
-1.81813  4.92455e+22
-1.70083  5.02285e+22
-1.58352  5.11596e+22
-1.46622  5.20407e+22
-1.34891  5.28733e+22
-1.2316  5.36613e+22
-1.1143  5.4404e+22
-0.996995  5.51019e+22
-0.87969  5.57514e+22
-0.762385  5.63467e+22
-0.64508  5.68822e+22
-0.527775  5.7348e+22
-0.41047  5.77358e+22
-0.293165  5.80368e+22
-0.17586  5.82439e+22
-0.058555  5.83513e+22
0.05875  5.8357e+22
0.176055  5.826e+22
0.29336  5.80649e+22
0.410665  5.77749e+22
0.52797  5.73988e+22
0.645275  5.69448e+22
0.76258  5.64221e+22
0.879885  5.58382e+22
0.99719  5.5201e+22
1.1145  5.45152e+22
1.2318  5.37839e+22
1.3491  5.30062e+22
1.46641  5.21831e+22
1.58371  5.13107e+22
1.70102  5.03869e+22
1.81832  4.94103e+22
1.93563  4.83801e+22
2.05294  4.72981e+22
2.17024  4.61681e+22
2.28754  4.49964e+22
2.40485  4.37902e+22
2.52216  4.25594e+22
2.63946  4.13138e+22
2.75677  4.00631e+22
2.87407  3.88161e+22
2.99137  3.75812e+22
3.10868  3.63645e+22
3.22599  3.51702e+22
3.34329  3.40021e+22
3.4606  3.28596e+22
3.5779  3.17434e+22
3.69521  3.06516e+22
3.81251  2.95806e+22
3.92982  2.85292e+22
4.04712  2.74945e+22
4.16443  2.64753e+22
4.28173  2.5472e+22
4.39903  2.44855e+22
4.51634  2.35199e+22
4.63364  2.25793e+22
4.75095  2.16693e+22
4.86825  2.07956e+22
4.98556  1.99641e+22
5.10286  1.91802e+22
5.22017  1.84472e+22
5.33748  1.77686e+22
5.45478  1.7145e+22
5.57209  1.65761e+22
5.68939  1.60599e+22
5.8067  1.55925e+22
5.924  1.51693e+22
6.0413  1.47855e+22
6.15861  1.44338e+22
6.27591  1.41075e+22
6.39322  1.38005e+22
6.51052  1.35058e+22
6.62783  1.32181e+22
6.74514  1.29328e+22
6.86244  1.26471e+22
6.97975  1.23586e+22
7.09705  1.20676e+22
7.21436  1.17744e+22
7.33166  1.14802e+22
7.44897  1.11877e+22
7.56627  1.08993e+22
7.68358  1.06169e+22
7.80088  1.03428e+22
7.91819  1.00786e+22
8.03549  9.82505e+21
8.1528  9.58314e+21
8.2701  9.35217e+21
8.38741  9.13244e+21
8.50471  8.92361e+21
8.62202  8.72566e+21
8.73932  8.53774e+21
8.85662  8.36012e+21
8.97393  8.19315e+21
9.09123  8.03752e+21
9.20854  7.89187e+21
9.32584  7.75651e+21
9.44315  7.63046e+21
9.56045  7.51243e+21
9.67776  7.39977e+21
9.79506  7.29014e+21
9.91237  7.18089e+21
10.0297  7.06831e+21
10.147  6.94941e+21
10.2643  6.82183e+21
10.3816  6.68367e+21
10.4989  6.53339e+21
10.6162  6.37102e+21
10.7335  6.19631e+21
10.8508  6.01044e+21
10.9681  5.81516e+21
11.0854  5.61228e+21
11.2027  5.40436e+21
11.32  5.19348e+21
11.4373  4.9826e+21
11.5546  4.77369e+21
11.6719  4.56904e+21
11.7893  4.36957e+21
11.9066  4.17645e+21
12.0239  3.99031e+21
12.1412  3.81045e+21
12.2585  3.63626e+21
12.3758  3.46706e+21
12.4931  3.3018e+21
12.6104  3.13985e+21
12.7277  2.9807e+21
12.845  2.82427e+21
12.9623  2.67144e+21
13.0796  2.52256e+21
13.1969  2.37909e+21
13.3142  2.24216e+21
13.4315  2.11289e+21
13.5488  1.99229e+21
13.6661  1.88096e+21
13.7834  1.77918e+21
13.9007  1.68672e+21
14.018  1.60328e+21
14.1354  1.5279e+21
14.2527  1.45952e+21
14.37  1.39676e+21
14.4873  1.33862e+21
14.6046  1.2834e+21
14.7219  1.22999e+21
14.8392  1.17715e+21
14.9565  1.12433e+21
15.0738  1.07071e+21
15.1911  1.0162e+21
15.3084  9.60842e+20
15.4257  9.05196e+20
15.543  8.49518e+20
15.6603  7.94713e+20
15.7776  7.41537e+20
15.8949  6.90908e+20
16.0122  6.43432e+20
16.1295  5.99998e+20
16.2468  5.61158e+20
16.3641  5.27394e+20
16.4815  4.98986e+20
16.5988  4.76044e+20
16.7161  4.5863e+20
16.8334  4.4666e+20
16.9507  4.40037e+20
17.068  4.38526e+20
17.1853  4.41921e+20
17.3026  4.50014e+20
17.4199  4.62527e+20
17.5372  4.79124e+20
17.6545  4.98904e+20
17.7718  5.21384e+20
17.8891  5.45591e+20
18.0064  5.70408e+20
18.1237  5.94948e+20
18.241  6.18895e+20
18.3583  6.41812e+20
18.4756  6.63947e+20
18.5929  6.86044e+20
18.7102  7.08976e+20
18.8275  7.33266e+20
18.9449  7.5962e+20
19.0622  7.87675e+20
19.1795  8.16657e+20
19.2968  8.4515e+20
19.4141  8.70977e+20
19.5314  8.92094e+20
19.6487  9.068e+20
19.766  9.13643e+20
19.8833  9.12263e+20
20.0006  9.03155e+20
20.1179  8.87341e+20
20.2352  8.66751e+20
20.3525  8.43276e+20
20.4698  8.18763e+20
20.5871  7.94355e+20
20.7044  7.70933e+20
20.8217  7.4899e+20
20.939  7.28263e+20
21.0563  7.08667e+20
21.1736  6.89994e+20
21.291  6.72198e+20
21.4083  6.55491e+20
21.5256  6.40348e+20
21.6429  6.2728e+20
21.7602  6.1693e+20
21.8775  6.09981e+20
21.9948  6.06906e+20
22.1121  6.08104e+20
22.2294  6.14007e+20
22.3467  6.24775e+20
22.464  6.40276e+20
22.5813  6.60325e+20
22.6986  6.84213e+20
22.8159  7.10866e+20
22.9332  7.39025e+20
23.0505  7.66997e+20
23.1678  7.93038e+20
23.2851  8.15477e+20
23.4024  8.33121e+20
23.5198  8.44996e+20
23.6371  8.51115e+20
23.7544  8.5167e+20
23.8717  8.47617e+20
23.989  8.39917e+20
24.1063  8.29843e+20
24.2236  8.17906e+20
24.3409  8.05082e+20
24.4582  7.91516e+20
24.5755  7.76675e+20
24.6928  7.60552e+20
24.8101  7.42269e+20
24.9274  7.21378e+20
25.0447  6.97332e+20
25.162  6.70029e+20
25.2793  6.39641e+20
25.3966  6.06586e+20
25.5139  5.71779e+20
25.6312  5.36219e+20
25.7485  5.01231e+20
25.8658  4.6818e+20
25.9832  4.38107e+20
26.1005  4.12203e+20
26.2178  3.90905e+20
26.3351  3.74425e+20
26.4524  3.62411e+20
26.5697  3.54217e+20
26.687  3.48862e+20
26.8043  3.45432e+20
26.9216  3.42991e+20
27.0389  3.41028e+20
27.1562  3.39171e+20
27.2735  3.37639e+20
27.3908  3.36811e+20
27.5081  3.37132e+20
27.6254  3.3918e+20
27.7427  3.43526e+20
27.86  3.50123e+20
27.9773  3.59203e+20
28.0946  3.70493e+20
28.212  3.83619e+20
28.3293  3.98221e+20
28.4466  4.13844e+20
28.5639  4.30075e+20
28.6812  4.46536e+20
28.7985  4.62857e+20
28.9158  4.78599e+20
29.0331  4.93407e+20
29.1504  5.06991e+20
29.2677  5.18832e+20
29.385  5.28741e+20
29.5023  5.36234e+20
29.6196  5.41086e+20
29.7369  5.42983e+20
29.8542  5.41639e+20
29.9715  5.36616e+20
30.0888  5.27598e+20
30.2061  5.14301e+20
30.3234  4.96368e+20
30.4407  4.73813e+20
30.558  4.46823e+20
30.6754  4.15859e+20
30.7927  3.81734e+20
30.91  3.45571e+20
31.0273  3.08583e+20
31.1446  2.72191e+20
31.2619  2.37913e+20
31.3792  2.06914e+20
31.4965  1.80343e+20
31.6138  1.5903e+20
31.7311  1.43347e+20
31.8484  1.3342e+20
31.9657  1.29132e+20
32.083  1.29828e+20
32.2003  1.34942e+20
32.3176  1.43594e+20
32.4349  1.54937e+20
32.5522  1.68146e+20
32.6695  1.82577e+20
32.7868  1.97696e+20
32.9042  2.1307e+20
33.0215  2.28427e+20
33.1388  2.43529e+20
33.2561  2.58059e+20
33.3734  2.71691e+20
33.4907  2.83799e+20
33.608  2.93977e+20
33.7253  3.01736e+20
33.8426  3.06471e+20
33.9599  3.0802e+20
34.0772  3.06483e+20
34.1945  3.0213e+20
34.3118  2.95708e+20
34.4291  2.8793e+20
34.5464  2.79827e+20
34.6637  2.72099e+20
34.781  2.65604e+20
34.8983  2.60626e+20
35.0156  2.57277e+20
35.1329  2.55579e+20
35.2503  2.55085e+20
35.3676  2.55336e+20
35.4849  2.55877e+20
35.6022  2.56226e+20
35.7195  2.56024e+20
35.8368  2.55101e+20
35.9541  2.53487e+20
36.0714  2.514e+20
36.1887  2.49218e+20
36.306  2.47456e+20
36.4233  2.46668e+20
36.5406  2.47424e+20
36.6579  2.50208e+20
36.7752  2.55091e+20
36.8925  2.62033e+20
37.0098  2.70605e+20
37.1271  2.80152e+20
37.2444  2.89693e+20
37.3617  2.98383e+20
37.479  3.0532e+20
37.5964  3.09821e+20
37.7137  3.11716e+20
37.831  3.10944e+20
37.9483  3.08067e+20
38.0656  3.03574e+20
38.1829  2.98322e+20
38.3002  2.9297e+20
38.4175  2.88182e+20
38.5348  2.84273e+20
38.6521  2.81329e+20
38.7694  2.79212e+20
38.8867  2.77601e+20
39.004  2.7603e+20
39.1213  2.73905e+20
39.2386  2.70773e+20
39.3559  2.66329e+20
39.4732  2.6025e+20
39.5905  2.52575e+20
39.7078  2.43372e+20
39.8251  2.33006e+20
39.9425  2.21939e+20
40.0598  2.10703e+20
40.1771  1.99994e+20
40.2944  1.90336e+20
40.4117  1.821e+20
40.529  1.75579e+20
40.6463  1.70855e+20
40.7636  1.67761e+20
40.8809  1.65963e+20
40.9982  1.6524e+20
41.1155  1.65304e+20
41.2328  1.65981e+20
41.3501  1.6724e+20
41.4674  1.68999e+20
41.5847  1.71448e+20
41.702  1.74624e+20
41.8193  1.78482e+20
41.9366  1.82885e+20
42.0539  1.87614e+20
42.1712  1.92414e+20
42.2885  1.97013e+20
42.4059  2.01077e+20
42.5232  2.04575e+20
42.6405  2.07487e+20
42.7578  2.09674e+20
42.8751  2.11181e+20
42.9924  2.11827e+20
43.1097  2.1122e+20
43.227  2.09155e+20
43.3443  2.05163e+20
43.4616  1.99043e+20
43.5789  1.90857e+20
43.6962  1.80998e+20
43.8135  1.70232e+20
43.9308  1.5968e+20
44.0481  1.50504e+20
44.1654  1.43929e+20
44.2827  1.40827e+20
44.4  1.41628e+20
44.5173  1.46397e+20
44.6347  1.54584e+20
44.752  1.65459e+20
44.8693  1.77953e+20
44.9866  1.91216e+20
45.1039  2.04416e+20
45.2212  2.17048e+20
45.3385  2.2895e+20
45.4558  2.40064e+20
45.5731  2.50401e+20
45.6904  2.60099e+20
45.8077  2.68922e+20
45.925  2.76674e+20
46.0423  2.83053e+20
46.1596  2.87437e+20
46.2769  2.89429e+20
46.3942  2.88827e+20
46.5115  2.85115e+20
46.6288  2.7857e+20
46.7461  2.69334e+20
46.8634  2.57744e+20
46.9808  2.44425e+20
47.0981  2.30109e+20
47.2154  2.15524e+20
47.3327  2.0172e+20
47.45  1.89535e+20
47.5673  1.7983e+20
47.6846  1.73345e+20
47.8019  1.70437e+20
47.9192  1.71194e+20
48.0365  1.75349e+20
48.1538  1.82254e+20
48.2711  1.91048e+20
48.3884  2.00759e+20
48.5057  2.10415e+20
48.623  2.19236e+20
48.7403  2.26825e+20
48.8576  2.33087e+20
48.9749  2.38461e+20
49.0922  2.43384e+20
49.2095  2.4862e+20
49.3269  2.54975e+20
49.4442  2.62866e+20
49.5615  2.7266e+20
49.6788  2.84117e+20
49.7961  2.96835e+20
49.9134  3.09808e+20
50.0307  3.22231e+20
50.148  3.32849e+20
50.2653  3.40536e+20
50.3826  3.44494e+20
50.4999  3.44194e+20
50.6172  3.39606e+20
50.7345  3.31249e+20
50.8518  3.19874e+20
