#S 1 spectral density
#N 2
#UFWHM 13.0209
#L  abscissas [um]  spectral density
-58.5938  2.09847e+19
-58.4764  2.06666e+19
-58.3591  2.13759e+19
-58.2418  2.27945e+19
-58.1245  2.45149e+19
-58.0072  2.60648e+19
-57.8899  2.7056e+19
-57.7726  2.718e+19
-57.6553  2.63449e+19
-57.538  2.4621e+19
-57.4207  2.22673e+19
-57.3034  1.95844e+19
-57.1861  1.69298e+19
-57.0688  1.45593e+19
-56.9515  1.26692e+19
-56.8342  1.13638e+19
-56.7169  1.06951e+19
-56.5996  1.0698e+19
-56.4823  1.14681e+19
-56.365  1.31654e+19
-56.2477  1.59531e+19
-56.1303  2.00125e+19
-56.013  2.54247e+19
-55.8957  3.21148e+19
-55.7784  3.98499e+19
-55.6611  4.81715e+19
-55.5438  5.65115e+19
-55.4265  6.42428e+19
-55.3092  7.07527e+19
-55.1919  7.56066e+19
-55.0746  7.85845e+19
-54.9573  7.95941e+19
-54.84  7.89197e+19
-54.7227  7.69362e+19
-54.6054  7.41157e+19
-54.4881  7.09957e+19
-54.3708  6.81241e+19
-54.2535  6.58807e+19
-54.1362  6.45674e+19
-54.0189  6.43893e+19
-53.9016  6.53868e+19
-53.7842  6.7482e+19
-53.6669  7.05644e+19
-53.5496  7.4452e+19
-53.4323  7.89432e+19
-53.315  8.38663e+19
-53.1977  8.90096e+19
-53.0804  9.42047e+19
-52.9631  9.93163e+19
-52.8458  1.04148e+20
-52.7285  1.086e+20
-52.6112  1.12408e+20
-52.4939  1.15477e+20
-52.3766  1.17563e+20
-52.2593  1.18614e+20
-52.142  1.18578e+20
-52.0247  1.17534e+20
-51.9074  1.15555e+20
-51.7901  1.12871e+20
-51.6728  1.09705e+20
-51.5555  1.06211e+20
-51.4381  1.0248e+20
-51.3208  9.85653e+19
-51.2035  9.43833e+19
-51.0862  8.99315e+19
-50.9689  8.50885e+19
-50.8516  7.98797e+19
-50.7343  7.44257e+19
-50.617  6.887e+19
-50.4997  6.34562e+19
-50.3824  5.84368e+19
-50.2651  5.39063e+19
-50.1478  4.99859e+19
-50.0305  4.6615e+19
-49.9132  4.36899e+19
-49.7959  4.10917e+19
-49.6786  3.87209e+19
-49.5613  3.65889e+19
-49.444  3.48061e+19
-49.3267  3.35769e+19
-49.2094  3.31313e+19
-49.092  3.3669e+19
-48.9747  3.52672e+19
-48.8574  3.78783e+19
-48.7401  4.13223e+19
-48.6228  4.53018e+19
-48.5055  4.94036e+19
-48.3882  5.33101e+19
-48.2709  5.67357e+19
-48.1536  5.94848e+19
-48.0363  6.15031e+19
-47.919  6.27657e+19
-47.8017  6.33578e+19
-47.6844  6.33396e+19
-47.5671  6.28423e+19
-47.4498  6.20167e+19
-47.3325  6.10139e+19
-47.2152  6.00373e+19
-47.0979  5.93781e+19
-46.9806  5.92723e+19
-46.8633  5.99963e+19
-46.7459  6.17048e+19
-46.6286  6.44812e+19
-46.5113  6.82139e+19
-46.394  7.27281e+19
-46.2767  7.76881e+19
-46.1594  8.26982e+19
-46.0421  8.74644e+19
-45.9248  9.16452e+19
-45.8075  9.49617e+19
-45.6902  9.73378e+19
-45.5729  9.85954e+19
-45.4556  9.87045e+19
-45.3383  9.76345e+19
-45.221  9.55139e+19
-45.1037  9.24778e+19
-44.9864  8.87762e+19
-44.8691  8.47268e+19
-44.7518  8.08022e+19
-44.6345  7.74198e+19
-44.5172  7.4961e+19
-44.3998  7.36717e+19
-44.2825  7.35518e+19
-44.1652  7.4419e+19
-44.0479  7.59251e+19
-43.9306  7.75794e+19
-43.8133  7.88575e+19
-43.696  7.94332e+19
-43.5787  7.91616e+19
-43.4614  7.80866e+19
-43.3441  7.64469e+19
-43.2268  7.45569e+19
-43.1095  7.27384e+19
-42.9922  7.12343e+19
-42.8749  7.00973e+19
-42.7576  6.92856e+19
-42.6403  6.8637e+19
-42.523  6.79711e+19
-42.4057  6.71924e+19
-42.2884  6.62859e+19
-42.171  6.5375e+19
-42.0537  6.46574e+19
-41.9364  6.43319e+19
-41.8191  6.45359e+19
-41.7018  6.5208e+19
-41.5845  6.6269e+19
-41.4672  6.74008e+19
-41.3499  6.83478e+19
-41.2326  6.88661e+19
-41.1153  6.88021e+19
-40.998  6.82624e+19
-40.8807  6.74195e+19
-40.7634  6.65559e+19
-40.6461  6.60209e+19
-40.5288  6.61269e+19
-40.4115  6.70634e+19
-40.2942  6.89726e+19
-40.1769  7.18465e+19
-40.0596  7.57885e+19
-39.9423  8.08184e+19
-39.825  8.70287e+19
-39.7076  9.45965e+19
-39.5903  1.03574e+20
-39.473  1.14001e+20
-39.3557  1.25697e+20
-39.2384  1.38235e+20
-39.1211  1.5097e+20
-39.0038  1.63133e+20
-38.8865  1.74003e+20
-38.7692  1.82888e+20
-38.6519  1.89258e+20
-38.5346  1.92954e+20
-38.4173  1.94065e+20
-38.3  1.92988e+20
-38.1827  1.90202e+20
-38.0654  1.86261e+20
-37.9481  1.81755e+20
-37.8308  1.77074e+20
-37.7135  1.72601e+20
-37.5962  1.68537e+20
-37.4789  1.65076e+20
-37.3615  1.62325e+20
-37.2442  1.60493e+20
-37.1269  1.59594e+20
-37.0096  1.59729e+20
-36.8923  1.60972e+20
-36.775  1.63173e+20
-36.6577  1.66239e+20
-36.5404  1.6991e+20
-36.4231  1.73908e+20
-36.3058  1.78055e+20
-36.1885  1.82124e+20
-36.0712  1.8597e+20
-35.9539  1.89556e+20
-35.8366  1.92888e+20
-35.7193  1.95922e+20
-35.602  1.98656e+20
-35.4847  2.00875e+20
-35.3674  2.0256e+20
-35.2501  2.03498e+20
-35.1328  2.03565e+20
-35.0154  2.02737e+20
-34.8981  2.00972e+20
-34.7808  1.98419e+20
-34.6635  1.95322e+20
-34.5462  1.91831e+20
-34.4289  1.88146e+20
-34.3116  1.84494e+20
-34.1943  1.81134e+20
-34.077  1.7815e+20
-33.9597  1.75663e+20
-33.8424  1.73757e+20
-33.7251  1.72512e+20
-33.6078  1.71926e+20
-33.4905  1.71872e+20
-33.3732  1.72183e+20
-33.2559  1.72579e+20
-33.1386  1.72668e+20
-33.0213  1.72134e+20
-32.904  1.70646e+20
-32.7867  1.68e+20
-32.6693  1.64163e+20
-32.552  1.59398e+20
-32.4347  1.53896e+20
-32.3174  1.48236e+20
-32.2001  1.42911e+20
-32.0828  1.38364e+20
-31.9655  1.35038e+20
-31.8482  1.33133e+20
-31.7309  1.3269e+20
-31.6136  1.33647e+20
-31.4963  1.35767e+20
-31.379  1.38778e+20
-31.2617  1.42332e+20
-31.1444  1.46127e+20
-31.0271  1.49828e+20
-30.9098  1.53248e+20
-30.7925  1.56166e+20
-30.6752  1.58619e+20
-30.5579  1.6064e+20
-30.4406  1.62469e+20
-30.3232  1.64311e+20
-30.2059  1.6655e+20
-30.0886  1.69514e+20
-29.9713  1.73449e+20
-29.854  1.78579e+20
-29.7367  1.84893e+20
-29.6194  1.92328e+20
-29.5021  2.008e+20
-29.3848  2.09944e+20
-29.2675  2.19459e+20
-29.1502  2.29061e+20
-29.0329  2.38312e+20
-28.9156  2.46809e+20
-28.7983  2.54234e+20
-28.681  2.60088e+20
-28.5637  2.64141e+20
-28.4464  2.66048e+20
-28.3291  2.65845e+20
-28.2118  2.63652e+20
-28.0944  2.59771e+20
-27.9771  2.54839e+20
-27.8598  2.49522e+20
-27.7425  2.44478e+20
-27.6252  2.40392e+20
-27.5079  2.3762e+20
-27.3906  2.36479e+20
-27.2733  2.37054e+20
-27.156  2.3914e+20
-27.0387  2.42697e+20
-26.9214  2.47517e+20
-26.8041  2.53492e+20
-26.6868  2.60597e+20
-26.5695  2.68809e+20
-26.4522  2.77999e+20
-26.3349  2.87897e+20
-26.2176  2.98133e+20
-26.1003  3.08104e+20
-25.983  3.17297e+20
-25.8657  3.25181e+20
-25.7483  3.31407e+20
-25.631  3.35816e+20
-25.5137  3.38735e+20
-25.3964  3.40462e+20
-25.2791  3.41547e+20
-25.1618  3.42661e+20
-25.0445  3.44286e+20
-24.9272  3.46769e+20
-24.8099  3.504e+20
-24.6926  3.55221e+20
-24.5753  3.6134e+20
-24.458  3.68749e+20
-24.3407  3.77451e+20
-24.2234  3.87426e+20
-24.1061  3.98712e+20
-23.9888  4.11076e+20
-23.8715  4.24298e+20
-23.7542  4.37797e+20
-23.6369  4.51136e+20
-23.5196  4.63624e+20
-23.4023  4.74723e+20
-23.2849  4.84118e+20
-23.1676  4.91503e+20
-23.0503  4.96996e+20
-22.933  5.00658e+20
-22.8157  5.02829e+20
-22.6984  5.03846e+20
-22.5811  5.04142e+20
-22.4638  5.04194e+20
-22.3465  5.04373e+20
-22.2292  5.05406e+20
-22.1119  5.07851e+20
-21.9946  5.12496e+20
-21.8773  5.19904e+20
-21.76  5.30508e+20
-21.6427  5.44363e+20
-21.5254  5.6121e+20
-21.4081  5.80057e+20
-21.2908  5.9995e+20
-21.1735  6.19582e+20
-21.0561  6.37706e+20
-20.9388  6.53407e+20
-20.8215  6.66495e+20
-20.7042  6.76717e+20
-20.5869  6.847e+20
-20.4696  6.91316e+20
-20.3523  6.97531e+20
-20.235  7.04205e+20
-20.1177  7.12313e+20
-20.0004  7.22333e+20
-19.8831  7.35095e+20
-19.7658  7.50772e+20
-19.6485  7.69913e+20
-19.5312  7.92775e+20
-19.4139  8.19752e+20
-19.2966  8.50812e+20
-19.1793  8.85747e+20
-19.062  9.23894e+20
-18.9447  9.64244e+20
-18.8274  1.00534e+21
-18.71  1.04585e+21
-18.5927  1.08434e+21
-18.4754  1.11973e+21
-18.3581  1.15189e+21
-18.2408  1.18055e+21
-18.1235  1.20686e+21
-18.0062  1.23178e+21
-17.8889  1.25693e+21
-17.7716  1.28375e+21
-17.6543  1.31343e+21
-17.537  1.34704e+21
-17.4197  1.38518e+21
-17.3024  1.42801e+21
-17.1851  1.47545e+21
-17.0678  1.52735e+21
-16.9505  1.58325e+21
-16.8332  1.64282e+21
-16.7159  1.70527e+21
-16.5986  1.7701e+21
-16.4813  1.83633e+21
-16.364  1.90318e+21
-16.2466  1.96963e+21
-16.1293  2.03508e+21
-16.012  2.09857e+21
-15.8947  2.15972e+21
-15.7774  2.21823e+21
-15.6601  2.27419e+21
-15.5428  2.32764e+21
-15.4255  2.37904e+21
-15.3082  2.42881e+21
-15.1909  2.47746e+21
-15.0736  2.52522e+21
-14.9563  2.57291e+21
-14.839  2.62091e+21
-14.7217  2.66972e+21
-14.6044  2.72024e+21
-14.4871  2.77279e+21
-14.3698  2.82827e+21
-14.2525  2.8873e+21
-14.1352  2.95036e+21
-14.0178  3.01789e+21
-13.9005  3.09033e+21
-13.7832  3.16784e+21
-13.6659  3.25067e+21
-13.5486  3.33845e+21
-13.4313  3.4317e+21
-13.314  3.52957e+21
-13.1967  3.63192e+21
-13.0794  3.73826e+21
-12.9621  3.84804e+21
-12.8448  3.96088e+21
-12.7275  4.07659e+21
-12.6102  4.19482e+21
-12.4929  4.3158e+21
-12.3756  4.44008e+21
-12.2583  4.56848e+21
-12.141  4.70227e+21
-12.0237  4.84291e+21
-11.9064  4.99225e+21
-11.7891  5.15211e+21
-11.6718  5.32474e+21
-11.5544  5.51176e+21
-11.4371  5.71482e+21
-11.3198  5.93582e+21
-11.2025  6.17565e+21
-11.0852  6.43512e+21
-10.9679  6.71473e+21
-10.8506  7.01413e+21
-10.7333  7.33269e+21
-10.616  7.66974e+21
-10.4987  8.02358e+21
-10.3814  8.39283e+21
-10.2641  8.77648e+21
-10.1468  9.17393e+21
-10.0295  9.58422e+21
-9.91217  1.00083e+22
-9.79487  1.04468e+22
-9.67756  1.09017e+22
-9.56026  1.13747e+22
-9.44295  1.18682e+22
-9.32565  1.23848e+22
-9.20834  1.29263e+22
-9.09104  1.34944e+22
-8.97373  1.409e+22
-8.85643  1.47136e+22
-8.73913  1.53642e+22
-8.62182  1.60393e+22
-8.50452  1.67365e+22
-8.38721  1.74516e+22
-8.26991  1.81808e+22
-8.1526  1.89193e+22
-8.03529  1.9663e+22
-7.91799  2.04075e+22
-7.80069  2.11511e+22
-7.68338  2.18914e+22
-7.56608  2.2629e+22
-7.44877  2.33653e+22
-7.33146  2.4103e+22
-7.21416  2.48462e+22
-7.09685  2.55993e+22
-6.97955  2.63675e+22
-6.86224  2.71547e+22
-6.74494  2.79642e+22
-6.62763  2.87984e+22
-6.51033  2.96576e+22
-6.39302  3.05404e+22
-6.27572  3.1444e+22
-6.15842  3.23633e+22
-6.04111  3.32915e+22
-5.92381  3.42229e+22
-5.8065  3.51491e+22
-5.68919  3.60631e+22
-5.57189  3.69598e+22
-5.45458  3.78341e+22
-5.33728  3.86835e+22
-5.21997  3.95079e+22
-5.10267  4.03083e+22
-4.98536  4.1088e+22
-4.86806  4.18506e+22
-4.75075  4.26011e+22
-4.63345  4.33437e+22
-4.51614  4.40827e+22
-4.39884  4.4821e+22
-4.28154  4.55598e+22
-4.16423  4.63002e+22
-4.04692  4.70394e+22
-3.92962  4.77747e+22
-3.81231  4.85018e+22
-3.69501  4.92146e+22
-3.5777  4.99083e+22
-3.4604  5.05764e+22
-3.34309  5.12135e+22
-3.22579  5.18162e+22
-3.10849  5.23827e+22
-2.99118  5.29116e+22
-2.87387  5.34057e+22
-2.75657  5.38676e+22
-2.63926  5.43023e+22
-2.52196  5.4714e+22
-2.40465  5.5108e+22
-2.28735  5.54873e+22
-2.17005  5.58553e+22
-2.05274  5.62125e+22
-1.93544  5.65582e+22
-1.81813  5.68907e+22
-1.70083  5.72067e+22
-1.58352  5.7503e+22
-1.46622  5.77752e+22
-1.34891  5.80198e+22
-1.2316  5.8234e+22
-1.1143  5.84158e+22
-0.996995  5.85644e+22
-0.87969  5.86813e+22
-0.762385  5.87673e+22
-0.64508  5.88276e+22
-0.527775  5.88663e+22
-0.41047  5.8889e+22
-0.293165  5.8901e+22
-0.17586  5.89076e+22
-0.058555  5.89123e+22
0.05875  5.89169e+22
0.176055  5.89215e+22
0.29336  5.89243e+22
0.410665  5.8921e+22
0.52797  5.8907e+22
0.645275  5.88762e+22
0.76258  5.8824e+22
0.879885  5.87451e+22
0.99719  5.86358e+22
1.1145  5.84942e+22
1.2318  5.83193e+22
1.3491  5.81118e+22
1.46641  5.78741e+22
1.58371  5.76088e+22
1.70102  5.73198e+22
1.81832  5.70109e+22
1.93563  5.6686e+22
2.05294  5.63479e+22
2.17024  5.59986e+22
2.28754  5.56386e+22
2.40485  5.52666e+22
2.52216  5.48804e+22
2.63946  5.44759e+22
2.75677  5.40484e+22
2.87407  5.35932e+22
2.99137  5.31057e+22
3.10868  5.25825e+22
3.22599  5.20224e+22
3.34329  5.14256e+22
3.4606  5.0794e+22
3.5779  5.01316e+22
3.69521  4.9444e+22
3.81251  4.87364e+22
3.92982  4.8015e+22
4.04712  4.72854e+22
4.16443  4.65517e+22
4.28173  4.5817e+22
4.39903  4.50827e+22
4.51634  4.43493e+22
4.63364  4.36145e+22
4.75095  4.28757e+22
4.86825  4.21285e+22
4.98556  4.13688e+22
5.10286  4.05917e+22
5.22017  3.97924e+22
5.33748  3.8969e+22
5.45478  3.812e+22
5.57209  3.72457e+22
5.68939  3.63493e+22
5.8067  3.54344e+22
5.924  3.45077e+22
6.0413  3.35759e+22
6.15861  3.26469e+22
6.27591  3.17267e+22
6.39322  3.08227e+22
6.51052  2.99389e+22
6.62783  2.90788e+22
6.74514  2.82432e+22
6.86244  2.74322e+22
6.97975  2.6643e+22
7.09705  2.58725e+22
7.21436  2.51163e+22
7.33166  2.43694e+22
7.44897  2.36278e+22
7.56627  2.28871e+22
7.68358  2.21448e+22
7.80088  2.13989e+22
7.91819  2.06501e+22
8.03549  1.99e+22
8.1528  1.91505e+22
8.2701  1.84061e+22
8.38741  1.76713e+22
8.50471  1.69497e+22
8.62202  1.6247e+22
8.73932  1.55662e+22
8.85662  1.49098e+22
8.97393  1.42805e+22
9.09123  1.3679e+22
9.20854  1.31049e+22
9.32584  1.25573e+22
9.44315  1.20349e+22
9.56045  1.15353e+22
9.67776  1.10561e+22
9.79506  1.05953e+22
9.91237  1.01504e+22
10.0297  9.7202e+21
10.147  9.30365e+21
10.2643  8.90027e+21
10.3816  8.51088e+21
10.4989  8.13567e+21
10.6162  7.77647e+21
10.7335  7.43434e+21
10.8508  7.11081e+21
10.9681  6.80658e+21
11.0854  6.52258e+21
11.2027  6.25877e+21
11.32  6.01485e+21
11.4373  5.78993e+21
11.5546  5.58289e+21
11.6719  5.39217e+21
11.7893  5.21602e+21
11.9066  5.05256e+21
12.0239  4.89984e+21
12.1412  4.75599e+21
12.2585  4.61913e+21
12.3758  4.48785e+21
12.4931  4.36072e+21
12.6104  4.23717e+21
12.7277  4.11661e+21
12.845  3.99875e+21
12.9623  3.88382e+21
13.0796  3.77216e+21
13.1969  3.664e+21
13.3142  3.5603e+21
13.4315  3.46113e+21
13.5488  3.36669e+21
13.6661  3.27768e+21
13.7834  3.19394e+21
13.9007  3.11545e+21
14.018  3.04209e+21
14.1354  2.97383e+21
14.2527  2.91015e+21
14.37  2.85054e+21
14.4873  2.79448e+21
14.6046  2.7416e+21
14.7219  2.6907e+21
14.8392  2.64142e+21
14.9565  2.59315e+21
15.0738  2.54528e+21
15.1911  2.4972e+21
15.3084  2.44847e+21
15.4257  2.39853e+21
15.543  2.34689e+21
15.6603  2.29314e+21
15.7776  2.23696e+21
15.8949  2.17815e+21
16.0122  2.11659e+21
16.1295  2.05276e+21
16.2468  1.987e+21
16.3641  1.92008e+21
16.4815  1.85284e+21
16.5988  1.7862e+21
16.7161  1.72105e+21
16.8334  1.65819e+21
16.9507  1.59833e+21
17.068  1.54207e+21
17.1853  1.48978e+21
17.3026  1.44197e+21
17.4199  1.39892e+21
17.5372  1.36057e+21
17.6545  1.32655e+21
17.7718  1.29642e+21
17.8891  1.26921e+21
18.0064  1.24354e+21
18.1237  1.218e+21
18.241  1.19114e+21
18.3583  1.16177e+21
18.4756  1.12909e+21
18.5929  1.09288e+21
18.7102  1.05383e+21
18.8275  1.0127e+21
18.9449  9.7106e+20
19.0622  9.30244e+20
19.1795  8.91643e+20
19.2968  8.5644e+20
19.4141  8.25032e+20
19.5314  7.97794e+20
19.6487  7.74679e+20
19.766  7.55268e+20
19.8833  7.39363e+20
20.0006  7.26406e+20
20.1179  7.16108e+20
20.2352  7.07732e+20
20.3525  7.0078e+20
20.4698  6.94389e+20
20.5871  6.87544e+20
20.7044  6.79145e+20
20.8217  6.68659e+20
20.939  6.55417e+20
21.0563  6.39355e+20
21.1736  6.2103e+20
21.291  6.01375e+20
21.4083  5.8138e+20
21.5256  5.6248e+20
21.6429  5.458e+20
21.7602  5.32029e+20
21.8775  5.21508e+20
21.9948  5.14206e+20
22.1121  5.09677e+20
22.2294  5.07401e+20
22.3467  5.06429e+20
22.464  5.06266e+20
22.5813  5.06344e+20
22.6986  5.06113e+20
22.8159  5.0501e+20
22.9332  5.02906e+20
23.0505  4.99225e+20
23.1678  4.93766e+20
23.2851  4.86355e+20
23.4024  4.76974e+20
23.5198  4.65799e+20
23.6371  4.53306e+20
23.7544  4.39993e+20
23.8717  4.26431e+20
23.989  4.1328e+20
24.1063  4.00965e+20
24.2236  3.89719e+20
24.3409  3.79766e+20
24.4582  3.71132e+20
24.5755  3.63778e+20
24.6928  3.57677e+20
24.8101  3.52863e+20
24.9274  3.49244e+20
25.0447  3.46725e+20
25.162  3.45101e+20
25.2793  3.43952e+20
25.3966  3.4271e+20
25.5139  3.40924e+20
25.6312  3.37956e+20
25.7485  3.33321e+20
25.8658  3.26956e+20
25.9832  3.18989e+20
26.1005  3.09651e+20
26.2178  2.99556e+20
26.3351  2.893e+20
26.4524  2.7934e+20
26.5697  2.70133e+20
26.687  2.61892e+20
26.8043  2.54713e+20
26.9216  2.48706e+20
27.0389  2.43879e+20
27.1562  2.40283e+20
27.2735  2.38146e+20
27.3908  2.37615e+20
27.5081  2.38665e+20
27.6254  2.41402e+20
27.7427  2.45491e+20
27.86  2.50481e+20
27.9773  2.55794e+20
28.0946  2.60629e+20
28.212  2.64416e+20
28.3293  2.66558e+20
28.4466  2.66672e+20
28.5639  2.64634e+20
28.6812  2.605e+20
28.7985  2.54615e+20
28.9158  2.47158e+20
29.0331  2.38549e+20
29.1504  2.2934e+20
29.2677  2.19697e+20
29.385  2.10171e+20
29.5023  2.01035e+20
29.6196  1.92621e+20
29.7369  1.85173e+20
29.8542  1.78884e+20
29.9715  1.73832e+20
30.0888  1.69887e+20
30.2061  1.66998e+20
30.3234  1.6481e+20
30.4407  1.62947e+20
30.558  1.61163e+20
30.6754  1.59147e+20
30.7927  1.56713e+20
30.91  1.53757e+20
31.0273  1.50391e+20
31.1446  1.46678e+20
31.2619  1.42936e+20
31.3792  1.39387e+20
31.4965  1.36409e+20
31.6138  1.34337e+20
31.7311  1.33483e+20
31.8484  1.33971e+20
31.9657  1.35968e+20
32.083  1.39395e+20
32.2003  1.43953e+20
32.3176  1.49341e+20
32.4349  1.55033e+20
32.5522  1.60492e+20
32.6695  1.65285e+20
32.7868  1.69071e+20
32.9042  1.71678e+20
33.0215  1.73126e+20
33.1388  1.7362e+20
33.2561  1.73456e+20
33.3734  1.73046e+20
33.4907  1.72739e+20
33.608  1.72755e+20
33.7253  1.73335e+20
33.8426  1.746e+20
33.9599  1.7647e+20
34.0772  1.78989e+20
34.1945  1.82006e+20
34.3118  1.85373e+20
34.4291  1.88968e+20
34.5464  1.92646e+20
34.6637  1.96121e+20
34.781  1.99225e+20
34.8983  2.01679e+20
35.0156  2.03345e+20
35.1329  2.04088e+20
35.2503  2.0392e+20
35.3676  2.02922e+20
35.4849  2.01137e+20
35.6022  1.98763e+20
35.7195  1.9605e+20
35.8368  1.92936e+20
35.9541  1.89564e+20
36.0714  1.85904e+20
36.1887  1.82022e+20
36.306  1.77984e+20
36.4233  1.73861e+20
36.5406  1.69843e+20
36.6579  1.66202e+20
36.7752  1.63205e+20
36.8925  1.61024e+20
37.0098  1.59859e+20
37.1271  1.59762e+20
37.2444  1.60689e+20
37.3617  1.62591e+20
37.479  1.65354e+20
37.5964  1.6884e+20
37.7137  1.72921e+20
37.831  1.77414e+20
37.9483  1.82076e+20
38.0656  1.86572e+20
38.1829  1.90495e+20
38.3002  1.93207e+20
38.4175  1.94229e+20
38.5348  1.93022e+20
38.6521  1.89205e+20
38.7694  1.82789e+20
38.8867  1.73861e+20
39.004  1.62944e+20
39.1213  1.50704e+20
39.2386  1.37981e+20
39.3559  1.25499e+20
39.4732  1.13897e+20
39.5905  1.03522e+20
39.7078  9.4579e+19
39.8251  8.70865e+19
39.9425  8.09048e+19
40.0598  7.59312e+19
40.1771  7.20313e+19
40.2944  6.91542e+19
40.4117  6.73147e+19
40.529  6.64025e+19
40.6463  6.63127e+19
40.7636  6.68488e+19
40.8809  6.7686e+19
40.9982  6.85382e+19
41.1155  6.90723e+19
41.2328  6.90936e+19
41.3501  6.85532e+19
41.4674  6.75967e+19
41.5847  6.64458e+19
41.702  6.54163e+19
41.8193  6.47457e+19
41.9366  6.45802e+19
42.0539  6.49306e+19
42.1712  6.56702e+19
42.2885  6.66022e+19
42.4059  6.75113e+19
42.5232  6.82955e+19
42.6405  6.89713e+19
42.7578  6.96115e+19
42.8751  7.04362e+19
42.9924  7.15675e+19
43.1097  7.30824e+19
43.227  7.4908e+19
43.3443  7.67724e+19
43.4616  7.84154e+19
43.5789  7.94576e+19
43.6962  7.96828e+19
43.8135  7.90345e+19
43.9308  7.7703e+19
44.0481  7.6071e+19
44.1654  7.45924e+19
44.2827  7.37187e+19
44.4  7.38599e+19
44.5173  7.52088e+19
44.6347  7.76818e+19
44.752  8.10879e+19
44.8693  8.50276e+19
44.9866  8.90652e+19
45.1039  9.27672e+19
45.2212  9.57968e+19
45.3385  9.78852e+19
45.4558  9.89004e+19
45.5731  9.87373e+19
45.6904  9.7435e+19
45.8077  9.50568e+19
45.925  9.16807e+19
46.0423  8.74682e+19
46.1596  8.2663e+19
46.2769  7.76232e+19
46.3942  7.26666e+19
46.5115  6.81813e+19
46.6288  6.44607e+19
46.7461  6.1719e+19
46.8634  6.004e+19
46.9808  5.93682e+19
47.0981  5.94883e+19
47.2154  6.01833e+19
47.3327  6.11679e+19
47.45  6.2178e+19
47.5673  6.30093e+19
47.6846  6.34668e+19
47.8019  6.34554e+19
47.9192  6.28593e+19
48.0365  6.15671e+19
48.1538  5.95354e+19
48.2711  5.67456e+19
48.3884  5.33153e+19
48.5057  4.93697e+19
48.623  4.52658e+19
48.7403  4.13344e+19
48.8576  3.79293e+19
48.9749  3.53465e+19
49.0922  3.37988e+19
49.2095  3.33198e+19
49.3269  3.38048e+19
49.4442  3.50645e+19
49.5615  3.68735e+19
49.6788  3.9027e+19
49.7961  4.13965e+19
49.9134  4.4e+19
50.0307  4.69342e+19
50.148  5.03288e+19
50.2653  5.42701e+19
50.3826  5.87867e+19
50.4999  6.38618e+19
50.6172  6.92938e+19
50.7345  7.48422e+19
50.8518  8.02914e+19
50.9691  8.55086e+19
