#S 1 spectral density
#N 2
#UFWHM 24.986
#L  abscissas [um]  spectral density
-58.5938  1.01406e+20
-58.4764  9.49025e+19
-58.3591  9.03603e+19
-58.2418  8.78344e+19
-58.1245  8.70742e+19
-58.0072  8.75646e+19
-57.8899  8.87567e+19
-57.7726  9.00655e+19
-57.6553  9.11481e+19
-57.538  9.18883e+19
-57.4207  9.24056e+19
-57.3034  9.29578e+19
-57.1861  9.3939e+19
-57.0688  9.56113e+19
-56.9515  9.8212e+19
-56.8342  1.01683e+20
-56.7169  1.06006e+20
-56.5996  1.10897e+20
-56.4823  1.1625e+20
-56.365  1.21851e+20
-56.2477  1.27578e+20
-56.1303  1.33261e+20
-56.013  1.38833e+20
-55.8957  1.43978e+20
-55.7784  1.48439e+20
-55.6611  1.51739e+20
-55.5438  1.53492e+20
-55.4265  1.53514e+20
-55.3092  1.51737e+20
-55.1919  1.48357e+20
-55.0746  1.4396e+20
-54.9573  1.39147e+20
-54.84  1.34821e+20
-54.7227  1.31585e+20
-54.6054  1.29966e+20
-54.4881  1.3011e+20
-54.3708  1.31754e+20
-54.2535  1.34401e+20
-54.1362  1.37325e+20
-54.0189  1.39784e+20
-53.9016  1.41104e+20
-53.7842  1.40929e+20
-53.6669  1.39261e+20
-53.5496  1.36425e+20
-53.4323  1.33059e+20
-53.315  1.30038e+20
-53.1977  1.28256e+20
-53.0804  1.28531e+20
-52.9631  1.31442e+20
-52.8458  1.37254e+20
-52.7285  1.4578e+20
-52.6112  1.56547e+20
-52.4939  1.68693e+20
-52.3766  1.81249e+20
-52.2593  1.93091e+20
-52.142  2.03309e+20
-52.0247  2.11082e+20
-51.9074  2.1589e+20
-51.7901  2.17464e+20
-51.6728  2.15967e+20
-51.5555  2.11602e+20
-51.4381  2.04771e+20
-51.3208  1.96007e+20
-51.2035  1.85754e+20
-51.0862  1.74618e+20
-50.9689  1.6301e+20
-50.8516  1.51452e+20
-50.7343  1.4032e+20
-50.617  1.30061e+20
-50.4997  1.20991e+20
-50.3824  1.13323e+20
-50.2651  1.07202e+20
-50.1478  1.02729e+20
-50.0305  9.98488e+19
-49.9132  9.85907e+19
-49.7959  9.88163e+19
-49.6786  1.00514e+20
-49.5613  1.03638e+20
-49.444  1.08126e+20
-49.3267  1.13814e+20
-49.2094  1.20401e+20
-49.092  1.27458e+20
-48.9747  1.34345e+20
-48.8574  1.40482e+20
-48.7401  1.45188e+20
-48.6228  1.47996e+20
-48.5055  1.4866e+20
-48.3882  1.47258e+20
-48.2709  1.44197e+20
-48.1536  1.401e+20
-48.0363  1.3575e+20
-47.919  1.32078e+20
-47.8017  1.29913e+20
-47.6844  1.29974e+20
-47.5671  1.32776e+20
-47.4498  1.38777e+20
-47.3325  1.48087e+20
-47.2152  1.60742e+20
-47.0979  1.76425e+20
-46.9806  1.94533e+20
-46.8633  2.14168e+20
-46.7459  2.34104e+20
-46.6286  2.52858e+20
-46.5113  2.68814e+20
-46.394  2.8064e+20
-46.2767  2.87229e+20
-46.1594  2.8818e+20
-46.0421  2.83668e+20
-45.9248  2.74706e+20
-45.8075  2.6284e+20
-45.6902  2.49767e+20
-45.5729  2.37499e+20
-45.4556  2.27515e+20
-45.3383  2.20944e+20
-45.221  2.18202e+20
-45.1037  2.19064e+20
-44.9864  2.22925e+20
-44.8691  2.28802e+20
-44.7518  2.35573e+20
-44.6345  2.42249e+20
-44.5172  2.48004e+20
-44.3998  2.52305e+20
-44.2825  2.54566e+20
-44.1652  2.54738e+20
-44.0479  2.52912e+20
-43.9306  2.49257e+20
-43.8133  2.44245e+20
-43.696  2.38514e+20
-43.5787  2.32858e+20
-43.4614  2.27971e+20
-43.3441  2.247e+20
-43.2268  2.23426e+20
-43.1095  2.2439e+20
-42.9922  2.27214e+20
-42.8749  2.31343e+20
-42.7576  2.3585e+20
-42.6403  2.3988e+20
-42.523  2.42685e+20
-42.4057  2.43941e+20
-42.2884  2.43737e+20
-42.171  2.42623e+20
-42.0537  2.41556e+20
-41.9364  2.41577e+20
-41.8191  2.43539e+20
-41.7018  2.48e+20
-41.5845  2.55156e+20
-41.4672  2.64665e+20
-41.3499  2.759e+20
-41.2326  2.87882e+20
-41.1153  2.99816e+20
-40.998  3.10888e+20
-40.8807  3.20562e+20
-40.7634  3.28552e+20
-40.6461  3.34867e+20
-40.5288  3.39521e+20
-40.4115  3.42754e+20
-40.2942  3.44918e+20
-40.1769  3.4603e+20
-40.0596  3.46398e+20
-39.9423  3.4627e+20
-39.825  3.45876e+20
-39.7076  3.45492e+20
-39.5903  3.45308e+20
-39.473  3.45399e+20
-39.3557  3.45753e+20
-39.2384  3.46154e+20
-39.1211  3.46081e+20
-39.0038  3.45199e+20
-38.8865  3.43016e+20
-38.7692  3.393e+20
-38.6519  3.34204e+20
-38.5346  3.28057e+20
-38.4173  3.21574e+20
-38.3  3.15748e+20
-38.1827  3.11738e+20
-38.0654  3.10607e+20
-37.9481  3.13296e+20
-37.8308  3.20474e+20
-37.7135  3.32415e+20
-37.5962  3.48966e+20
-37.4789  3.69665e+20
-37.3615  3.93604e+20
-37.2442  4.19476e+20
-37.1269  4.45992e+20
-37.0096  4.71139e+20
-36.8923  4.93419e+20
-36.775  5.11123e+20
-36.6577  5.22979e+20
-36.5404  5.2806e+20
-36.4231  5.26114e+20
-36.3058  5.17701e+20
-36.1885  5.03889e+20
-36.0712  4.86346e+20
-35.9539  4.66994e+20
-35.8366  4.47847e+20
-35.7193  4.30724e+20
-35.602  4.16858e+20
-35.4847  4.06718e+20
-35.3674  4.00349e+20
-35.2501  3.97146e+20
-35.1328  3.96064e+20
-35.0154  3.96193e+20
-34.8981  3.96689e+20
-34.7808  3.97145e+20
-34.6635  3.97511e+20
-34.5462  3.98509e+20
-34.4289  4.00994e+20
-34.3116  4.06325e+20
-34.1943  4.15778e+20
-34.077  4.30685e+20
-33.9597  4.51925e+20
-33.8424  4.79862e+20
-33.7251  5.14237e+20
-33.6078  5.54164e+20
-33.4905  5.97999e+20
-33.3732  6.43575e+20
-33.2559  6.88286e+20
-33.1386  7.29628e+20
-33.0213  7.65047e+20
-32.904  7.92492e+20
-32.7867  8.11055e+20
-32.6693  8.20231e+20
-32.552  8.20607e+20
-32.4347  8.14029e+20
-32.3174  8.02147e+20
-32.2001  7.87758e+20
-32.0828  7.73083e+20
-31.9655  7.60228e+20
-31.8482  7.50867e+20
-31.7309  7.45627e+20
-31.6136  7.44851e+20
-31.4963  7.47982e+20
-31.379  7.54224e+20
-31.2617  7.62231e+20
-31.1444  7.70831e+20
-31.0271  7.78809e+20
-30.9098  7.85125e+20
-30.7925  7.89259e+20
-30.6752  7.90781e+20
-30.5579  7.89492e+20
-30.4406  7.85625e+20
-30.3232  7.79741e+20
-30.2059  7.72405e+20
-30.0886  7.64061e+20
-29.9713  7.55307e+20
-29.854  7.46563e+20
-29.7367  7.38154e+20
-29.6194  7.30169e+20
-29.5021  7.22525e+20
-29.3848  7.15194e+20
-29.2675  7.08335e+20
-29.1502  7.01743e+20
-29.0329  6.95914e+20
-28.9156  6.91341e+20
-28.7983  6.88753e+20
-28.681  6.89199e+20
-28.5637  6.9367e+20
-28.4464  7.03497e+20
-28.3291  7.19538e+20
-28.2118  7.42487e+20
-28.0944  7.72836e+20
-27.9771  8.09928e+20
-27.8598  8.52711e+20
-27.7425  8.99414e+20
-27.6252  9.47382e+20
-27.5079  9.93888e+20
-27.3906  1.03583e+21
-27.2733  1.07072e+21
-27.156  1.09712e+21
-27.0387  1.11407e+21
-26.9214  1.12257e+21
-26.8041  1.1245e+21
-26.6868  1.12295e+21
-26.5695  1.12128e+21
-26.4522  1.12316e+21
-26.3349  1.13194e+21
-26.2176  1.14981e+21
-26.1003  1.17811e+21
-25.983  1.21661e+21
-25.8657  1.26398e+21
-25.7483  1.31821e+21
-25.631  1.37625e+21
-25.5137  1.43518e+21
-25.3964  1.49151e+21
-25.2791  1.54277e+21
-25.1618  1.5866e+21
-25.0445  1.62182e+21
-24.9272  1.64805e+21
-24.8099  1.6661e+21
-24.6926  1.67776e+21
-24.5753  1.68607e+21
-24.458  1.69391e+21
-24.3407  1.70509e+21
-24.2234  1.72259e+21
-24.1061  1.74875e+21
-23.9888  1.78482e+21
-23.8715  1.83055e+21
-23.7542  1.8847e+21
-23.6369  1.94506e+21
-23.5196  2.0089e+21
-23.4023  2.07372e+21
-23.2849  2.13754e+21
-23.1676  2.19931e+21
-23.0503  2.25903e+21
-22.933  2.31759e+21
-22.8157  2.37663e+21
-22.6984  2.43801e+21
-22.5811  2.50374e+21
-22.4638  2.57595e+21
-22.3465  2.65587e+21
-22.2292  2.74493e+21
-22.1119  2.84366e+21
-21.9946  2.95214e+21
-21.8773  3.07004e+21
-21.76  3.19619e+21
-21.6427  3.329e+21
-21.5254  3.46587e+21
-21.4081  3.60425e+21
-21.2908  3.74093e+21
-21.1735  3.87319e+21
-21.0561  3.99899e+21
-20.9388  4.11679e+21
-20.8215  4.22691e+21
-20.7042  4.33027e+21
-20.5869  4.42896e+21
-20.4696  4.52552e+21
-20.3523  4.62292e+21
-20.235  4.72309e+21
-20.1177  4.82778e+21
-20.0004  4.93775e+21
-19.8831  5.05274e+21
-19.7658  5.17181e+21
-19.6485  5.29373e+21
-19.5312  5.41746e+21
-19.4139  5.54164e+21
-19.2966  5.66533e+21
-19.1793  5.7885e+21
-19.062  5.91088e+21
-18.9447  6.03292e+21
-18.8274  6.15544e+21
-18.71  6.27972e+21
-18.5927  6.40721e+21
-18.4754  6.54012e+21
-18.3581  6.68034e+21
-18.2408  6.83086e+21
-18.1235  6.99338e+21
-18.0062  7.16947e+21
-17.8889  7.3596e+21
-17.7716  7.56358e+21
-17.6543  7.77972e+21
-17.537  8.00525e+21
-17.4197  8.23691e+21
-17.3024  8.4709e+21
-17.1851  8.70408e+21
-17.0678  8.93335e+21
-16.9505  9.15724e+21
-16.8332  9.37479e+21
-16.7159  9.58674e+21
-16.5986  9.7942e+21
-16.4813  9.99939e+21
-16.364  1.02044e+22
-16.2466  1.04108e+22
-16.1293  1.06197e+22
-16.012  1.08317e+22
-15.8947  1.10459e+22
-15.7774  1.12606e+22
-15.6601  1.14737e+22
-15.5428  1.16819e+22
-15.4255  1.18827e+22
-15.3082  1.20733e+22
-15.1909  1.22515e+22
-15.0736  1.24167e+22
-14.9563  1.25688e+22
-14.839  1.27101e+22
-14.7217  1.28431e+22
-14.6044  1.29715e+22
-14.4871  1.31003e+22
-14.3698  1.32336e+22
-14.2525  1.33754e+22
-14.1352  1.35289e+22
-14.0178  1.36963e+22
-13.9005  1.38781e+22
-13.7832  1.40739e+22
-13.6659  1.42812e+22
-13.5486  1.44985e+22
-13.4313  1.4721e+22
-13.314  1.49461e+22
-13.1967  1.51703e+22
-13.0794  1.5391e+22
-12.9621  1.56066e+22
-12.8448  1.58168e+22
-12.7275  1.60218e+22
-12.6102  1.6224e+22
-12.4929  1.64265e+22
-12.3756  1.66321e+22
-12.2583  1.6845e+22
-12.141  1.70685e+22
-12.0237  1.73051e+22
-11.9064  1.75559e+22
-11.7891  1.78215e+22
-11.6718  1.81003e+22
-11.5544  1.83895e+22
-11.4371  1.86853e+22
-11.3198  1.89834e+22
-11.2025  1.92791e+22
-11.0852  1.95686e+22
-10.9679  1.98482e+22
-10.8506  2.01162e+22
-10.7333  2.03714e+22
-10.616  2.06146e+22
-10.4987  2.08477e+22
-10.3814  2.10737e+22
-10.2641  2.12962e+22
-10.1468  2.15196e+22
-10.0295  2.17477e+22
-9.91217  2.19833e+22
-9.79487  2.22289e+22
-9.67756  2.24846e+22
-9.56026  2.27488e+22
-9.44295  2.30187e+22
-9.32565  2.32895e+22
-9.20834  2.35556e+22
-9.09104  2.38106e+22
-8.97373  2.40485e+22
-8.85643  2.4265e+22
-8.73913  2.44552e+22
-8.62182  2.46187e+22
-8.50452  2.47556e+22
-8.38721  2.48681e+22
-8.26991  2.49608e+22
-8.1526  2.50388e+22
-8.03529  2.51077e+22
-7.91799  2.51738e+22
-7.80069  2.52429e+22
-7.68338  2.53188e+22
-7.56608  2.54049e+22
-7.44877  2.55031e+22
-7.33146  2.56134e+22
-7.21416  2.57345e+22
-7.09685  2.58648e+22
-6.97955  2.60015e+22
-6.86224  2.61425e+22
-6.74494  2.62859e+22
-6.62763  2.64299e+22
-6.51033  2.65751e+22
-6.39302  2.67228e+22
-6.27572  2.68751e+22
-6.15842  2.70357e+22
-6.04111  2.7208e+22
-5.92381  2.7396e+22
-5.8065  2.76031e+22
-5.68919  2.78314e+22
-5.57189  2.80816e+22
-5.45458  2.8352e+22
-5.33728  2.86401e+22
-5.21997  2.89399e+22
-5.10267  2.92448e+22
-4.98536  2.95459e+22
-4.86806  2.98343e+22
-4.75075  3.01014e+22
-4.63345  3.03392e+22
-4.51614  3.05424e+22
-4.39884  3.07076e+22
-4.28154  3.08353e+22
-4.16423  3.09288e+22
-4.04692  3.09941e+22
-3.92962  3.10403e+22
-3.81231  3.1077e+22
-3.69501  3.1114e+22
-3.5777  3.11606e+22
-3.4604  3.12236e+22
-3.34309  3.13076e+22
-3.22579  3.14137e+22
-3.10849  3.15408e+22
-2.99118  3.16844e+22
-2.87387  3.18378e+22
-2.75657  3.19932e+22
-2.63926  3.21412e+22
-2.52196  3.22734e+22
-2.40465  3.23813e+22
-2.28735  3.24582e+22
-2.17005  3.25008e+22
-2.05274  3.25078e+22
-1.93544  3.24807e+22
-1.81813  3.24251e+22
-1.70083  3.23479e+22
-1.58352  3.22582e+22
-1.46622  3.21659e+22
-1.34891  3.20799e+22
-1.2316  3.20075e+22
-1.1143  3.19542e+22
-0.996995  3.19221e+22
-0.87969  3.19113e+22
-0.762385  3.19179e+22
-0.64508  3.19386e+22
-0.527775  3.19673e+22
-0.41047  3.19983e+22
-0.293165  3.20263e+22
-0.17586  3.20474e+22
-0.058555  3.20585e+22
0.05875  3.20579e+22
0.176055  3.20458e+22
0.29336  3.20234e+22
0.410665  3.19942e+22
0.52797  3.19616e+22
0.645275  3.19312e+22
0.76258  3.19087e+22
0.879885  3.18999e+22
0.99719  3.19086e+22
1.1145  3.19384e+22
1.2318  3.19892e+22
1.3491  3.20591e+22
1.46641  3.21423e+22
1.58371  3.22317e+22
1.70102  3.23183e+22
1.81832  3.23923e+22
1.93563  3.24449e+22
2.05294  3.24685e+22
2.17024  3.24587e+22
2.28754  3.24135e+22
2.40485  3.23336e+22
2.52216  3.22234e+22
2.63946  3.20891e+22
2.75677  3.19387e+22
2.87407  3.17814e+22
2.99137  3.16258e+22
3.10868  3.14802e+22
3.22599  3.1351e+22
3.34329  3.12424e+22
3.4606  3.11561e+22
3.5779  3.10904e+22
3.69521  3.10409e+22
3.81251  3.1001e+22
3.92982  3.09606e+22
4.04712  3.09108e+22
4.16443  3.08419e+22
4.28173  3.07447e+22
4.39903  3.06134e+22
4.51634  3.04447e+22
4.63364  3.02389e+22
4.75095  2.99982e+22
4.86825  2.9729e+22
4.98556  2.94386e+22
5.10286  2.91364e+22
5.22017  2.88305e+22
5.33748  2.853e+22
5.45478  2.82416e+22
5.57209  2.7971e+22
5.68939  2.77204e+22
5.8067  2.7492e+22
5.924  2.72845e+22
6.0413  2.7096e+22
6.15861  2.6923e+22
6.27591  2.67615e+22
6.39322  2.66081e+22
6.51052  2.64591e+22
6.62783  2.63124e+22
6.74514  2.61666e+22
6.86244  2.60219e+22
6.97975  2.58794e+22
7.09705  2.5741e+22
7.21436  2.56094e+22
7.33166  2.54866e+22
7.44897  2.53751e+22
7.56627  2.52758e+22
7.68358  2.51883e+22
7.80088  2.51111e+22
7.91819  2.50408e+22
8.03549  2.49732e+22
8.1528  2.49027e+22
8.2701  2.48231e+22
8.38741  2.47287e+22
8.50471  2.46143e+22
8.62202  2.44754e+22
8.73932  2.43096e+22
8.85662  2.41171e+22
8.97393  2.38986e+22
9.09123  2.36583e+22
9.20854  2.34013e+22
9.32584  2.31334e+22
9.44315  2.28607e+22
9.56045  2.25891e+22
9.67776  2.23233e+22
9.79506  2.20666e+22
9.91237  2.18197e+22
10.0297  2.15833e+22
10.147  2.13547e+22
10.2643  2.11307e+22
10.3816  2.09078e+22
10.4989  2.06816e+22
10.6162  2.04483e+22
10.7335  2.02053e+22
10.8508  1.99503e+22
10.9681  1.96825e+22
11.0854  1.94032e+22
11.2027  1.91141e+22
11.32  1.88187e+22
11.4373  1.85211e+22
11.5546  1.82258e+22
11.6719  1.79368e+22
11.7893  1.76584e+22
11.9066  1.73933e+22
12.0239  1.71423e+22
12.1412  1.6906e+22
12.2585  1.66828e+22
12.3758  1.64701e+22
12.4931  1.62645e+22
12.6104  1.60623e+22
12.7277  1.58602e+22
12.845  1.56553e+22
12.9623  1.54455e+22
13.0796  1.52302e+22
13.1969  1.50097e+22
13.3142  1.47862e+22
13.4315  1.45615e+22
13.5488  1.43395e+22
13.6661  1.41231e+22
13.7834  1.39161e+22
13.9007  1.37211e+22
14.018  1.35396e+22
14.1354  1.33727e+22
14.2527  1.32194e+22
14.37  1.30781e+22
14.4873  1.2945e+22
14.6046  1.28163e+22
14.7219  1.26881e+22
14.8392  1.25554e+22
14.9565  1.24143e+22
15.0738  1.22625e+22
15.1911  1.20977e+22
15.3084  1.192e+22
15.4257  1.17302e+22
15.543  1.15305e+22
15.6603  1.1323e+22
15.7776  1.11113e+22
15.8949  1.08978e+22
16.0122  1.0685e+22
16.1295  1.04745e+22
16.2468  1.02669e+22
16.3641  1.00616e+22
16.4815  9.85808e+21
16.5988  9.65423e+21
16.7161  9.44765e+21
16.8334  9.23687e+21
16.9507  9.02053e+21
17.068  8.79804e+21
17.1853  8.57006e+21
17.3026  8.33843e+21
17.4199  8.10602e+21
17.5372  7.87599e+21
17.6545  7.65235e+21
17.7718  7.43826e+21
17.8891  7.23604e+21
18.0064  7.04799e+21
18.1237  6.87396e+21
18.241  6.71344e+21
18.3583  6.56492e+21
18.4756  6.42637e+21
18.5929  6.29541e+21
18.7102  6.16964e+21
18.8275  6.04732e+21
18.9449  5.92655e+21
19.0622  5.80642e+21
19.1795  5.68593e+21
19.2968  5.56456e+21
19.4141  5.44268e+21
19.5314  5.32041e+21
19.6487  5.19852e+21
19.766  5.07845e+21
19.8833  4.96105e+21
20.0006  4.84796e+21
20.1179  4.73976e+21
20.2352  4.63695e+21
20.3525  4.53841e+21
20.4698  4.4428e+21
20.5871  4.34783e+21
20.7044  4.25074e+21
20.8217  4.14906e+21
20.939  4.04065e+21
21.0563  3.92431e+21
21.1736  3.80039e+21
21.291  3.66988e+21
21.4083  3.53514e+21
21.5256  3.39878e+21
21.6429  3.26392e+21
21.7602  3.13329e+21
21.8775  3.00916e+21
21.9948  2.89329e+21
22.1121  2.78679e+21
22.2294  2.6899e+21
22.3467  2.60272e+21
22.464  2.52446e+21
22.5813  2.4539e+21
22.6986  2.38968e+21
22.8159  2.3299e+21
22.9332  2.27229e+21
23.0505  2.21517e+21
23.1678  2.15675e+21
23.2851  2.09629e+21
23.4024  2.03382e+21
23.5198  1.97042e+21
23.6371  1.90803e+21
23.7544  1.84919e+21
23.8717  1.79654e+21
23.989  1.75233e+21
24.1063  1.71774e+21
24.2236  1.69296e+21
24.3409  1.67665e+21
24.4582  1.66663e+21
24.5755  1.65961e+21
24.6928  1.65225e+21
24.8101  1.64122e+21
24.9274  1.62376e+21
25.0447  1.59814e+21
25.162  1.56355e+21
25.2793  1.52038e+21
25.3966  1.46982e+21
25.5139  1.41418e+21
25.6312  1.35624e+21
25.7485  1.2992e+21
25.8658  1.24612e+21
25.9832  1.19974e+21
26.1005  1.16248e+21
26.2178  1.13537e+21
26.3351  1.11848e+21
26.4524  1.11065e+21
26.5697  1.10951e+21
26.687  1.11173e+21
26.8043  1.11396e+21
26.9216  1.11242e+21
27.0389  1.10408e+21
27.1562  1.08721e+21
27.2735  1.06109e+21
27.3908  1.02619e+21
27.5081  9.84505e+20
27.6254  9.38368e+20
27.7427  8.90787e+20
27.86  8.44578e+20
27.9773  8.02222e+20
28.0946  7.65758e+20
28.212  7.36028e+20
28.3293  7.13538e+20
28.4466  6.98056e+20
28.5639  6.88682e+20
28.6812  6.84719e+20
28.7985  6.84636e+20
28.9158  6.87558e+20
29.0331  6.92544e+20
29.1504  6.98534e+20
29.2677  7.05394e+20
29.385  7.12562e+20
29.5023  7.20013e+20
29.6196  7.27756e+20
29.7369  7.35909e+20
29.8542  7.44512e+20
29.9715  7.5335e+20
30.0888  7.62058e+20
30.2061  7.70368e+20
30.3234  7.77721e+20
30.4407  7.83546e+20
30.558  7.87321e+20
30.6754  7.88537e+20
30.7927  7.87006e+20
30.91  7.82873e+20
31.0273  7.76435e+20
31.1446  7.68456e+20
31.2619  7.59827e+20
31.3792  7.51844e+20
31.4965  7.45794e+20
31.6138  7.42819e+20
31.7311  7.436e+20
31.8484  7.48908e+20
31.9657  7.58418e+20
32.083  7.71142e+20
32.2003  7.85719e+20
32.3176  8.0003e+20
32.4349  8.11561e+20
32.5522  8.17984e+20
32.6695  8.17169e+20
32.7868  8.07745e+20
32.9042  7.88844e+20
33.0215  7.61077e+20
33.1388  7.25489e+20
33.2561  6.84051e+20
33.3734  6.39338e+20
33.4907  5.93802e+20
33.608  5.5013e+20
33.7253  5.10496e+20
33.8426  4.76269e+20
33.9599  4.48616e+20
34.0772  4.27592e+20
34.1945  4.12895e+20
34.3118  4.03493e+20
34.4291  3.98245e+20
34.5464  3.95796e+20
34.6637  3.94838e+20
34.781  3.94406e+20
34.8983  3.93948e+20
35.0156  3.9341e+20
35.1329  3.93252e+20
35.2503  3.94312e+20
35.3676  3.97608e+20
35.4849  4.04027e+20
35.6022  4.14215e+20
35.7195  4.28187e+20
35.8368  4.45303e+20
35.9541  4.64333e+20
36.0714  4.83591e+20
36.1887  5.0096e+20
36.306  5.14631e+20
36.4233  5.22817e+20
36.5406  5.24526e+20
36.6579  5.19254e+20
36.7752  5.07295e+20
36.8925  4.89465e+20
37.0098  4.67178e+20
37.1271  4.42026e+20
37.2444  4.15716e+20
37.3617  3.89972e+20
37.479  3.66272e+20
37.5964  3.4576e+20
37.7137  3.29426e+20
37.831  3.17685e+20
37.9483  3.10701e+20
38.0656  3.08112e+20
38.1829  3.09359e+20
38.3002  3.13426e+20
38.4175  3.19251e+20
38.5348  3.25714e+20
38.6521  3.31858e+20
38.7694  3.36946e+20
38.8867  3.40589e+20
39.004  3.42727e+20
39.1213  3.43591e+20
39.2386  3.43674e+20
39.3559  3.43406e+20
39.4732  3.431e+20
39.5905  3.43023e+20
39.7078  3.43262e+20
39.8251  3.43726e+20
39.9425  3.44157e+20
40.0598  3.44328e+20
40.1771  3.43955e+20
40.2944  3.42879e+20
40.4117  3.40798e+20
40.529  3.37521e+20
40.6463  3.32891e+20
40.7636  3.26655e+20
40.8809  3.18631e+20
40.9982  3.0902e+20
41.1155  2.97989e+20
41.2328  2.86147e+20
41.3501  2.74183e+20
41.4674  2.63095e+20
41.5847  2.53722e+20
41.702  2.46683e+20
41.8193  2.4235e+20
41.9366  2.40504e+20
42.0539  2.40576e+20
42.1712  2.41677e+20
42.2885  2.42801e+20
42.4059  2.42983e+20
42.5232  2.41686e+20
42.6405  2.38856e+20
42.7578  2.34809e+20
42.8751  2.30309e+20
42.9924  2.26222e+20
43.1097  2.23457e+20
43.227  2.22583e+20
43.3443  2.23933e+20
43.4616  2.27295e+20
43.5789  2.32183e+20
43.6962  2.37872e+20
43.8135  2.43584e+20
43.9308  2.48597e+20
44.0481  2.52182e+20
44.1654  2.53927e+20
44.2827  2.53664e+20
44.4  2.51326e+20
44.5173  2.47059e+20
44.6347  2.41274e+20
44.752  2.34587e+20
44.8693  2.278e+20
44.9866  2.22034e+20
45.1039  2.18278e+20
45.2212  2.17514e+20
45.3385  2.20434e+20
45.4558  2.27144e+20
45.5731  2.37223e+20
45.6904  2.49596e+20
45.8077  2.6259e+20
45.925  2.74407e+20
46.0423  2.83261e+20
46.1596  2.876e+20
46.2769  2.86449e+20
46.3942  2.7967e+20
46.5115  2.67727e+20
46.6288  2.51621e+20
46.7461  2.32808e+20
46.8634  2.12898e+20
46.9808  1.93311e+20
47.0981  1.75281e+20
47.2154  1.59749e+20
47.3327  1.4723e+20
47.45  1.38051e+20
47.5673  1.32191e+20
47.6846  1.29526e+20
47.8019  1.29593e+20
47.9192  1.31857e+20
48.0365  1.35592e+20
48.1538  1.39954e+20
48.2711  1.44065e+20
48.3884  1.47121e+20
48.5057  1.4847e+20
48.623  1.4774e+20
48.7403  1.4486e+20
48.8576  1.40069e+20
48.9749  1.33888e+20
49.0922  1.26962e+20
49.2095  1.19913e+20
49.3269  1.13315e+20
49.4442  1.07677e+20
49.5615  1.03221e+20
49.6788  1.00135e+20
49.7961  9.84714e+19
49.9134  9.83084e+19
50.0307  9.96545e+19
50.148  1.02567e+20
50.2653  1.07121e+20
50.3826  1.13274e+20
50.4999  1.21002e+20
50.6172  1.3014e+20
50.7345  1.40453e+20
50.8518  1.51595e+20
