#S 1 spectral density
#N 2
#UFWHM 25.1033
#L  abscissas [um]  spectral density
-58.5938  1.96087e+20
-58.4764  2.00104e+20
-58.3591  2.04576e+20
-58.2418  2.0894e+20
-58.1245  2.12415e+20
-58.0072  2.1454e+20
-57.8899  2.14726e+20
-57.7726  2.12814e+20
-57.6553  2.08985e+20
-57.538  2.03704e+20
-57.4207  1.9757e+20
-57.3034  1.91365e+20
-57.1861  1.85819e+20
-57.0688  1.81581e+20
-56.9515  1.78952e+20
-56.8342  1.78092e+20
-56.7169  1.78992e+20
-56.5996  1.81447e+20
-56.4823  1.85272e+20
-56.365  1.90234e+20
-56.2477  1.96232e+20
-56.1303  2.02974e+20
-56.013  2.10409e+20
-55.8957  2.18238e+20
-55.7784  2.26139e+20
-55.6611  2.33758e+20
-55.5438  2.40565e+20
-55.4265  2.46138e+20
-55.3092  2.50055e+20
-55.1919  2.52112e+20
-55.0746  2.52244e+20
-54.9573  2.50557e+20
-54.84  2.47296e+20
-54.7227  2.42935e+20
-54.6054  2.37805e+20
-54.4881  2.32353e+20
-54.3708  2.26936e+20
-54.2535  2.21799e+20
-54.1362  2.17216e+20
-54.0189  2.1336e+20
-53.9016  2.10291e+20
-53.7842  2.08135e+20
-53.6669  2.06961e+20
-53.5496  2.06912e+20
-53.4323  2.08027e+20
-53.315  2.10484e+20
-53.1977  2.14269e+20
-53.0804  2.19245e+20
-52.9631  2.25393e+20
-52.8458  2.32418e+20
-52.7285  2.39871e+20
-52.6112  2.47248e+20
-52.4939  2.54007e+20
-52.3766  2.59591e+20
-52.2593  2.63366e+20
-52.142  2.65008e+20
-52.0247  2.64308e+20
-51.9074  2.61277e+20
-51.7901  2.56168e+20
-51.6728  2.49344e+20
-51.5555  2.41347e+20
-51.4381  2.32703e+20
-51.3208  2.23995e+20
-51.2035  2.15717e+20
-51.0862  2.08394e+20
-50.9689  2.02548e+20
-50.8516  1.98646e+20
-50.7343  1.97016e+20
-50.617  1.9813e+20
-50.4997  2.02198e+20
-50.3824  2.09235e+20
-50.2651  2.19121e+20
-50.1478  2.31239e+20
-50.0305  2.45066e+20
-49.9132  2.59554e+20
-49.7959  2.73782e+20
-49.6786  2.86898e+20
-49.5613  2.9814e+20
-49.444  3.07005e+20
-49.3267  3.13416e+20
-49.2094  3.17322e+20
-49.092  3.18965e+20
-48.9747  3.18755e+20
-48.8574  3.17166e+20
-48.7401  3.14648e+20
-48.6228  3.11725e+20
-48.5055  3.08912e+20
-48.3882  3.06572e+20
-48.2709  3.05336e+20
-48.1536  3.05584e+20
-48.0363  3.07551e+20
-47.919  3.11431e+20
-47.8017  3.17189e+20
-47.6844  3.24526e+20
-47.5671  3.32829e+20
-47.4498  3.41555e+20
-47.3325  3.49945e+20
-47.2152  3.57354e+20
-47.0979  3.63226e+20
-46.9806  3.67216e+20
-46.8633  3.69123e+20
-46.7459  3.68972e+20
-46.6286  3.66841e+20
-46.5113  3.62989e+20
-46.394  3.57758e+20
-46.2767  3.5156e+20
-46.1594  3.44893e+20
-46.0421  3.38039e+20
-45.9248  3.31741e+20
-45.8075  3.26384e+20
-45.6902  3.22372e+20
-45.5729  3.2013e+20
-45.4556  3.19696e+20
-45.3383  3.21263e+20
-45.221  3.24624e+20
-45.1037  3.29655e+20
-44.9864  3.36209e+20
-44.8691  3.4409e+20
-44.7518  3.53095e+20
-44.6345  3.63205e+20
-44.5172  3.74047e+20
-44.3998  3.85231e+20
-44.2825  3.96324e+20
-44.1652  4.0661e+20
-44.0479  4.15251e+20
-43.9306  4.21439e+20
-43.8133  4.24636e+20
-43.696  4.24294e+20
-43.5787  4.20432e+20
-43.4614  4.13412e+20
-43.3441  4.03801e+20
-43.2268  3.92496e+20
-43.1095  3.8039e+20
-42.9922  3.68371e+20
-42.8749  3.57096e+20
-42.7576  3.4718e+20
-42.6403  3.39004e+20
-42.523  3.32796e+20
-42.4057  3.28805e+20
-42.2884  3.27308e+20
-42.171  3.28428e+20
-42.0537  3.3233e+20
-41.9364  3.38912e+20
-41.8191  3.48019e+20
-41.7018  3.59233e+20
-41.5845  3.71856e+20
-41.4672  3.85189e+20
-41.3499  3.98229e+20
-41.2326  4.10482e+20
-41.1153  4.21303e+20
-40.998  4.30432e+20
-40.8807  4.37866e+20
-40.7634  4.43771e+20
-40.6461  4.48364e+20
-40.5288  4.51948e+20
-40.4115  4.5474e+20
-40.2942  4.56866e+20
-40.1769  4.58466e+20
-40.0596  4.59642e+20
-39.9423  4.60564e+20
-39.825  4.61378e+20
-39.7076  4.62295e+20
-39.5903  4.63624e+20
-39.473  4.65486e+20
-39.3557  4.67701e+20
-39.2384  4.70055e+20
-39.1211  4.72201e+20
-39.0038  4.73451e+20
-38.8865  4.73251e+20
-38.7692  4.71347e+20
-38.6519  4.67554e+20
-38.5346  4.62156e+20
-38.4173  4.55659e+20
-38.3  4.48979e+20
-38.1827  4.43058e+20
-38.0654  4.38928e+20
-37.9481  4.3747e+20
-37.8308  4.39275e+20
-37.7135  4.44759e+20
-37.5962  4.54057e+20
-37.4789  4.66979e+20
-37.3615  4.83148e+20
-37.2442  5.01929e+20
-37.1269  5.22698e+20
-37.0096  5.44484e+20
-36.8923  5.66313e+20
-36.775  5.87158e+20
-36.6577  6.05791e+20
-36.5404  6.21318e+20
-36.4231  6.32866e+20
-36.3058  6.39927e+20
-36.1885  6.42335e+20
-36.0712  6.40406e+20
-35.9539  6.34734e+20
-35.8366  6.26345e+20
-35.7193  6.16392e+20
-35.602  6.06139e+20
-35.4847  5.96849e+20
-35.3674  5.8964e+20
-35.2501  5.8532e+20
-35.1328  5.84477e+20
-35.0154  5.8742e+20
-34.8981  5.94099e+20
-34.7808  6.04319e+20
-34.6635  6.17217e+20
-34.5462  6.32114e+20
-34.4289  6.47915e+20
-34.3116  6.63507e+20
-34.1943  6.77685e+20
-34.077  6.89816e+20
-33.9597  6.99129e+20
-33.8424  7.0548e+20
-33.7251  7.0894e+20
-33.6078  7.10124e+20
-33.4905  7.09723e+20
-33.3732  7.08721e+20
-33.2559  7.08156e+20
-33.1386  7.08897e+20
-33.0213  7.11717e+20
-32.904  7.1718e+20
-32.7867  7.25578e+20
-32.6693  7.36971e+20
-32.552  7.51111e+20
-32.4347  7.67734e+20
-32.3174  7.86046e+20
-32.2001  8.0547e+20
-32.0828  8.25142e+20
-31.9655  8.44144e+20
-31.8482  8.61618e+20
-31.7309  8.76987e+20
-31.6136  8.89741e+20
-31.4963  8.99697e+20
-31.379  9.07109e+20
-31.2617  9.12427e+20
-31.1444  9.16337e+20
-31.0271  9.19694e+20
-30.9098  9.23368e+20
-30.7925  9.28129e+20
-30.6752  9.34573e+20
-30.5579  9.42958e+20
-30.4406  9.53254e+20
-30.3232  9.65188e+20
-30.2059  9.77898e+20
-30.0886  9.9071e+20
-29.9713  1.00228e+21
-29.854  1.01162e+21
-29.7367  1.01753e+21
-29.6194  1.01927e+21
-29.5021  1.01612e+21
-29.3848  1.00838e+21
-29.2675  9.96289e+20
-29.1502  9.81092e+20
-29.0329  9.6403e+20
-28.9156  9.47048e+20
-28.7983  9.31765e+20
-28.681  9.20061e+20
-28.5637  9.13524e+20
-28.4464  9.13356e+20
-28.3291  9.20356e+20
-28.2118  9.34829e+20
-28.0944  9.56629e+20
-27.9771  9.85117e+20
-27.8598  1.01911e+21
-27.7425  1.05704e+21
-27.6252  1.09677e+21
-27.5079  1.13625e+21
-27.3906  1.17309e+21
-27.2733  1.20519e+21
-27.156  1.23066e+21
-27.0387  1.24852e+21
-26.9214  1.25827e+21
-26.8041  1.26038e+21
-26.6868  1.25604e+21
-26.5695  1.24722e+21
-26.4522  1.23602e+21
-26.3349  1.22474e+21
-26.2176  1.21565e+21
-26.1003  1.21039e+21
-25.983  1.21044e+21
-25.8657  1.21674e+21
-25.7483  1.2296e+21
-25.631  1.2493e+21
-25.5137  1.27514e+21
-25.3964  1.30674e+21
-25.2791  1.34312e+21
-25.1618  1.38302e+21
-25.0445  1.42504e+21
-24.9272  1.46783e+21
-24.8099  1.50984e+21
-24.6926  1.55007e+21
-24.5753  1.58767e+21
-24.458  1.62252e+21
-24.3407  1.6548e+21
-24.2234  1.68534e+21
-24.1061  1.71509e+21
-23.9888  1.74534e+21
-23.8715  1.77722e+21
-23.7542  1.81175e+21
-23.6369  1.84961e+21
-23.5196  1.89116e+21
-23.4023  1.93661e+21
-23.2849  1.98589e+21
-23.1676  2.0386e+21
-23.0503  2.09431e+21
-22.933  2.15246e+21
-22.8157  2.21222e+21
-22.6984  2.27283e+21
-22.5811  2.33362e+21
-22.4638  2.39373e+21
-22.3465  2.45304e+21
-22.2292  2.51135e+21
-22.1119  2.56912e+21
-21.9946  2.62708e+21
-21.8773  2.68664e+21
-21.76  2.74884e+21
-21.6427  2.81487e+21
-21.5254  2.88581e+21
-21.4081  2.96193e+21
-21.2908  3.04349e+21
-21.1735  3.13057e+21
-21.0561  3.22255e+21
-20.9388  3.31942e+21
-20.8215  3.42068e+21
-20.7042  3.52621e+21
-20.5869  3.63602e+21
-20.4696  3.74974e+21
-20.3523  3.86725e+21
-20.235  3.98801e+21
-20.1177  4.11123e+21
-20.0004  4.23617e+21
-19.8831  4.36214e+21
-19.7658  4.4887e+21
-19.6485  4.6158e+21
-19.5312  4.74358e+21
-19.4139  4.873e+21
-19.2966  5.00465e+21
-19.1793  5.13949e+21
-19.062  5.27811e+21
-18.9447  5.42052e+21
-18.8274  5.56663e+21
-18.71  5.71603e+21
-18.5927  5.86798e+21
-18.4754  6.02168e+21
-18.3581  6.1768e+21
-18.2408  6.33344e+21
-18.1235  6.49127e+21
-18.0062  6.65102e+21
-17.8889  6.81317e+21
-17.7716  6.97805e+21
-17.6543  7.14622e+21
-17.537  7.31749e+21
-17.4197  7.49177e+21
-17.3024  7.66869e+21
-17.1851  7.8483e+21
-17.0678  8.02995e+21
-16.9505  8.21359e+21
-16.8332  8.39931e+21
-16.7159  8.58651e+21
-16.5986  8.77518e+21
-16.4813  8.96538e+21
-16.364  9.1562e+21
-16.2466  9.34764e+21
-16.1293  9.5395e+21
-16.012  9.73112e+21
-15.8947  9.92283e+21
-15.7774  1.01149e+22
-15.6601  1.03078e+22
-15.5428  1.05023e+22
-15.4255  1.06992e+22
-15.3082  1.08992e+22
-15.1909  1.11034e+22
-15.0736  1.13118e+22
-14.9563  1.15253e+22
-14.839  1.17435e+22
-14.7217  1.19668e+22
-14.6044  1.21944e+22
-14.4871  1.24261e+22
-14.3698  1.26611e+22
-14.2525  1.28983e+22
-14.1352  1.31371e+22
-14.0178  1.33767e+22
-13.9005  1.36162e+22
-13.7832  1.38549e+22
-13.6659  1.40924e+22
-13.5486  1.43292e+22
-13.4313  1.45646e+22
-13.314  1.47997e+22
-13.1967  1.50352e+22
-13.0794  1.52719e+22
-12.9621  1.55107e+22
-12.8448  1.57525e+22
-12.7275  1.59978e+22
-12.6102  1.62469e+22
-12.4929  1.65004e+22
-12.3756  1.67575e+22
-12.2583  1.70183e+22
-12.141  1.72817e+22
-12.0237  1.75463e+22
-11.9064  1.78105e+22
-11.7891  1.80727e+22
-11.6718  1.83306e+22
-11.5544  1.85823e+22
-11.4371  1.88264e+22
-11.3198  1.90608e+22
-11.2025  1.92848e+22
-11.0852  1.94983e+22
-10.9679  1.97012e+22
-10.8506  1.98946e+22
-10.7333  2.00799e+22
-10.616  2.0259e+22
-10.4987  2.04344e+22
-10.3814  2.06084e+22
-10.2641  2.07842e+22
-10.1468  2.09643e+22
-10.0295  2.1152e+22
-9.91217  2.13492e+22
-9.79487  2.15587e+22
-9.67756  2.17814e+22
-9.56026  2.20181e+22
-9.44295  2.22688e+22
-9.32565  2.25326e+22
-9.20834  2.28074e+22
-9.09104  2.30906e+22
-8.97373  2.33789e+22
-8.85643  2.36694e+22
-8.73913  2.39576e+22
-8.62182  2.42403e+22
-8.50452  2.45142e+22
-8.38721  2.47765e+22
-8.26991  2.50249e+22
-8.1526  2.52581e+22
-8.03529  2.54747e+22
-7.91799  2.56753e+22
-7.80069  2.5861e+22
-7.68338  2.6033e+22
-7.56608  2.6194e+22
-7.44877  2.63468e+22
-7.33146  2.64944e+22
-7.21416  2.66397e+22
-7.09685  2.6786e+22
-6.97955  2.69352e+22
-6.86224  2.70893e+22
-6.74494  2.725e+22
-6.62763  2.74171e+22
-6.51033  2.75912e+22
-6.39302  2.77716e+22
-6.27572  2.79571e+22
-6.15842  2.81463e+22
-6.04111  2.83377e+22
-5.92381  2.85288e+22
-5.8065  2.87187e+22
-5.68919  2.89048e+22
-5.57189  2.90863e+22
-5.45458  2.9262e+22
-5.33728  2.94317e+22
-5.21997  2.95947e+22
-5.10267  2.97518e+22
-4.98536  2.99029e+22
-4.86806  3.00486e+22
-4.75075  3.01893e+22
-4.63345  3.03252e+22
-4.51614  3.04563e+22
-4.39884  3.0583e+22
-4.28154  3.0705e+22
-4.16423  3.08233e+22
-4.04692  3.09374e+22
-3.92962  3.10483e+22
-3.81231  3.1156e+22
-3.69501  3.12612e+22
-3.5777  3.13636e+22
-3.4604  3.14637e+22
-3.34309  3.15608e+22
-3.22579  3.16552e+22
-3.10849  3.17467e+22
-2.99118  3.18352e+22
-2.87387  3.19211e+22
-2.75657  3.20049e+22
-2.63926  3.2087e+22
-2.52196  3.21674e+22
-2.40465  3.22461e+22
-2.28735  3.23226e+22
-2.17005  3.23954e+22
-2.05274  3.24636e+22
-1.93544  3.25251e+22
-1.81813  3.25787e+22
-1.70083  3.26229e+22
-1.58352  3.26571e+22
-1.46622  3.26806e+22
-1.34891  3.26938e+22
-1.2316  3.2697e+22
-1.1143  3.2691e+22
-0.996995  3.26767e+22
-0.87969  3.26559e+22
-0.762385  3.26301e+22
-0.64508  3.26013e+22
-0.527775  3.2572e+22
-0.41047  3.25447e+22
-0.293165  3.25217e+22
-0.17586  3.25055e+22
-0.058555  3.24979e+22
0.05875  3.24995e+22
0.176055  3.25103e+22
0.29336  3.25295e+22
0.410665  3.25552e+22
0.52797  3.25855e+22
0.645275  3.26177e+22
0.76258  3.2649e+22
0.879885  3.26773e+22
0.99719  3.27006e+22
1.1145  3.27169e+22
1.2318  3.27251e+22
1.3491  3.2724e+22
1.46641  3.27129e+22
1.58371  3.26912e+22
1.70102  3.2659e+22
1.81832  3.26166e+22
1.93563  3.25648e+22
2.05294  3.25052e+22
2.17024  3.24391e+22
2.28754  3.23681e+22
2.40485  3.2294e+22
2.52216  3.22173e+22
2.63946  3.21391e+22
2.75677  3.20594e+22
2.87407  3.19779e+22
2.99137  3.18943e+22
3.10868  3.18083e+22
3.22599  3.17193e+22
3.34329  3.16275e+22
3.4606  3.15331e+22
3.5779  3.14358e+22
3.69521  3.13358e+22
3.81251  3.12335e+22
3.92982  3.11284e+22
4.04712  3.10201e+22
4.16443  3.09085e+22
4.28173  3.07929e+22
4.39903  3.0673e+22
4.51634  3.05486e+22
4.63364  3.04197e+22
4.75095  3.02859e+22
4.86825  3.0147e+22
4.98556  3.0003e+22
5.10286  2.98536e+22
5.22017  2.96981e+22
5.33748  2.95366e+22
5.45478  2.93686e+22
5.57209  2.91943e+22
5.68939  2.90144e+22
5.8067  2.88298e+22
5.924  2.86416e+22
6.0413  2.84521e+22
6.15861  2.82628e+22
6.27591  2.80755e+22
6.39322  2.78922e+22
6.51052  2.77141e+22
6.62783  2.75421e+22
6.74514  2.73772e+22
6.86244  2.72192e+22
6.97975  2.70672e+22
7.09705  2.69202e+22
7.21436  2.67763e+22
7.33166  2.66329e+22
7.44897  2.64871e+22
7.56627  2.63362e+22
7.68358  2.61766e+22
7.80088  2.6006e+22
7.91819  2.58216e+22
8.03549  2.5622e+22
8.1528  2.54063e+22
8.2701  2.51742e+22
8.38741  2.49266e+22
8.50471  2.46652e+22
8.62202  2.43921e+22
8.73932  2.41102e+22
8.85662  2.38231e+22
8.97393  2.35339e+22
9.09123  2.32466e+22
9.20854  2.29646e+22
9.32584  2.26913e+22
9.44315  2.24288e+22
9.56045  2.21793e+22
9.67776  2.19439e+22
9.79506  2.17226e+22
9.91237  2.15142e+22
10.0297  2.13181e+22
10.147  2.11316e+22
10.2643  2.09522e+22
10.3816  2.07773e+22
10.4989  2.06037e+22
10.6162  2.04286e+22
10.7335  2.02499e+22
10.8508  2.00649e+22
10.9681  1.98713e+22
11.0854  1.96685e+22
11.2027  1.94549e+22
11.32  1.92305e+22
11.4373  1.89959e+22
11.5546  1.8752e+22
11.6719  1.85e+22
11.7893  1.8242e+22
11.9066  1.79799e+22
12.0239  1.77154e+22
12.1412  1.74508e+22
12.2585  1.71876e+22
12.3758  1.69269e+22
12.4931  1.66695e+22
12.6104  1.6416e+22
12.7277  1.61668e+22
12.845  1.59214e+22
12.9623  1.56793e+22
13.0796  1.54401e+22
13.1969  1.5203e+22
13.3142  1.49668e+22
13.4315  1.47309e+22
13.5488  1.44948e+22
13.6661  1.42573e+22
13.7834  1.40188e+22
13.9007  1.37791e+22
14.018  1.35387e+22
14.1354  1.3298e+22
14.2527  1.30579e+22
14.37  1.28195e+22
14.4873  1.25837e+22
14.6046  1.23507e+22
14.7219  1.2122e+22
14.8392  1.18977e+22
14.9565  1.16784e+22
15.0738  1.14638e+22
15.1911  1.1254e+22
15.3084  1.10487e+22
15.4257  1.08474e+22
15.543  1.06494e+22
15.6603  1.04534e+22
15.7776  1.02592e+22
15.8949  1.00657e+22
16.0122  9.87253e+21
16.1295  9.67929e+21
16.2468  9.48626e+21
16.3641  9.29333e+21
16.4815  9.10084e+21
16.5988  8.90949e+21
16.7161  8.71898e+21
16.8334  8.53017e+21
16.9507  8.34317e+21
17.068  8.15789e+21
17.1853  7.97449e+21
17.3026  7.79321e+21
17.4199  7.61453e+21
17.5372  7.43859e+21
17.6545  7.26545e+21
17.7718  7.0955e+21
17.8891  6.92876e+21
18.0064  6.76464e+21
18.1237  6.60284e+21
18.241  6.44305e+21
18.3583  6.28449e+21
18.4756  6.12727e+21
18.5929  5.97147e+21
18.7102  5.8176e+21
18.8275  5.6662e+21
18.9449  5.518e+21
19.0622  5.37369e+21
19.1795  5.23334e+21
19.2968  5.09645e+21
19.4141  4.96287e+21
19.5314  4.83156e+21
19.6487  4.70182e+21
19.766  4.5727e+21
19.8833  4.44422e+21
20.0006  4.3162e+21
20.1179  4.18937e+21
20.2352  4.06428e+21
20.3525  3.94166e+21
20.4698  3.82236e+21
20.5871  3.70671e+21
20.7044  3.59522e+21
20.8217  3.4878e+21
20.939  3.38487e+21
21.0563  3.28643e+21
21.1736  3.1927e+21
21.291  3.10423e+21
21.4083  3.02093e+21
21.5256  2.94327e+21
21.6429  2.87097e+21
21.7602  2.80344e+21
21.8775  2.73968e+21
21.9948  2.67865e+21
22.1121  2.61902e+21
22.2294  2.55971e+21
22.3467  2.49976e+21
22.464  2.43894e+21
22.5813  2.37722e+21
22.6986  2.31498e+21
22.8159  2.25283e+21
22.9332  2.19166e+21
23.0505  2.13217e+21
23.1678  2.07514e+21
23.2851  2.0212e+21
23.4024  1.97074e+21
23.5198  1.92407e+21
23.6371  1.88137e+21
23.7544  1.84244e+21
23.8717  1.80692e+21
23.989  1.77389e+21
24.1063  1.74255e+21
24.2236  1.71167e+21
24.3409  1.6801e+21
24.4582  1.6466e+21
24.5755  1.61072e+21
24.6928  1.57193e+21
24.8101  1.53065e+21
24.9274  1.48754e+21
25.0447  1.44382e+21
25.162  1.40091e+21
25.2793  1.36017e+21
25.3966  1.32317e+21
25.5139  1.29085e+21
25.6312  1.26436e+21
25.7485  1.24428e+21
25.8658  1.23088e+21
25.9832  1.22427e+21
26.1005  1.22374e+21
26.2178  1.2286e+21
26.3351  1.23735e+21
26.4524  1.24817e+21
26.5697  1.25886e+21
26.687  1.26722e+21
26.8043  1.27084e+21
26.9216  1.26808e+21
27.0389  1.25757e+21
27.1562  1.23909e+21
27.2735  1.21287e+21
27.3908  1.18018e+21
27.5081  1.14276e+21
27.6254  1.10276e+21
27.7427  1.06256e+21
27.86  1.02438e+21
27.9773  9.90217e+20
28.0946  9.61592e+20
28.212  9.3968e+20
28.3293  9.25254e+20
28.4466  9.1829e+20
28.5639  9.18556e+20
28.6812  9.25148e+20
28.7985  9.36864e+20
28.9158  9.52153e+20
29.0331  9.6923e+20
29.1504  9.86139e+20
29.2677  1.00133e+21
29.385  1.01322e+21
29.5023  1.02082e+21
29.6196  1.02362e+21
29.7369  1.02174e+21
29.8542  1.01564e+21
29.9715  1.00614e+21
30.0888  9.94465e+20
30.2061  9.81612e+20
30.3234  9.6874e+20
30.4407  9.56813e+20
30.558  9.46503e+20
30.6754  9.382e+20
30.7927  9.31778e+20
30.91  9.271e+20
31.0273  9.23475e+20
31.1446  9.20166e+20
31.2619  9.16257e+20
31.3792  9.11012e+20
31.4965  9.03576e+20
31.6138  8.93554e+20
31.7311  8.80748e+20
31.8484  8.65438e+20
31.9657  8.4789e+20
32.083  8.28899e+20
32.2003  8.09263e+20
32.3176  7.89861e+20
32.4349  7.71508e+20
32.5522  7.55063e+20
32.6695  7.41019e+20
32.7868  7.29758e+20
32.9042  7.21457e+20
33.0215  7.16154e+20
33.1388  7.13467e+20
33.2561  7.12827e+20
33.3734  7.13468e+20
33.4907  7.14501e+20
33.608  7.14905e+20
33.7253  7.13757e+20
33.8426  7.10187e+20
33.9599  7.03819e+20
34.0772  6.94391e+20
34.1945  6.82184e+20
34.3118  6.67792e+20
34.4291  6.52194e+20
34.5464  6.36404e+20
34.6637  6.21523e+20
34.781  6.0867e+20
34.8983  5.98613e+20
35.0156  5.91958e+20
35.1329  5.89125e+20
35.2503  5.90095e+20
35.3676  5.94587e+20
35.4849  6.01925e+20
35.6022  6.11299e+20
35.7195  6.21562e+20
35.8368  6.31547e+20
35.9541  6.3985e+20
36.0714  6.45437e+20
36.1887  6.47255e+20
36.306  6.44606e+20
36.4233  6.37315e+20
36.5406  6.25569e+20
36.6579  6.09844e+20
36.7752  5.9097e+20
36.8925  5.69968e+20
37.0098  5.48014e+20
37.1271  5.26073e+20
37.2444  5.05291e+20
37.3617  4.86468e+20
37.479  4.70338e+20
37.5964  4.57448e+20
37.7137  4.48238e+20
37.831  4.42881e+20
37.9483  4.41139e+20
38.0656  4.42699e+20
38.1829  4.46897e+20
38.3002  4.52852e+20
38.4175  4.59532e+20
38.5348  4.65961e+20
38.6521  4.71302e+20
38.7694  4.74932e+20
38.8867  4.767e+20
39.004  4.76683e+20
39.1213  4.75301e+20
39.2386  4.73045e+20
39.3559  4.70497e+20
39.4732  4.68194e+20
39.5905  4.66286e+20
39.7078  4.64822e+20
39.8251  4.63789e+20
39.9425  4.6291e+20
40.0598  4.61975e+20
40.1771  4.60735e+20
40.2944  4.59062e+20
40.4117  4.56847e+20
40.529  4.54071e+20
40.6463  4.50394e+20
40.7636  4.45705e+20
40.8809  4.39769e+20
40.9982  4.32185e+20
41.1155  4.22887e+20
41.2328  4.11933e+20
41.3501  3.9961e+20
41.4674  3.86404e+20
41.5847  3.73011e+20
41.702  3.60335e+20
41.8193  3.49069e+20
41.9366  3.39966e+20
42.0539  3.33375e+20
42.1712  3.29555e+20
42.2885  3.28443e+20
42.4059  3.30005e+20
42.5232  3.3406e+20
42.6405  3.40302e+20
42.7578  3.48569e+20
42.8751  3.58521e+20
42.9924  3.69869e+20
43.1097  3.81942e+20
43.227  3.94059e+20
43.3443  4.05358e+20
43.4616  4.14842e+20
43.5789  4.21794e+20
43.6962  4.25506e+20
43.8135  4.25713e+20
43.9308  4.22391e+20
44.0481  4.15983e+20
44.1654  4.07299e+20
44.2827  3.96957e+20
44.4  3.85782e+20
44.5173  3.74539e+20
44.6347  3.6371e+20
44.752  3.53653e+20
44.8693  3.44613e+20
44.9866  3.36747e+20
45.1039  3.3024e+20
45.2212  3.25278e+20
45.3385  3.2196e+20
45.4558  3.20491e+20
45.5731  3.20991e+20
45.6904  3.23347e+20
45.8077  3.27376e+20
45.925  3.32813e+20
46.0423  3.39232e+20
46.1596  3.46073e+20
46.2769  3.52831e+20
46.3942  3.59047e+20
46.5115  3.6427e+20
46.6288  3.68081e+20
46.7461  3.70167e+20
46.8634  3.70325e+20
46.9808  3.68315e+20
47.0981  3.64261e+20
47.2154  3.58344e+20
47.3327  3.50902e+20
47.45  3.42508e+20
47.5673  3.33744e+20
47.6846  3.25481e+20
47.8019  3.18244e+20
47.9192  3.12555e+20
48.0365  3.0875e+20
48.1538  3.0683e+20
48.2711  3.06706e+20
48.3884  3.08034e+20
48.5057  3.10387e+20
48.623  3.13258e+20
48.7403  3.16141e+20
48.8576  3.18702e+20
48.9749  3.20281e+20
49.0922  3.20433e+20
49.2095  3.18687e+20
49.3269  3.14724e+20
49.4442  3.08224e+20
49.5615  2.99205e+20
49.6788  2.8784e+20
49.7961  2.74689e+20
49.9134  2.60366e+20
50.0307  2.45833e+20
50.148  2.32087e+20
50.2653  2.19948e+20
50.3826  2.10163e+20
50.4999  2.03184e+20
50.6172  1.99233e+20
50.7345  1.98244e+20
50.8518  1.99935e+20
