#S 1 spectral density
#N 2
#UFWHM 43.8721
#L  abscissas [um]  spectral density
-58.5938  4.38592e+20
-58.4764  4.25763e+20
-58.3591  4.13639e+20
-58.2418  4.03301e+20
-58.1245  3.95269e+20
-58.0072  3.89628e+20
-57.8899  3.8615e+20
-57.7726  3.84458e+20
-57.6553  3.84057e+20
-57.538  3.84362e+20
-57.4207  3.85044e+20
-57.3034  3.85752e+20
-57.1861  3.86371e+20
-57.0688  3.86595e+20
-56.9515  3.86444e+20
-56.8342  3.85912e+20
-56.7169  3.85044e+20
-56.5996  3.84313e+20
-56.4823  3.84091e+20
-56.365  3.85077e+20
-56.2477  3.88086e+20
-56.1303  3.93765e+20
-56.013  4.02632e+20
-55.8957  4.14736e+20
-55.7784  4.29912e+20
-55.6611  4.4732e+20
-55.5438  4.65767e+20
-55.4265  4.84031e+20
-55.3092  5.00626e+20
-55.1919  5.14234e+20
-55.0746  5.23951e+20
-54.9573  5.29221e+20
-54.84  5.30089e+20
-54.7227  5.26929e+20
-54.6054  5.20561e+20
-54.4881  5.12096e+20
-54.3708  5.02835e+20
-54.2535  4.94056e+20
-54.1362  4.86756e+20
-54.0189  4.81861e+20
-53.9016  4.79815e+20
-53.7842  4.80888e+20
-53.6669  4.8461e+20
-53.5496  4.90466e+20
-53.4323  4.97779e+20
-53.315  5.05458e+20
-53.1977  5.12667e+20
-53.0804  5.18676e+20
-52.9631  5.23035e+20
-52.8458  5.25333e+20
-52.7285  5.25891e+20
-52.6112  5.24961e+20
-52.4939  5.23378e+20
-52.3766  5.21791e+20
-52.2593  5.21149e+20
-52.142  5.22282e+20
-52.0247  5.25582e+20
-51.9074  5.31509e+20
-51.7901  5.39838e+20
-51.6728  5.49945e+20
-51.5555  5.60973e+20
-51.4381  5.71642e+20
-51.3208  5.80547e+20
-51.2035  5.8615e+20
-51.0862  5.87422e+20
-50.9689  5.83632e+20
-50.8516  5.74671e+20
-50.7343  5.61262e+20
-50.617  5.44575e+20
-50.4997  5.26275e+20
-50.3824  5.08431e+20
-50.2651  4.9306e+20
-50.1478  4.81912e+20
-50.0305  4.7641e+20
-49.9132  4.7732e+20
-49.7959  4.84912e+20
-49.6786  4.98922e+20
-49.5613  5.18498e+20
-49.444  5.42264e+20
-49.3267  5.68681e+20
-49.2094  5.95897e+20
-49.092  6.22095e+20
-48.9747  6.45334e+20
-48.8574  6.63836e+20
-48.7401  6.76624e+20
-48.6228  6.82769e+20
-48.5055  6.8227e+20
-48.3882  6.76007e+20
-48.2709  6.65248e+20
-48.1536  6.51806e+20
-48.0363  6.37972e+20
-47.919  6.25707e+20
-47.8017  6.16839e+20
-47.6844  6.12637e+20
-47.5671  6.13549e+20
-47.4498  6.19514e+20
-47.3325  6.2967e+20
-47.2152  6.42827e+20
-47.0979  6.57474e+20
-46.9806  6.71955e+20
-46.8633  6.84904e+20
-46.7459  6.9533e+20
-46.6286  7.02554e+20
-46.5113  7.0642e+20
-46.394  7.07098e+20
-46.2767  7.05432e+20
-46.1594  7.02472e+20
-46.0421  6.99352e+20
-45.9248  6.97271e+20
-45.8075  6.9726e+20
-45.6902  7e+20
-45.5729  7.05722e+20
-45.4556  7.14095e+20
-45.3383  7.24504e+20
-45.221  7.35982e+20
-45.1037  7.47634e+20
-44.9864  7.58755e+20
-44.8691  7.6883e+20
-44.7518  7.77809e+20
-44.6345  7.85993e+20
-44.5172  7.94197e+20
-44.3998  8.02982e+20
-44.2825  8.13144e+20
-44.1652  8.24862e+20
-44.0479  8.38247e+20
-43.9306  8.53008e+20
-43.8133  8.6845e+20
-43.696  8.83998e+20
-43.5787  8.98891e+20
-43.4614  9.12604e+20
-43.3441  9.2474e+20
-43.2268  9.35069e+20
-43.1095  9.43419e+20
-42.9922  9.49895e+20
-42.8749  9.54327e+20
-42.7576  9.56854e+20
-42.6403  9.57763e+20
-42.523  9.57312e+20
-42.4057  9.56096e+20
-42.2884  9.54742e+20
-42.171  9.54003e+20
-42.0537  9.54921e+20
-41.9364  9.57927e+20
-41.8191  9.63617e+20
-41.7018  9.71801e+20
-41.5845  9.82304e+20
-41.4672  9.9454e+20
-41.3499  1.00761e+21
-41.2326  1.02073e+21
-41.1153  1.03323e+21
-40.998  1.04462e+21
-40.8807  1.05479e+21
-40.7634  1.06374e+21
-40.6461  1.07192e+21
-40.5288  1.07974e+21
-40.4115  1.08811e+21
-40.2942  1.09795e+21
-40.1769  1.11029e+21
-40.0596  1.12634e+21
-39.9423  1.14731e+21
-39.825  1.17456e+21
-39.7076  1.2088e+21
-39.5903  1.25058e+21
-39.473  1.2996e+21
-39.3557  1.35466e+21
-39.2384  1.41408e+21
-39.1211  1.47507e+21
-39.0038  1.53467e+21
-38.8865  1.58989e+21
-38.7692  1.6383e+21
-38.6519  1.678e+21
-38.5346  1.70843e+21
-38.4173  1.73003e+21
-38.3  1.74455e+21
-38.1827  1.75434e+21
-38.0654  1.76242e+21
-37.9481  1.7721e+21
-37.8308  1.78621e+21
-37.7135  1.80712e+21
-37.5962  1.83616e+21
-37.4789  1.87396e+21
-37.3615  1.92008e+21
-37.2442  1.97289e+21
-37.1269  2.03027e+21
-37.0096  2.08928e+21
-36.8923  2.1468e+21
-36.775  2.19952e+21
-36.6577  2.24451e+21
-36.5404  2.27929e+21
-36.4231  2.30231e+21
-36.3058  2.31298e+21
-36.1885  2.31174e+21
-36.0712  2.30009e+21
-35.9539  2.28043e+21
-35.8366  2.25541e+21
-35.7193  2.22849e+21
-35.602  2.20272e+21
-35.4847  2.18082e+21
-35.3674  2.16509e+21
-35.2501  2.15722e+21
-35.1328  2.15811e+21
-35.0154  2.16812e+21
-34.8981  2.18696e+21
-34.7808  2.21411e+21
-34.6635  2.24861e+21
-34.5462  2.28959e+21
-34.4289  2.33598e+21
-34.3116  2.38709e+21
-34.1943  2.44237e+21
-34.077  2.5019e+21
-33.9597  2.56602e+21
-33.8424  2.63547e+21
-33.7251  2.71109e+21
-33.6078  2.79394e+21
-33.4905  2.88465e+21
-33.3732  2.98332e+21
-33.2559  3.08974e+21
-33.1386  3.20252e+21
-33.0213  3.31961e+21
-32.904  3.43809e+21
-32.7867  3.55503e+21
-32.6693  3.66676e+21
-32.552  3.77007e+21
-32.4347  3.86203e+21
-32.3174  3.94059e+21
-32.2001  4.00438e+21
-32.0828  4.05313e+21
-31.9655  4.08748e+21
-31.8482  4.10914e+21
-31.7309  4.1203e+21
-31.6136  4.12391e+21
-31.4963  4.12284e+21
-31.379  4.12038e+21
-31.2617  4.11926e+21
-31.1444  4.12144e+21
-31.0271  4.12892e+21
-30.9098  4.14231e+21
-30.7925  4.16178e+21
-30.6752  4.18687e+21
-30.5579  4.21701e+21
-30.4406  4.25081e+21
-30.3232  4.28765e+21
-30.2059  4.32659e+21
-30.0886  4.36727e+21
-29.9713  4.40956e+21
-29.854  4.45404e+21
-29.7367  4.50116e+21
-29.6194  4.55193e+21
-29.5021  4.60707e+21
-29.3848  4.66763e+21
-29.2675  4.7345e+21
-29.1502  4.80771e+21
-29.0329  4.88691e+21
-28.9156  4.97148e+21
-28.7983  5.05993e+21
-28.681  5.15024e+21
-28.5637  5.24039e+21
-28.4464  5.3282e+21
-28.3291  5.41158e+21
-28.2118  5.48911e+21
-28.0944  5.56075e+21
-27.9771  5.62646e+21
-27.8598  5.68794e+21
-27.7425  5.74739e+21
-27.6252  5.80782e+21
-27.5079  5.8723e+21
-27.3906  5.94391e+21
-27.2733  6.02559e+21
-27.156  6.11967e+21
-27.0387  6.22699e+21
-26.9214  6.34814e+21
-26.8041  6.48155e+21
-26.6868  6.62537e+21
-26.5695  6.77576e+21
-26.4522  6.92808e+21
-26.3349  7.07702e+21
-26.2176  7.2166e+21
-26.1003  7.34133e+21
-25.983  7.44632e+21
-25.8657  7.5283e+21
-25.7483  7.5852e+21
-25.631  7.61793e+21
-25.5137  7.62877e+21
-25.3964  7.62186e+21
-25.2791  7.60251e+21
-25.1618  7.57727e+21
-25.0445  7.55193e+21
-24.9272  7.53221e+21
-24.8099  7.52238e+21
-24.6926  7.52568e+21
-24.5753  7.54446e+21
-24.458  7.57881e+21
-24.3407  7.6279e+21
-24.2234  7.69052e+21
-24.1061  7.76412e+21
-23.9888  7.84603e+21
-23.8715  7.93344e+21
-23.7542  8.02385e+21
-23.6369  8.11474e+21
-23.5196  8.2046e+21
-23.4023  8.29319e+21
-23.2849  8.38013e+21
-23.1676  8.46645e+21
-23.0503  8.55379e+21
-22.933  8.64376e+21
-22.8157  8.73814e+21
-22.6984  8.83814e+21
-22.5811  8.94477e+21
-22.4638  9.05863e+21
-22.3465  9.17862e+21
-22.2292  9.30456e+21
-22.1119  9.43446e+21
-21.9946  9.56725e+21
-21.8773  9.70041e+21
-21.76  9.83203e+21
-21.6427  9.95971e+21
-21.5254  1.0081e+22
-21.4081  1.01936e+22
-21.2908  1.02956e+22
-21.1735  1.03857e+22
-21.0561  1.04633e+22
-20.9388  1.05293e+22
-20.8215  1.05857e+22
-20.7042  1.06346e+22
-20.5869  1.06789e+22
-20.4696  1.07221e+22
-20.3523  1.07664e+22
-20.235  1.08137e+22
-20.1177  1.08642e+22
-20.0004  1.09179e+22
-19.8831  1.09742e+22
-19.7658  1.1031e+22
-19.6485  1.10871e+22
-19.5312  1.11417e+22
-19.4139  1.11944e+22
-19.2966  1.12452e+22
-19.1793  1.12952e+22
-19.062  1.13457e+22
-18.9447  1.13979e+22
-18.8274  1.14534e+22
-18.71  1.1514e+22
-18.5927  1.15802e+22
-18.4754  1.16529e+22
-18.3581  1.17329e+22
-18.2408  1.18195e+22
-18.1235  1.19125e+22
-18.0062  1.20106e+22
-17.8889  1.2112e+22
-17.7716  1.22149e+22
-17.6543  1.23161e+22
-17.537  1.24138e+22
-17.4197  1.25052e+22
-17.3024  1.25894e+22
-17.1851  1.26656e+22
-17.0678  1.27342e+22
-16.9505  1.27971e+22
-16.8332  1.28568e+22
-16.7159  1.29163e+22
-16.5986  1.29784e+22
-16.4813  1.30458e+22
-16.364  1.31208e+22
-16.2466  1.32047e+22
-16.1293  1.32985e+22
-16.012  1.34006e+22
-15.8947  1.35102e+22
-15.7774  1.36254e+22
-15.6601  1.37435e+22
-15.5428  1.38621e+22
-15.4255  1.39778e+22
-15.3082  1.40878e+22
-15.1909  1.41903e+22
-15.0736  1.42826e+22
-14.9563  1.43636e+22
-14.839  1.4433e+22
-14.7217  1.44915e+22
-14.6044  1.454e+22
-14.4871  1.45809e+22
-14.3698  1.46168e+22
-14.2525  1.46506e+22
-14.1352  1.4685e+22
-14.0178  1.47233e+22
-13.9005  1.47673e+22
-13.7832  1.48182e+22
-13.6659  1.48775e+22
-13.5486  1.49444e+22
-13.4313  1.50185e+22
-13.314  1.50981e+22
-13.1967  1.51814e+22
-13.0794  1.52666e+22
-12.9621  1.53508e+22
-12.8448  1.54327e+22
-12.7275  1.55101e+22
-12.6102  1.55823e+22
-12.4929  1.56486e+22
-12.3756  1.57089e+22
-12.2583  1.57641e+22
-12.141  1.58153e+22
-12.0237  1.58637e+22
-11.9064  1.59101e+22
-11.7891  1.59553e+22
-11.6718  1.60002e+22
-11.5544  1.6045e+22
-11.4371  1.60907e+22
-11.3198  1.61361e+22
-11.2025  1.61821e+22
-11.0852  1.6228e+22
-10.9679  1.62743e+22
-10.8506  1.63211e+22
-10.7333  1.63683e+22
-10.616  1.64159e+22
-10.4987  1.64649e+22
-10.3814  1.65143e+22
-10.2641  1.65649e+22
-10.1468  1.66163e+22
-10.0295  1.66687e+22
-9.91217  1.67213e+22
-9.79487  1.67742e+22
-9.67756  1.68264e+22
-9.56026  1.68776e+22
-9.44295  1.69261e+22
-9.32565  1.69718e+22
-9.20834  1.70133e+22
-9.09104  1.70498e+22
-8.97373  1.70816e+22
-8.85643  1.71083e+22
-8.73913  1.71309e+22
-8.62182  1.71503e+22
-8.50452  1.71683e+22
-8.38721  1.71874e+22
-8.26991  1.72091e+22
-8.1526  1.72364e+22
-8.03529  1.72708e+22
-7.91799  1.7314e+22
-7.80069  1.73667e+22
-7.68338  1.74291e+22
-7.56608  1.75008e+22
-7.44877  1.75804e+22
-7.33146  1.76658e+22
-7.21416  1.77539e+22
-7.09685  1.78413e+22
-6.97955  1.79247e+22
-6.86224  1.80006e+22
-6.74494  1.80671e+22
-6.62763  1.81211e+22
-6.51033  1.81628e+22
-6.39302  1.8192e+22
-6.27572  1.82106e+22
-6.15842  1.82208e+22
-6.04111  1.82257e+22
-5.92381  1.82281e+22
-5.8065  1.82324e+22
-5.68919  1.82401e+22
-5.57189  1.82544e+22
-5.45458  1.82763e+22
-5.33728  1.83067e+22
-5.21997  1.83449e+22
-5.10267  1.83899e+22
-4.98536  1.84395e+22
-4.86806  1.84912e+22
-4.75075  1.85419e+22
-4.63345  1.85888e+22
-4.51614  1.86295e+22
-4.39884  1.86618e+22
-4.28154  1.86855e+22
-4.16423  1.87002e+22
-4.04692  1.87075e+22
-3.92962  1.87093e+22
-3.81231  1.87081e+22
-3.69501  1.87071e+22
-3.5777  1.87081e+22
-3.4604  1.87143e+22
-3.34309  1.87267e+22
-3.22579  1.87462e+22
-3.10849  1.87731e+22
-2.99118  1.88067e+22
-2.87387  1.88467e+22
-2.75657  1.88913e+22
-2.63926  1.89389e+22
-2.52196  1.89868e+22
-2.40465  1.90323e+22
-2.28735  1.9072e+22
-2.17005  1.91028e+22
-2.05274  1.91227e+22
-1.93544  1.91286e+22
-1.81813  1.91205e+22
-1.70083  1.9098e+22
-1.58352  1.90633e+22
-1.46622  1.90185e+22
-1.34891  1.89675e+22
-1.2316  1.89132e+22
-1.1143  1.88595e+22
-0.996995  1.88082e+22
-0.87969  1.87621e+22
-0.762385  1.87215e+22
-0.64508  1.86876e+22
-0.527775  1.86598e+22
-0.41047  1.86382e+22
-0.293165  1.86222e+22
-0.17586  1.86116e+22
-0.058555  1.86065e+22
0.05875  1.86064e+22
0.176055  1.86115e+22
0.29336  1.86217e+22
0.410665  1.86375e+22
0.52797  1.86588e+22
0.645275  1.8686e+22
0.76258  1.87193e+22
0.879885  1.87589e+22
0.99719  1.88042e+22
1.1145  1.8854e+22
1.2318  1.89067e+22
1.3491  1.89597e+22
1.46641  1.90094e+22
1.58371  1.90526e+22
1.70102  1.90857e+22
1.81832  1.91067e+22
1.93563  1.91136e+22
2.05294  1.91062e+22
2.17024  1.90856e+22
2.28754  1.90539e+22
2.40485  1.90135e+22
2.52216  1.89674e+22
2.63946  1.89193e+22
2.75677  1.88714e+22
2.87407  1.88265e+22
2.99137  1.87862e+22
3.10868  1.87521e+22
3.22599  1.87246e+22
3.34329  1.87048e+22
3.4606  1.86921e+22
3.5779  1.86855e+22
3.69521  1.86833e+22
3.81251  1.86838e+22
3.92982  1.86839e+22
4.04712  1.86813e+22
4.16443  1.86732e+22
4.28173  1.86575e+22
4.39903  1.86329e+22
4.51634  1.85995e+22
4.63364  1.85583e+22
4.75095  1.85105e+22
4.86825  1.8459e+22
4.98556  1.84067e+22
5.10286  1.83566e+22
5.22017  1.83111e+22
5.33748  1.82722e+22
5.45478  1.82412e+22
5.57209  1.82188e+22
5.68939  1.82036e+22
5.8067  1.81949e+22
5.924  1.81901e+22
6.0413  1.81866e+22
6.15861  1.81806e+22
6.27591  1.81694e+22
6.39322  1.81495e+22
6.51052  1.81191e+22
6.62783  1.80762e+22
6.74514  1.80208e+22
6.86244  1.79537e+22
6.97975  1.78768e+22
7.09705  1.77927e+22
7.21436  1.77045e+22
7.33166  1.7616e+22
7.44897  1.75303e+22
7.56627  1.74504e+22
7.68358  1.73784e+22
7.80088  1.73155e+22
7.91819  1.72622e+22
8.03549  1.72189e+22
8.1528  1.71844e+22
8.2701  1.71565e+22
8.38741  1.71338e+22
8.50471  1.71142e+22
8.62202  1.7095e+22
8.73932  1.70746e+22
8.85662  1.70512e+22
8.97393  1.70235e+22
9.09123  1.69906e+22
9.20854  1.69528e+22
9.32584  1.69105e+22
9.44315  1.68638e+22
9.56045  1.68141e+22
9.67776  1.67624e+22
9.79506  1.67093e+22
9.91237  1.66559e+22
10.0297  1.66025e+22
10.147  1.65499e+22
10.2643  1.64983e+22
10.3816  1.64473e+22
10.4989  1.63976e+22
10.6162  1.63486e+22
10.7335  1.63007e+22
10.8508  1.62532e+22
10.9681  1.62062e+22
11.0854  1.61598e+22
11.2027  1.61133e+22
11.32  1.60669e+22
11.4373  1.60206e+22
11.5546  1.59746e+22
11.6719  1.59289e+22
11.7893  1.58833e+22
11.9066  1.58372e+22
12.0239  1.579e+22
12.1412  1.57409e+22
12.2585  1.56888e+22
12.3758  1.56326e+22
12.4931  1.55713e+22
12.6104  1.5504e+22
12.7277  1.54313e+22
12.845  1.53534e+22
12.9623  1.52708e+22
13.0796  1.51859e+22
13.1969  1.51005e+22
13.3142  1.50167e+22
13.4315  1.49366e+22
13.5488  1.48624e+22
13.6661  1.47952e+22
13.7834  1.47356e+22
13.9007  1.46841e+22
14.018  1.464e+22
14.1354  1.46013e+22
14.2527  1.4566e+22
14.37  1.45318e+22
14.4873  1.44951e+22
14.6046  1.44536e+22
14.7219  1.44042e+22
14.8392  1.43453e+22
14.9565  1.42754e+22
15.0738  1.41935e+22
15.1911  1.41009e+22
15.3084  1.39981e+22
15.4257  1.38876e+22
15.543  1.37715e+22
15.6603  1.36529e+22
15.7776  1.35348e+22
15.8949  1.34196e+22
16.0122  1.33095e+22
16.1295  1.32071e+22
16.2468  1.31135e+22
16.3641  1.30293e+22
16.4815  1.2954e+22
16.5988  1.28863e+22
16.7161  1.28237e+22
16.8334  1.2764e+22
16.9507  1.27037e+22
17.068  1.26402e+22
17.1853  1.25709e+22
17.3026  1.24941e+22
17.4199  1.24096e+22
17.5372  1.23178e+22
17.6545  1.22196e+22
17.7718  1.21181e+22
17.8891  1.20153e+22
18.0064  1.19138e+22
18.1237  1.18156e+22
18.241  1.1723e+22
18.3583  1.16364e+22
18.4756  1.15567e+22
18.5929  1.1484e+22
18.7102  1.14182e+22
18.8275  1.13578e+22
18.9449  1.13022e+22
19.0622  1.125e+22
19.1795  1.11993e+22
19.2968  1.11492e+22
19.4141  1.10981e+22
19.5314  1.10453e+22
19.6487  1.09905e+22
19.766  1.09338e+22
19.8833  1.08769e+22
20.0006  1.08204e+22
20.1179  1.07661e+22
20.2352  1.07152e+22
20.3525  1.06676e+22
20.4698  1.06232e+22
20.5871  1.05799e+22
20.7044  1.05348e+22
20.8217  1.04855e+22
20.939  1.04288e+22
21.0563  1.03622e+22
21.1736  1.02843e+22
21.291  1.01942e+22
21.4083  1.00919e+22
21.5256  9.97947e+21
21.6429  9.85828e+21
21.7602  9.73089e+21
21.8775  9.59957e+21
21.9948  9.46674e+21
22.1121  9.33456e+21
22.2294  9.20516e+21
22.3467  9.07964e+21
22.464  8.96011e+21
22.5813  8.847e+21
22.6986  8.74077e+21
22.8159  8.64105e+21
22.9332  8.54735e+21
23.0505  8.45775e+21
23.1678  8.37087e+21
23.2851  8.2849e+21
23.4024  8.19854e+21
23.5198  8.11045e+21
23.6371  8.0209e+21
23.7544  7.93046e+21
23.8717  7.84047e+21
23.989  7.75355e+21
24.1063  7.67212e+21
24.2236  7.59898e+21
24.3409  7.53698e+21
24.4582  7.48809e+21
24.5755  7.45436e+21
24.6928  7.4359e+21
24.8101  7.43252e+21
24.9274  7.44233e+21
25.0447  7.46189e+21
25.162  7.48716e+21
25.2793  7.51226e+21
25.3966  7.5309e+21
25.5139  7.53723e+21
25.6312  7.52582e+21
25.7485  7.4924e+21
25.8658  7.4349e+21
25.9832  7.35277e+21
26.1005  7.24729e+21
26.2178  7.12264e+21
26.3351  6.98325e+21
26.4524  6.8348e+21
26.5697  6.683e+21
26.687  6.53343e+21
26.8043  6.39054e+21
26.9216  6.25801e+21
27.0389  6.13792e+21
27.1562  6.03165e+21
27.2735  5.93873e+21
27.3908  5.8579e+21
27.5081  5.7871e+21
27.6254  5.72357e+21
27.7427  5.6639e+21
27.86  5.60511e+21
27.9773  5.54432e+21
28.0946  5.47921e+21
28.212  5.40819e+21
28.3293  5.33108e+21
28.4466  5.24831e+21
28.5639  5.16102e+21
28.6812  5.07141e+21
28.7985  4.98162e+21
28.9158  4.89374e+21
29.0331  4.80986e+21
29.1504  4.73116e+21
29.2677  4.65872e+21
29.385  4.59252e+21
29.5023  4.53241e+21
29.6196  4.47783e+21
29.7369  4.4276e+21
29.8542  4.38125e+21
29.9715  4.33754e+21
30.0888  4.29578e+21
30.2061  4.25574e+21
30.3234  4.21738e+21
30.4407  4.18112e+21
30.558  4.1479e+21
30.6754  4.11847e+21
30.7927  4.09376e+21
30.91  4.07477e+21
31.0273  4.06185e+21
31.1446  4.05473e+21
31.2619  4.05262e+21
31.3792  4.05407e+21
31.4965  4.05663e+21
31.6138  4.05769e+21
31.7311  4.05415e+21
31.8484  4.04312e+21
31.9657  4.02158e+21
32.083  3.98733e+21
32.2003  3.93878e+21
32.3176  3.87535e+21
32.4349  3.79728e+21
32.5522  3.70591e+21
32.6695  3.60346e+21
32.7868  3.49265e+21
32.9042  3.37671e+21
33.0215  3.25926e+21
33.1388  3.14342e+21
33.2561  3.03183e+21
33.3734  2.92653e+21
33.4907  2.82897e+21
33.608  2.73939e+21
33.7253  2.65763e+21
33.8426  2.58297e+21
33.9599  2.51453e+21
34.0772  2.45132e+21
34.1945  2.39268e+21
34.3118  2.33823e+21
34.4291  2.28798e+21
34.5464  2.24251e+21
34.6637  2.20248e+21
34.781  2.16879e+21
34.8983  2.1425e+21
35.0156  2.12433e+21
35.1329  2.11497e+21
35.2503  2.1147e+21
35.3676  2.12304e+21
35.4849  2.1391e+21
35.6022  2.1613e+21
35.7195  2.1873e+21
35.8368  2.21425e+21
35.9541  2.23918e+21
36.0714  2.25892e+21
36.1887  2.27048e+21
36.306  2.27172e+21
36.4233  2.26111e+21
36.5406  2.23835e+21
36.6579  2.20381e+21
36.7752  2.1593e+21
36.8925  2.10708e+21
37.0098  2.05018e+21
37.1271  1.99194e+21
37.2444  1.93539e+21
37.3617  1.88345e+21
37.479  1.83832e+21
37.5964  1.80124e+21
37.7137  1.77295e+21
37.831  1.75273e+21
37.9483  1.73924e+21
38.0656  1.72989e+21
38.1829  1.72212e+21
38.3002  1.71261e+21
38.4175  1.69832e+21
38.5348  1.67691e+21
38.6521  1.64664e+21
38.7694  1.60721e+21
38.8867  1.55926e+21
39.004  1.50451e+21
39.1213  1.44557e+21
39.2386  1.38534e+21
39.3559  1.3269e+21
39.4732  1.27271e+21
39.5905  1.22469e+21
39.7078  1.18382e+21
39.8251  1.15042e+21
39.9425  1.12403e+21
40.0598  1.10362e+21
40.1771  1.08818e+21
40.2944  1.07642e+21
40.4117  1.06706e+21
40.529  1.05905e+21
40.6463  1.05157e+21
40.7636  1.04379e+21
40.8809  1.03513e+21
40.9982  1.02537e+21
41.1155  1.01428e+21
41.2328  1.0022e+21
41.3501  9.89368e+20
41.4674  9.76781e+20
41.5847  9.64972e+20
41.702  9.54774e+20
41.8193  9.46975e+20
41.9366  9.4169e+20
42.0539  9.39024e+20
42.1712  9.38527e+20
42.2885  9.39455e+20
42.4059  9.41142e+20
42.5232  9.42575e+20
42.6405  9.43322e+20
42.7578  9.42585e+20
42.8751  9.40264e+20
42.9924  9.36067e+20
43.1097  9.29915e+20
43.227  9.2181e+20
43.3443  9.11719e+20
43.4616  8.99858e+20
43.5789  8.86402e+20
43.6962  8.71774e+20
43.8135  8.56543e+20
43.9308  8.41346e+20
44.0481  8.26975e+20
44.1654  8.13859e+20
44.2827  8.02428e+20
44.4  7.92631e+20
44.5173  7.84089e+20
44.6347  7.76224e+20
44.752  7.68115e+20
44.8693  7.59369e+20
44.9866  7.49634e+20
45.1039  7.3872e+20
45.2212  7.27277e+20
45.3385  7.16072e+20
45.4558  7.05954e+20
45.5731  6.97862e+20
45.6904  6.92537e+20
45.8077  6.90084e+20
45.925  6.90391e+20
46.0423  6.92646e+20
46.1596  6.96013e+20
46.2769  6.99191e+20
46.3942  7.00912e+20
46.5115  7.00325e+20
46.6288  6.96501e+20
46.7461  6.89366e+20
46.8634  6.79041e+20
46.9808  6.66183e+20
47.0981  6.51907e+20
47.2154  6.37465e+20
47.3327  6.24624e+20
47.45  6.1474e+20
47.5673  6.09083e+20
47.6846  6.08499e+20
47.8019  6.12999e+20
47.9192  6.22088e+20
48.0365  6.3452e+20
48.1538  6.48499e+20
48.2711  6.61903e+20
48.3884  6.72591e+20
48.5057  6.78762e+20
48.623  6.79055e+20
48.7403  6.72786e+20
48.8576  6.59849e+20
48.9749  6.41125e+20
49.0922  6.17894e+20
49.2095  5.9175e+20
49.3269  5.64664e+20
49.4442  5.38334e+20
49.5615  5.14793e+20
49.6788  4.95617e+20
49.7961  4.81913e+20
49.9134  4.74596e+20
50.0307  4.74029e+20
50.148  4.79822e+20
50.2653  4.91174e+20
50.3826  5.06762e+20
50.4999  5.24689e+20
50.6172  5.42961e+20
50.7345  5.5965e+20
50.8518  5.72934e+20
