#S 1 spectral density
#N 2
#UFWHM 9.2671
#L  abscissas [um]  spectral density
-58.5938  2.61281e+19
-58.4764  2.8105e+19
-58.3591  2.99468e+19
-58.2418  3.14454e+19
-58.1245  3.24125e+19
-58.0072  3.26781e+19
-57.8899  3.22157e+19
-57.7726  3.11274e+19
-57.6553  2.96773e+19
-57.538  2.8236e+19
-57.4207  2.728e+19
-57.3034  2.71772e+19
-57.1861  2.82245e+19
-57.0688  3.05177e+19
-56.9515  3.40246e+19
-56.8342  3.84456e+19
-56.7169  4.34808e+19
-56.5996  4.87458e+19
-56.4823  5.39393e+19
-56.365  5.89412e+19
-56.2477  6.37035e+19
-56.1303  6.83067e+19
-56.013  7.29653e+19
-55.8957  7.78201e+19
-55.7784  8.31521e+19
-55.6611  8.89821e+19
-55.5438  9.54272e+19
-55.4265  1.02567e+20
-55.3092  1.10377e+20
-55.1919  1.18944e+20
-55.0746  1.28248e+20
-54.9573  1.38236e+20
-54.84  1.48858e+20
-54.7227  1.59826e+20
-54.6054  1.70789e+20
-54.4881  1.81188e+20
-54.3708  1.9036e+20
-54.2535  1.97579e+20
-54.1362  2.02096e+20
-54.0189  2.03344e+20
-53.9016  2.00989e+20
-53.7842  1.94836e+20
-53.6669  1.85163e+20
-53.5496  1.72351e+20
-53.4323  1.57288e+20
-53.315  1.40922e+20
-53.1977  1.24397e+20
-53.0804  1.08817e+20
-52.9631  9.51436e+19
-52.8458  8.41883e+19
-52.7285  7.64982e+19
-52.6112  7.23091e+19
-52.4939  7.15799e+19
-52.3766  7.40157e+19
-52.2593  7.92e+19
-52.142  8.6586e+19
-52.0247  9.57586e+19
-51.9074  1.06236e+20
-51.7901  1.1771e+20
-51.6728  1.29989e+20
-51.5555  1.42829e+20
-51.4381  1.56141e+20
-51.3208  1.69688e+20
-51.2035  1.83262e+20
-51.0862  1.96531e+20
-50.9689  2.09276e+20
-50.8516  2.21164e+20
-50.7343  2.31862e+20
-50.617  2.41142e+20
-50.4997  2.48897e+20
-50.3824  2.54759e+20
-50.2651  2.58736e+20
-50.1478  2.60495e+20
-50.0305  2.6005e+20
-49.9132  2.57087e+20
-49.7959  2.51595e+20
-49.6786  2.43604e+20
-49.5613  2.33328e+20
-49.444  2.21085e+20
-49.3267  2.07227e+20
-49.2094  1.92273e+20
-49.092  1.76692e+20
-48.9747  1.60844e+20
-48.8574  1.45137e+20
-48.7401  1.29666e+20
-48.6228  1.14704e+20
-48.5055  1.00375e+20
-48.3882  8.68322e+19
-48.2709  7.43111e+19
-48.1536  6.29771e+19
-48.0363  5.29702e+19
-47.919  4.44961e+19
-47.8017  3.75674e+19
-47.6844  3.21349e+19
-47.5671  2.80511e+19
-47.4498  2.51012e+19
-47.3325  2.31094e+19
-47.2152  2.19701e+19
-47.0979  2.16127e+19
-46.9806  2.2083e+19
-46.8633  2.34935e+19
-46.7459  2.592e+19
-46.6286  2.94353e+19
-46.5113  3.39926e+19
-46.394  3.94853e+19
-46.2767  4.5676e+19
-46.1594  5.23147e+19
-46.0421  5.91784e+19
-45.9248  6.6068e+19
-45.8075  7.28747e+19
-45.6902  7.95654e+19
-45.5729  8.61726e+19
-45.4556  9.2768e+19
-45.3383  9.94663e+19
-45.221  1.06348e+20
-45.1037  1.1352e+20
-44.9864  1.211e+20
-44.8691  1.29121e+20
-44.7518  1.37667e+20
-44.6345  1.46643e+20
-44.5172  1.5577e+20
-44.3998  1.64728e+20
-44.2825  1.72927e+20
-44.1652  1.79674e+20
-44.0479  1.8419e+20
-43.9306  1.85943e+20
-43.8133  1.84392e+20
-43.696  1.79493e+20
-43.5787  1.7167e+20
-43.4614  1.61551e+20
-43.3441  1.50314e+20
-43.2268  1.39063e+20
-43.1095  1.28924e+20
-42.9922  1.20856e+20
-42.8749  1.15395e+20
-42.7576  1.12706e+20
-42.6403  1.12595e+20
-42.523  1.14555e+20
-42.4057  1.17944e+20
-42.2884  1.22144e+20
-42.171  1.26581e+20
-42.0537  1.3086e+20
-41.9364  1.34847e+20
-41.8191  1.38486e+20
-41.7018  1.41928e+20
-41.5845  1.45395e+20
-41.4672  1.49203e+20
-41.3499  1.5365e+20
-41.2326  1.58997e+20
-41.1153  1.65488e+20
-40.998  1.73187e+20
-40.8807  1.82024e+20
-40.7634  1.91674e+20
-40.6461  2.01551e+20
-40.5288  2.10852e+20
-40.4115  2.18698e+20
-40.2942  2.24038e+20
-40.1769  2.26187e+20
-40.0596  2.24623e+20
-39.9423  2.19231e+20
-39.825  2.10426e+20
-39.7076  1.99059e+20
-39.5903  1.86235e+20
-39.473  1.73197e+20
-39.3557  1.60956e+20
-39.2384  1.50597e+20
-39.1211  1.42647e+20
-39.0038  1.37346e+20
-38.8865  1.34619e+20
-38.7692  1.3415e+20
-38.6519  1.35418e+20
-38.5346  1.38019e+20
-38.4173  1.41446e+20
-38.3  1.45324e+20
-38.1827  1.49247e+20
-38.0654  1.52913e+20
-37.9481  1.56026e+20
-37.8308  1.58191e+20
-37.7135  1.59229e+20
-37.5962  1.5885e+20
-37.4789  1.57031e+20
-37.3615  1.53988e+20
-37.2442  1.4992e+20
-37.1269  1.45453e+20
-37.0096  1.41164e+20
-36.8923  1.37779e+20
-36.775  1.35945e+20
-36.6577  1.3625e+20
-36.5404  1.3931e+20
-36.4231  1.45435e+20
-36.3058  1.54845e+20
-36.1885  1.67655e+20
-36.0712  1.83755e+20
-35.9539  2.02879e+20
-35.8366  2.24522e+20
-35.7193  2.47979e+20
-35.602  2.72407e+20
-35.4847  2.96762e+20
-35.3674  3.19978e+20
-35.2501  3.40999e+20
-35.1328  3.59006e+20
-35.0154  3.73357e+20
-34.8981  3.8377e+20
-34.7808  3.9024e+20
-34.6635  3.93169e+20
-34.5462  3.93011e+20
-34.4289  3.90497e+20
-34.3116  3.86267e+20
-34.1943  3.81032e+20
-34.077  3.75301e+20
-33.9597  3.69486e+20
-33.8424  3.63651e+20
-33.7251  3.57871e+20
-33.6078  3.5189e+20
-33.4905  3.45248e+20
-33.3732  3.3749e+20
-33.2559  3.28061e+20
-33.1386  3.16345e+20
-33.0213  3.01932e+20
-32.904  2.84682e+20
-32.7867  2.6462e+20
-32.6693  2.42141e+20
-32.552  2.17873e+20
-32.4347  1.9274e+20
-32.3174  1.67709e+20
-32.2001  1.43745e+20
-32.0828  1.21669e+20
-31.9655  1.02124e+20
-31.8482  8.55632e+19
-31.7309  7.20125e+19
-31.6136  6.14238e+19
-31.4963  5.35054e+19
-31.379  4.7921e+19
-31.2617  4.42798e+19
-31.1444  4.22557e+19
-31.0271  4.16115e+19
-30.9098  4.21952e+19
-30.7925  4.40425e+19
-30.6752  4.72252e+19
-30.5579  5.1943e+19
-30.4406  5.85242e+19
-30.3232  6.72956e+19
-30.2059  7.84587e+19
-30.0886  9.21688e+19
-29.9713  1.08403e+20
-29.854  1.26929e+20
-29.7367  1.47219e+20
-29.6194  1.68664e+20
-29.5021  1.90516e+20
-29.3848  2.11983e+20
-29.2675  2.32295e+20
-29.1502  2.50885e+20
-29.0329  2.67486e+20
-28.9156  2.81891e+20
-28.7983  2.94221e+20
-28.681  3.04853e+20
-28.5637  3.14267e+20
-28.4464  3.23057e+20
-28.3291  3.32007e+20
-28.2118  3.41779e+20
-28.0944  3.52979e+20
-27.9771  3.66179e+20
-27.8598  3.81506e+20
-27.7425  3.98801e+20
-27.6252  4.17567e+20
-27.5079  4.36893e+20
-27.3906  4.55475e+20
-27.2733  4.72166e+20
-27.156  4.85597e+20
-27.0387  4.94601e+20
-26.9214  4.98745e+20
-26.8041  4.97761e+20
-26.6868  4.92074e+20
-26.5695  4.8249e+20
-26.4522  4.70236e+20
-26.3349  4.5657e+20
-26.2176  4.42684e+20
-26.1003  4.29931e+20
-25.983  4.19157e+20
-25.8657  4.10995e+20
-25.7483  4.06023e+20
-25.631  4.0437e+20
-25.5137  4.06101e+20
-25.3964  4.10916e+20
-25.2791  4.18415e+20
-25.1618  4.27941e+20
-25.0445  4.38655e+20
-24.9272  4.49584e+20
-24.8099  4.60065e+20
-24.6926  4.69362e+20
-24.5753  4.76889e+20
-24.458  4.82691e+20
-24.3407  4.8691e+20
-24.2234  4.89922e+20
-24.1061  4.92254e+20
-23.9888  4.94374e+20
-23.8715  4.96729e+20
-23.7542  4.99175e+20
-23.6369  5.01952e+20
-23.5196  5.04752e+20
-23.4023  5.07321e+20
-23.2849  5.09837e+20
-23.1676  5.12212e+20
-23.0503  5.14817e+20
-22.933  5.18238e+20
-22.8157  5.22878e+20
-22.6984  5.29427e+20
-22.5811  5.38415e+20
-22.4638  5.50197e+20
-22.3465  5.65059e+20
-22.2292  5.83057e+20
-22.1119  6.04016e+20
-21.9946  6.27768e+20
-21.8773  6.53778e+20
-21.76  6.81233e+20
-21.6427  7.08826e+20
-21.5254  7.35213e+20
-21.4081  7.58464e+20
-21.2908  7.76839e+20
-21.1735  7.88629e+20
-21.0561  7.9259e+20
-20.9388  7.87957e+20
-20.8215  7.75185e+20
-20.7042  7.54865e+20
-20.5869  7.28563e+20
-20.4696  6.98383e+20
-20.3523  6.66399e+20
-20.235  6.34522e+20
-20.1177  6.04561e+20
-20.0004  5.77717e+20
-19.8831  5.55167e+20
-19.7658  5.37162e+20
-19.6485  5.23947e+20
-19.5312  5.15465e+20
-19.4139  5.11403e+20
-19.2966  5.11269e+20
-19.1793  5.14376e+20
-19.062  5.19567e+20
-18.9447  5.25881e+20
-18.8274  5.31951e+20
-18.71  5.36752e+20
-18.5927  5.39296e+20
-18.4754  5.39078e+20
-18.3581  5.3633e+20
-18.2408  5.31235e+20
-18.1235  5.25106e+20
-18.0062  5.18949e+20
-17.8889  5.14117e+20
-17.7716  5.11751e+20
-17.6543  5.12361e+20
-17.537  5.16461e+20
-17.4197  5.23917e+20
-17.3024  5.344e+20
-17.1851  5.47376e+20
-17.0678  5.62399e+20
-16.9505  5.78914e+20
-16.8332  5.96802e+20
-16.7159  6.15762e+20
-16.5986  6.35935e+20
-16.4813  6.57385e+20
-16.364  6.80296e+20
-16.2466  7.05077e+20
-16.1293  7.32147e+20
-16.012  7.6189e+20
-15.8947  7.94809e+20
-15.7774  8.31508e+20
-15.6601  8.72116e+20
-15.5428  9.17188e+20
-15.4255  9.66839e+20
-15.3082  1.02083e+21
-15.1909  1.07907e+21
-15.0736  1.14104e+21
-14.9563  1.20648e+21
-14.839  1.27471e+21
-14.7217  1.34578e+21
-14.6044  1.41949e+21
-14.4871  1.49577e+21
-14.3698  1.57496e+21
-14.2525  1.65754e+21
-14.1352  1.74398e+21
-14.0178  1.83454e+21
-13.9005  1.92986e+21
-13.7832  2.03005e+21
-13.6659  2.13558e+21
-13.5486  2.24613e+21
-13.4313  2.36212e+21
-13.314  2.48328e+21
-13.1967  2.60957e+21
-13.0794  2.74069e+21
-12.9621  2.87649e+21
-12.8448  3.01671e+21
-12.7275  3.1617e+21
-12.6102  3.31103e+21
-12.4929  3.46508e+21
-12.3756  3.62423e+21
-12.2583  3.78838e+21
-12.141  3.95817e+21
-12.0237  4.13313e+21
-11.9064  4.3138e+21
-11.7891  4.49902e+21
-11.6718  4.68868e+21
-11.5544  4.88132e+21
-11.4371  5.0758e+21
-11.3198  5.27075e+21
-11.2025  5.46486e+21
-11.0852  5.65658e+21
-10.9679  5.84513e+21
-10.8506  6.02951e+21
-10.7333  6.20963e+21
-10.616  6.3853e+21
-10.4987  6.55704e+21
-10.3814  6.72585e+21
-10.2641  6.8931e+21
-10.1468  7.0612e+21
-10.0295  7.23208e+21
-9.91217  7.40812e+21
-9.79487  7.59186e+21
-9.67756  7.78545e+21
-9.56026  7.99103e+21
-9.44295  8.20956e+21
-9.32565  8.44273e+21
-9.20834  8.69035e+21
-9.09104  8.95267e+21
-8.97373  9.22938e+21
-8.85643  9.51969e+21
-8.73913  9.82403e+21
-8.62182  1.01414e+22
-8.50452  1.04719e+22
-8.38721  1.08162e+22
-8.26991  1.11745e+22
-8.1526  1.15485e+22
-8.03529  1.19396e+22
-7.91799  1.23493e+22
-7.80069  1.27799e+22
-7.68338  1.32331e+22
-7.56608  1.37107e+22
-7.44877  1.4214e+22
-7.33146  1.47437e+22
-7.21416  1.53e+22
-7.09685  1.58822e+22
-6.97955  1.64893e+22
-6.86224  1.71194e+22
-6.74494  1.77701e+22
-6.62763  1.844e+22
-6.51033  1.91265e+22
-6.39302  1.98289e+22
-6.27572  2.05461e+22
-6.15842  2.12783e+22
-6.04111  2.20263e+22
-5.92381  2.27922e+22
-5.8065  2.35781e+22
-5.68919  2.43859e+22
-5.57189  2.52193e+22
-5.45458  2.60802e+22
-5.33728  2.69704e+22
-5.21997  2.78918e+22
-5.10267  2.88441e+22
-4.98536  2.98271e+22
-4.86806  3.08386e+22
-4.75075  3.18767e+22
-4.63345  3.29376e+22
-4.51614  3.40183e+22
-4.39884  3.51151e+22
-4.28154  3.62253e+22
-4.16423  3.73474e+22
-4.04692  3.84785e+22
-3.92962  3.96184e+22
-3.81231  4.07666e+22
-3.69501  4.1922e+22
-3.5777  4.30846e+22
-3.4604  4.42526e+22
-3.34309  4.54235e+22
-3.22579  4.65941e+22
-3.10849  4.77611e+22
-2.99118  4.89179e+22
-2.87387  5.00599e+22
-2.75657  5.11808e+22
-2.63926  5.2274e+22
-2.52196  5.33335e+22
-2.40465  5.43543e+22
-2.28735  5.53315e+22
-2.17005  5.62617e+22
-2.05274  5.71435e+22
-1.93544  5.79753e+22
-1.81813  5.87592e+22
-1.70083  5.94969e+22
-1.58352  6.01928e+22
-1.46622  6.08496e+22
-1.34891  6.147e+22
-1.2316  6.2057e+22
-1.1143  6.26107e+22
-0.996995  6.31305e+22
-0.87969  6.36135e+22
-0.762385  6.40547e+22
-0.64508  6.44498e+22
-0.527775  6.4792e+22
-0.41047  6.50756e+22
-0.293165  6.52945e+22
-0.17586  6.54452e+22
-0.058555  6.55237e+22
0.05875  6.55292e+22
0.176055  6.54605e+22
0.29336  6.53211e+22
0.410665  6.51123e+22
0.52797  6.48394e+22
0.645275  6.45079e+22
0.76258  6.41243e+22
0.879885  6.36936e+22
0.99719  6.32217e+22
1.1145  6.27134e+22
1.2318  6.21704e+22
1.3491  6.1594e+22
1.46641  6.09841e+22
1.58371  6.03376e+22
1.70102  5.96515e+22
1.81832  5.89226e+22
1.93563  5.81478e+22
2.05294  5.73243e+22
2.17024  5.64512e+22
2.28754  5.55287e+22
2.40485  5.45586e+22
2.52216  5.3545e+22
2.63946  5.24913e+22
2.75677  5.1404e+22
2.87407  5.02886e+22
2.99137  4.91518e+22
3.10868  4.79988e+22
3.22599  4.68356e+22
3.34329  4.56681e+22
3.4606  4.44991e+22
3.5779  4.33329e+22
3.69521  4.21718e+22
3.81251  4.10163e+22
3.92982  3.98681e+22
4.04712  3.87277e+22
4.16443  3.75952e+22
4.28173  3.64721e+22
4.39903  3.53599e+22
4.51634  3.42608e+22
4.63364  3.31781e+22
4.75095  3.21146e+22
4.86825  3.10743e+22
4.98556  3.006e+22
5.10286  2.90744e+22
5.22017  2.81187e+22
5.33748  2.71939e+22
5.45478  2.62996e+22
5.57209  2.54344e+22
5.68939  2.45968e+22
5.8067  2.37832e+22
5.924  2.29919e+22
6.0413  2.22203e+22
6.15861  2.14662e+22
6.27591  2.07273e+22
6.39322  2.00041e+22
6.51052  1.92955e+22
6.62783  1.86022e+22
6.74514  1.79261e+22
6.86244  1.72689e+22
6.97975  1.66328e+22
7.09705  1.60202e+22
7.21436  1.54323e+22
7.33166  1.48706e+22
7.44897  1.43357e+22
7.56627  1.38275e+22
7.68358  1.33449e+22
7.80088  1.28866e+22
7.91819  1.24512e+22
8.03549  1.20365e+22
8.1528  1.16407e+22
8.2701  1.12618e+22
8.38741  1.08988e+22
8.50471  1.05501e+22
8.62202  1.02157e+22
8.73932  9.8945e+21
8.85662  9.58676e+21
8.97393  9.29292e+21
9.09123  9.01386e+21
9.20854  8.74908e+21
9.32584  8.49918e+21
9.44315  8.26455e+21
9.56045  8.04425e+21
9.67776  7.83718e+21
9.79506  7.64224e+21
9.91237  7.45746e+21
10.0297  7.28037e+21
10.147  7.10838e+21
10.2643  6.93916e+21
10.3816  6.77045e+21
10.4989  6.60042e+21
10.6162  6.42754e+21
10.7335  6.25085e+21
10.8508  6.06958e+21
10.9681  5.88414e+21
11.0854  5.69454e+21
11.2027  5.5018e+21
11.32  5.30672e+21
11.4373  5.11102e+21
11.5546  4.91573e+21
11.6719  4.72244e+21
11.7893  4.53217e+21
11.9066  4.34607e+21
12.0239  4.16492e+21
12.1412  3.98905e+21
12.2585  3.8186e+21
12.3758  3.65346e+21
12.4931  3.49348e+21
12.6104  3.33833e+21
12.7277  3.18782e+21
12.845  3.04181e+21
12.9623  2.90034e+21
13.0796  2.76326e+21
13.1969  2.63099e+21
13.3142  2.50357e+21
13.4315  2.3812e+21
13.5488  2.26401e+21
13.6661  2.15216e+21
13.7834  2.0457e+21
13.9007  1.94429e+21
14.018  1.84795e+21
14.1354  1.75624e+21
14.2527  1.66887e+21
14.37  1.5852e+21
14.4873  1.50507e+21
14.6046  1.42802e+21
14.7219  1.35367e+21
14.8392  1.28197e+21
14.9565  1.21317e+21
15.0738  1.14742e+21
15.1911  1.08509e+21
15.3084  1.02669e+21
15.4257  9.72652e+20
15.543  9.2301e+20
15.6603  8.77897e+20
15.7776  8.37201e+20
15.8949  8.00656e+20
16.0122  7.67573e+20
16.1295  7.3772e+20
16.2468  7.10534e+20
16.3641  6.85646e+20
16.4815  6.62535e+20
16.5988  6.40916e+20
16.7161  6.20624e+20
16.8334  6.01494e+20
16.9507  5.83501e+20
17.068  5.66756e+20
17.1853  5.5161e+20
17.3026  5.38513e+20
17.4199  5.27932e+20
17.5372  5.20521e+20
17.6545  5.16315e+20
17.7718  5.15576e+20
17.8891  5.181e+20
18.0064  5.22789e+20
18.1237  5.28658e+20
18.241  5.34738e+20
18.3583  5.39494e+20
18.4756  5.42096e+20
18.5929  5.42048e+20
18.7102  5.39418e+20
18.8275  5.3442e+20
18.9449  5.28273e+20
19.0622  5.21898e+20
19.1795  5.16654e+20
19.2968  5.13727e+20
19.4141  5.1402e+20
19.5314  5.18244e+20
19.6487  5.27016e+20
19.766  5.4045e+20
19.8833  5.58773e+20
20.0006  5.81669e+20
20.1179  6.08662e+20
20.2352  6.38777e+20
20.3525  6.70746e+20
20.4698  7.02933e+20
20.5871  7.33104e+20
20.7044  7.59183e+20
20.8217  7.79386e+20
20.939  7.92058e+20
21.0563  7.96286e+20
21.1736  7.9208e+20
21.291  7.801e+20
21.4083  7.6151e+20
21.5256  7.38118e+20
21.6429  7.11679e+20
21.7602  6.84014e+20
21.8775  6.56627e+20
21.9948  6.30613e+20
22.1121  6.06859e+20
22.2294  5.85965e+20
22.3467  5.68074e+20
22.464  5.53316e+20
22.5813  5.41631e+20
22.6986  5.32723e+20
22.8159  5.2615e+20
22.9332  5.21483e+20
23.0505  5.18158e+20
23.1678  5.15454e+20
23.2851  5.13081e+20
23.4024  5.10522e+20
23.5198  5.07769e+20
23.6371  5.04922e+20
23.7544  5.02075e+20
23.8717  4.99442e+20
23.989  4.9704e+20
24.1063  4.94816e+20
24.2236  4.92283e+20
24.3409  4.89071e+20
24.4582  4.84757e+20
24.5755  4.78677e+20
24.6928  4.70968e+20
24.8101  4.61512e+20
24.9274  4.5087e+20
25.0447  4.39692e+20
25.162  4.28832e+20
25.2793  4.19234e+20
25.3966  4.11663e+20
25.5139  4.0686e+20
25.6312  4.05178e+20
25.7485  4.06794e+20
25.8658  4.11845e+20
25.9832  4.19963e+20
26.1005  4.30848e+20
26.2178  4.43598e+20
26.3351  4.57471e+20
26.4524  4.71171e+20
26.5697  4.83408e+20
26.687  4.92803e+20
26.8043  4.98366e+20
26.9216  4.99163e+20
27.0389  4.94958e+20
27.1562  4.85671e+20
27.2735  4.72154e+20
27.3908  4.55423e+20
27.5081  4.36638e+20
27.6254  4.17312e+20
27.7427  3.98614e+20
27.86  3.81315e+20
27.9773  3.6609e+20
28.0946  3.52986e+20
28.212  3.418e+20
28.3293  3.32092e+20
28.4466  3.23202e+20
28.5639  3.14389e+20
28.6812  3.0499e+20
28.7985  2.94325e+20
28.9158  2.81848e+20
29.0331  2.67329e+20
29.1504  2.50659e+20
29.2677  2.31908e+20
29.385  2.11509e+20
29.5023  1.9001e+20
29.6196  1.68136e+20
29.7369  1.4665e+20
29.8542  1.26366e+20
29.9715  1.07926e+20
30.0888  9.17609e+19
30.2061  7.81194e+19
30.3234  6.70434e+19
30.4407  5.83928e+19
30.558  5.1894e+19
30.6754  4.72198e+19
30.7927  4.41431e+19
30.91  4.23952e+19
31.0273  4.18629e+19
31.1446  4.25769e+19
31.2619  4.46799e+19
31.3792  4.84062e+19
31.4965  5.41147e+19
31.6138  6.2161e+19
31.7311  7.28979e+19
31.8484  8.65887e+19
31.9657  1.03399e+20
32.083  1.23032e+20
32.2003  1.45274e+20
32.3176  1.69385e+20
32.4349  1.94519e+20
32.5522  2.197e+20
32.6695  2.43982e+20
32.7868  2.66466e+20
32.9042  2.86445e+20
33.0215  3.03625e+20
33.1388  3.17903e+20
33.2561  3.29518e+20
33.3734  3.38907e+20
33.4907  3.46504e+20
33.608  3.53051e+20
33.7253  3.59037e+20
33.8426  3.64699e+20
33.9599  3.70458e+20
34.0772  3.76218e+20
34.1945  3.81844e+20
34.3118  3.86973e+20
34.4291  3.91038e+20
34.5464  3.93413e+20
34.6637  3.93334e+20
34.781  3.90269e+20
34.8983  3.83522e+20
35.0156  3.72862e+20
35.1329  3.58343e+20
35.2503  3.40146e+20
35.3676  3.18965e+20
35.4849  2.95695e+20
35.6022  2.71299e+20
35.7195  2.46854e+20
35.8368  2.23485e+20
35.9541  2.0195e+20
36.0714  1.82987e+20
36.1887  1.67089e+20
36.306  1.54483e+20
36.4233  1.45242e+20
36.5406  1.39354e+20
36.6579  1.36481e+20
36.7752  1.36298e+20
36.8925  1.3829e+20
37.0098  1.41778e+20
37.1271  1.46167e+20
37.2444  1.50654e+20
37.3617  1.54702e+20
37.479  1.57767e+20
37.5964  1.59477e+20
37.7137  1.59792e+20
37.831  1.58717e+20
37.9483  1.56516e+20
38.0656  1.53388e+20
38.1829  1.49641e+20
38.3002  1.45686e+20
38.4175  1.41845e+20
38.5348  1.38411e+20
38.6521  1.3585e+20
38.7694  1.3461e+20
38.8867  1.35155e+20
39.004  1.38006e+20
39.1213  1.43375e+20
39.2386  1.51372e+20
39.3559  1.6182e+20
39.4732  1.74016e+20
39.5905  1.87106e+20
39.7078  1.99906e+20
39.8251  2.11123e+20
39.9425  2.19774e+20
40.0598  2.24998e+20
40.1771  2.26437e+20
40.2944  2.24161e+20
40.4117  2.18647e+20
40.529  2.10761e+20
40.6463  2.01396e+20
40.7636  1.91523e+20
40.8809  1.8187e+20
40.9982  1.73076e+20
41.1155  1.65416e+20
41.2328  1.59007e+20
41.3501  1.53661e+20
41.4674  1.49317e+20
41.5847  1.45498e+20
41.702  1.42071e+20
41.8193  1.38609e+20
41.9366  1.34989e+20
42.0539  1.31007e+20
42.1712  1.26725e+20
42.2885  1.22325e+20
42.4059  1.18178e+20
42.5232  1.14808e+20
42.6405  1.1293e+20
42.7578  1.13133e+20
42.8751  1.15912e+20
42.9924  1.21485e+20
43.1097  1.29617e+20
43.227  1.39803e+20
43.3443  1.51088e+20
43.4616  1.62303e+20
43.5789  1.72314e+20
43.6962  1.80064e+20
43.8135  1.84792e+20
43.9308  1.86234e+20
44.0481  1.84411e+20
44.1654  1.79801e+20
44.2827  1.73003e+20
44.4  1.64732e+20
44.5173  1.55773e+20
44.6347  1.46591e+20
44.752  1.37648e+20
44.8693  1.2912e+20
44.9866  1.2107e+20
45.1039  1.13482e+20
45.2212  1.06274e+20
45.3385  9.93563e+19
45.4558  9.26755e+19
45.5731  8.60423e+19
45.6904  7.93839e+19
45.8077  7.26769e+19
45.925  6.58533e+19
46.0423  5.89277e+19
46.1596  5.20333e+19
46.2769  4.53918e+19
46.3942  3.92192e+19
46.5115  3.37502e+19
46.6288  2.92188e+19
46.7461  2.57256e+19
46.8634  2.3334e+19
46.9808  2.19662e+19
47.0981  2.15383e+19
47.2154  2.19219e+19
47.3327  2.31002e+19
47.45  2.51397e+19
47.5673  2.8139e+19
47.6846  3.23129e+19
47.8019  3.78393e+19
47.9192  4.48474e+19
48.0365  5.34297e+19
48.1538  6.34931e+19
48.2711  7.49296e+19
48.3884  8.75513e+19
48.5057  1.01147e+20
48.623  1.15518e+20
48.7403  1.30503e+20
48.8576  1.45941e+20
48.9749  1.61726e+20
49.0922  1.77567e+20
49.2095  1.93129e+20
49.3269  2.08051e+20
49.4442  2.21851e+20
49.5615  2.34086e+20
49.6788  2.44274e+20
49.7961  2.52174e+20
49.9134  2.57557e+20
50.0307  2.60425e+20
50.148  2.6084e+20
50.2653  2.58936e+20
50.3826  2.54895e+20
50.4999  2.48847e+20
50.6172  2.41052e+20
50.7345  2.3161e+20
50.8518  2.20886e+20
50.9691  2.08898e+20
