#S 1 spectral density
#N 2
#UFWHM 13.842
#L  abscissas [um]  spectral density
-58.5938  5.0698e+19
-58.4764  4.84391e+19
-58.3591  4.70799e+19
-58.2418  4.65068e+19
-58.1245  4.64843e+19
-58.0072  4.67309e+19
-57.8899  4.6897e+19
-57.7726  4.68038e+19
-57.6553  4.63753e+19
-57.538  4.56733e+19
-57.4207  4.48794e+19
-57.3034  4.41881e+19
-57.1861  4.37575e+19
-57.0688  4.36872e+19
-56.9515  4.39386e+19
-56.8342  4.4432e+19
-56.7169  4.49768e+19
-56.5996  4.54788e+19
-56.4823  4.58814e+19
-56.365  4.63382e+19
-56.2477  4.70352e+19
-56.1303  4.82113e+19
-56.013  5.01482e+19
-55.8957  5.29587e+19
-55.7784  5.66715e+19
-55.6611  6.1095e+19
-55.5438  6.58566e+19
-55.4265  7.05917e+19
-55.3092  7.48254e+19
-55.1919  7.81525e+19
-55.0746  8.036e+19
-54.9573  8.12363e+19
-54.84  8.08797e+19
-54.7227  7.93362e+19
-54.6054  7.69386e+19
-54.4881  7.388e+19
-54.3708  7.04337e+19
-54.2535  6.67988e+19
-54.1362  6.32512e+19
-54.0189  5.99531e+19
-53.9016  5.70612e+19
-53.7842  5.47529e+19
-53.6669  5.31701e+19
-53.5496  5.24491e+19
-53.4323  5.27341e+19
-53.315  5.41115e+19
-53.1977  5.65847e+19
-53.0804  6.01609e+19
-52.9631  6.46776e+19
-52.8458  6.99189e+19
-52.7285  7.55577e+19
-52.6112  8.11399e+19
-52.4939  8.61583e+19
-52.3766  9.01754e+19
-52.2593  9.2774e+19
-52.142  9.3725e+19
-52.0247  9.28839e+19
-51.9074  9.0369e+19
-51.7901  8.64304e+19
-51.6728  8.14752e+19
-51.5555  7.59591e+19
-51.4381  7.02994e+19
-51.3208  6.49291e+19
-51.2035  6.01822e+19
-51.0862  5.6333e+19
-50.9689  5.36302e+19
-50.8516  5.22283e+19
-50.7343  5.2371e+19
-50.617  5.41305e+19
-50.4997  5.75435e+19
-50.3824  6.25474e+19
-50.2651  6.8811e+19
-50.1478  7.5908e+19
-50.0305  8.31557e+19
-49.9132  8.99419e+19
-49.7959  9.55457e+19
-49.6786  9.94592e+19
-49.5613  1.01275e+20
-49.444  1.01057e+20
-49.3267  9.89723e+19
-49.2094  9.54864e+19
-49.092  9.12095e+19
-48.9747  8.68204e+19
-48.8574  8.29422e+19
-48.7401  8.01287e+19
-48.6228  7.8773e+19
-48.5055  7.91087e+19
-48.3882  8.13197e+19
-48.2709  8.53873e+19
-48.1536  9.12263e+19
-48.0363  9.85812e+19
-47.919  1.07034e+20
-47.8017  1.16015e+20
-47.6844  1.24926e+20
-47.5671  1.33038e+20
-47.4498  1.39688e+20
-47.3325  1.44373e+20
-47.2152  1.46702e+20
-47.0979  1.46705e+20
-46.9806  1.44595e+20
-46.8633  1.40868e+20
-46.7459  1.36129e+20
-46.6286  1.31175e+20
-46.5113  1.26723e+20
-46.394  1.23367e+20
-46.2767  1.21634e+20
-46.1594  1.21801e+20
-46.0421  1.24035e+20
-45.9248  1.2817e+20
-45.8075  1.33912e+20
-45.6902  1.40821e+20
-45.5729  1.48192e+20
-45.4556  1.55276e+20
-45.3383  1.61226e+20
-45.221  1.65355e+20
-45.1037  1.67068e+20
-44.9864  1.66084e+20
-44.8691  1.62283e+20
-44.7518  1.5614e+20
-44.6345  1.48156e+20
-44.5172  1.39086e+20
-44.3998  1.29751e+20
-44.2825  1.209e+20
-44.1652  1.13154e+20
-44.0479  1.06914e+20
-43.9306  1.02445e+20
-43.8133  9.97877e+19
-43.696  9.90083e+19
-43.5787  1.00179e+20
-43.4614  1.03277e+20
-43.3441  1.083e+20
-43.2268  1.15116e+20
-43.1095  1.23449e+20
-42.9922  1.32838e+20
-42.8749  1.42624e+20
-42.7576  1.52008e+20
-42.6403  1.60235e+20
-42.523  1.66552e+20
-42.4057  1.70576e+20
-42.2884  1.72141e+20
-42.171  1.71432e+20
-42.0537  1.68815e+20
-41.9364  1.65009e+20
-41.8191  1.60583e+20
-41.7018  1.56182e+20
-41.5845  1.52287e+20
-41.4672  1.49251e+20
-41.3499  1.47394e+20
-41.2326  1.46762e+20
-41.1153  1.47511e+20
-40.998  1.49725e+20
-40.8807  1.53387e+20
-40.7634  1.58391e+20
-40.6461  1.64508e+20
-40.5288  1.71306e+20
-40.4115  1.78178e+20
-40.2942  1.84502e+20
-40.1769  1.89431e+20
-40.0596  1.92545e+20
-39.9423  1.93415e+20
-39.825  1.91937e+20
-39.7076  1.88325e+20
-39.5903  1.82982e+20
-39.473  1.76503e+20
-39.3557  1.69459e+20
-39.2384  1.62402e+20
-39.1211  1.55579e+20
-39.0038  1.49291e+20
-38.8865  1.43779e+20
-38.7692  1.39058e+20
-38.6519  1.35344e+20
-38.5346  1.32885e+20
-38.4173  1.31973e+20
-38.3  1.32871e+20
-38.1827  1.35853e+20
-38.0654  1.4098e+20
-37.9481  1.48149e+20
-37.8308  1.57054e+20
-37.7135  1.67233e+20
-37.5962  1.78105e+20
-37.4789  1.89053e+20
-37.3615  1.99529e+20
-37.2442  2.09161e+20
-37.1269  2.17549e+20
-37.0096  2.24505e+20
-36.8923  2.29843e+20
-36.775  2.3354e+20
-36.6577  2.35603e+20
-36.5404  2.35926e+20
-36.4231  2.34681e+20
-36.3058  2.3204e+20
-36.1885  2.28332e+20
-36.0712  2.24013e+20
-35.9539  2.19634e+20
-35.8366  2.15767e+20
-35.7193  2.12946e+20
-35.602  2.11672e+20
-35.4847  2.12132e+20
-35.3674  2.14555e+20
-35.2501  2.18877e+20
-35.1328  2.24924e+20
-35.0154  2.32375e+20
-34.8981  2.40935e+20
-34.7808  2.50167e+20
-34.6635  2.59592e+20
-34.5462  2.68844e+20
-34.4289  2.77338e+20
-34.3116  2.84735e+20
-34.1943  2.90763e+20
-34.077  2.95121e+20
-33.9597  2.9784e+20
-33.8424  2.99113e+20
-33.7251  2.9922e+20
-33.6078  2.9855e+20
-33.4905  2.97723e+20
-33.3732  2.97093e+20
-33.2559  2.97127e+20
-33.1386  2.98043e+20
-33.0213  3.00027e+20
-32.904  3.03074e+20
-32.7867  3.07056e+20
-32.6693  3.11983e+20
-32.552  3.17693e+20
-32.4347  3.24087e+20
-32.3174  3.31033e+20
-32.2001  3.38359e+20
-32.0828  3.45926e+20
-31.9655  3.53479e+20
-31.8482  3.60594e+20
-31.7309  3.67012e+20
-31.6136  3.72306e+20
-31.4963  3.76182e+20
-31.379  3.78372e+20
-31.2617  3.78833e+20
-31.1444  3.77563e+20
-31.0271  3.74665e+20
-30.9098  3.70448e+20
-30.7925  3.6515e+20
-30.6752  3.59376e+20
-30.5579  3.53663e+20
-30.4406  3.48556e+20
-30.3232  3.44614e+20
-30.2059  3.42547e+20
-30.0886  3.42747e+20
-29.9713  3.45516e+20
-29.854  3.5101e+20
-29.7367  3.59123e+20
-29.6194  3.69517e+20
-29.5021  3.81816e+20
-29.3848  3.9531e+20
-29.2675  4.09362e+20
-29.1502  4.23296e+20
-29.0329  4.36371e+20
-28.9156  4.47927e+20
-28.7983  4.57512e+20
-28.681  4.64589e+20
-28.5637  4.68989e+20
-28.4464  4.70681e+20
-28.3291  4.69957e+20
-28.2118  4.67349e+20
-28.0944  4.63684e+20
-27.9771  4.60037e+20
-27.8598  4.57377e+20
-27.7425  4.56758e+20
-27.6252  4.58828e+20
-27.5079  4.6405e+20
-27.3906  4.72366e+20
-27.2733  4.83365e+20
-27.156  4.96442e+20
-27.0387  5.10718e+20
-26.9214  5.25461e+20
-26.8041  5.39969e+20
-26.6868  5.53724e+20
-26.5695  5.66495e+20
-26.4522  5.78165e+20
-26.3349  5.88701e+20
-26.2176  5.98225e+20
-26.1003  6.06692e+20
-25.983  6.14341e+20
-25.8657  6.2138e+20
-25.7483  6.27925e+20
-25.631  6.34359e+20
-25.5137  6.41172e+20
-25.3964  6.48507e+20
-25.2791  6.56592e+20
-25.1618  6.65272e+20
-25.0445  6.74292e+20
-24.9272  6.82914e+20
-24.8099  6.90476e+20
-24.6926  6.96083e+20
-24.5753  6.99347e+20
-24.458  6.99732e+20
-24.3407  6.97575e+20
-24.2234  6.93331e+20
-24.1061  6.88034e+20
-23.9888  6.82776e+20
-23.8715  6.7883e+20
-23.7542  6.77448e+20
-23.6369  6.79622e+20
-23.5196  6.86006e+20
-23.4023  6.97203e+20
-23.2849  7.13169e+20
-23.1676  7.33571e+20
-23.0503  7.57854e+20
-22.933  7.84628e+20
-22.8157  8.12807e+20
-22.6984  8.40371e+20
-22.5811  8.65622e+20
-22.4638  8.87017e+20
-22.3465  9.02943e+20
-22.2292  9.12939e+20
-22.1119  9.16795e+20
-21.9946  9.15199e+20
-21.8773  9.09466e+20
-21.76  9.01415e+20
-21.6427  8.93178e+20
-21.5254  8.86826e+20
-21.4081  8.84104e+20
-21.2908  8.8658e+20
-21.1735  8.95207e+20
-21.0561  9.10548e+20
-20.9388  9.3288e+20
-20.8215  9.62179e+20
-20.7042  9.97755e+20
-20.5869  1.03901e+21
-20.4696  1.08456e+21
-20.3523  1.13308e+21
-20.235  1.18255e+21
-20.1177  1.23114e+21
-20.0004  1.27691e+21
-19.8831  1.31844e+21
-19.7658  1.35448e+21
-19.6485  1.3851e+21
-19.5312  1.41074e+21
-19.4139  1.43264e+21
-19.2966  1.45257e+21
-19.1793  1.47221e+21
-19.062  1.4935e+21
-18.9447  1.51758e+21
-18.8274  1.54522e+21
-18.71  1.57672e+21
-18.5927  1.61181e+21
-18.4754  1.64996e+21
-18.3581  1.69058e+21
-18.2408  1.73279e+21
-18.1235  1.77641e+21
-18.0062  1.82047e+21
-17.8889  1.86467e+21
-17.7716  1.90853e+21
-17.6543  1.95139e+21
-17.537  1.99296e+21
-17.4197  2.03284e+21
-17.3024  2.07067e+21
-17.1851  2.10637e+21
-17.0678  2.14029e+21
-16.9505  2.17294e+21
-16.8332  2.20489e+21
-16.7159  2.23698e+21
-16.5986  2.26989e+21
-16.4813  2.30405e+21
-16.364  2.33993e+21
-16.2466  2.37762e+21
-16.1293  2.41694e+21
-16.012  2.45804e+21
-15.8947  2.50089e+21
-15.7774  2.54539e+21
-15.6601  2.59216e+21
-15.5428  2.64127e+21
-15.4255  2.69337e+21
-15.3082  2.7492e+21
-15.1909  2.80886e+21
-15.0736  2.87278e+21
-14.9563  2.94128e+21
-14.839  3.01461e+21
-14.7217  3.09219e+21
-14.6044  3.1742e+21
-14.4871  3.25983e+21
-14.3698  3.3488e+21
-14.2525  3.44021e+21
-14.1352  3.53344e+21
-14.0178  3.6278e+21
-13.9005  3.72289e+21
-13.7832  3.81867e+21
-13.6659  3.91524e+21
-13.5486  4.01356e+21
-13.4313  4.11498e+21
-13.314  4.2207e+21
-13.1967  4.3328e+21
-13.0794  4.4533e+21
-12.9621  4.58443e+21
-12.8448  4.72808e+21
-12.7275  4.88608e+21
-12.6102  5.05959e+21
-12.4929  5.24947e+21
-12.3756  5.45589e+21
-12.2583  5.67856e+21
-12.141  5.91644e+21
-12.0237  6.16832e+21
-11.9064  6.43226e+21
-11.7891  6.70636e+21
-11.6718  6.98903e+21
-11.5544  7.27856e+21
-11.4371  7.57337e+21
-11.3198  7.87369e+21
-11.2025  8.17958e+21
-11.0852  8.49217e+21
-10.9679  8.81387e+21
-10.8506  9.14691e+21
-10.7333  9.49399e+21
-10.616  9.85895e+21
-10.4987  1.02436e+22
-10.3814  1.06504e+22
-10.2641  1.1081e+22
-10.1468  1.15364e+22
-10.0295  1.20154e+22
-9.91217  1.25173e+22
-9.79487  1.30394e+22
-9.67756  1.35788e+22
-9.56026  1.41313e+22
-9.44295  1.4693e+22
-9.32565  1.52597e+22
-9.20834  1.58278e+22
-9.09104  1.63945e+22
-8.97373  1.69578e+22
-8.85643  1.75185e+22
-8.73913  1.80767e+22
-8.62182  1.86353e+22
-8.50452  1.9198e+22
-8.38721  1.97688e+22
-8.26991  2.0353e+22
-8.1526  2.09549e+22
-8.03529  2.15786e+22
-7.91799  2.22267e+22
-7.80069  2.29015e+22
-7.68338  2.3602e+22
-7.56608  2.43271e+22
-7.44877  2.5073e+22
-7.33146  2.58355e+22
-7.21416  2.6608e+22
-7.09685  2.73848e+22
-6.97955  2.81591e+22
-6.86224  2.89251e+22
-6.74494  2.96778e+22
-6.62763  3.04138e+22
-6.51033  3.11312e+22
-6.39302  3.18304e+22
-6.27572  3.25139e+22
-6.15842  3.31848e+22
-6.04111  3.38473e+22
-5.92381  3.4508e+22
-5.8065  3.51706e+22
-5.68919  3.58402e+22
-5.57189  3.65209e+22
-5.45458  3.72138e+22
-5.33728  3.79197e+22
-5.21997  3.86373e+22
-5.10267  3.93633e+22
-4.98536  4.00927e+22
-4.86806  4.08198e+22
-4.75075  4.15381e+22
-4.63345  4.22407e+22
-4.51614  4.29221e+22
-4.39884  4.35773e+22
-4.28154  4.42033e+22
-4.16423  4.47999e+22
-4.04692  4.5367e+22
-3.92962  4.59076e+22
-3.81231  4.64263e+22
-3.69501  4.69269e+22
-3.5777  4.74153e+22
-3.4604  4.78957e+22
-3.34309  4.83712e+22
-3.22579  4.88442e+22
-3.10849  4.93162e+22
-2.99118  4.97861e+22
-2.87387  5.02527e+22
-2.75657  5.07132e+22
-2.63926  5.11647e+22
-2.52196  5.16027e+22
-2.40465  5.20241e+22
-2.28735  5.24249e+22
-2.17005  5.28027e+22
-2.05274  5.31563e+22
-1.93544  5.34844e+22
-1.81813  5.37883e+22
-1.70083  5.40704e+22
-1.58352  5.43335e+22
-1.46622  5.45812e+22
-1.34891  5.48165e+22
-1.2316  5.50428e+22
-1.1143  5.52612e+22
-0.996995  5.5472e+22
-0.87969  5.56743e+22
-0.762385  5.58643e+22
-0.64508  5.60391e+22
-0.527775  5.61944e+22
-0.41047  5.63256e+22
-0.293165  5.64283e+22
-0.17586  5.64999e+22
-0.058555  5.65379e+22
0.05875  5.65406e+22
0.176055  5.65087e+22
0.29336  5.64432e+22
0.410665  5.63467e+22
0.52797  5.62222e+22
0.645275  5.60738e+22
0.76258  5.59061e+22
0.879885  5.57236e+22
0.99719  5.55296e+22
1.1145  5.5327e+22
1.2318  5.51168e+22
1.3491  5.48988e+22
1.46641  5.46714e+22
1.58371  5.44315e+22
1.70102  5.4176e+22
1.81832  5.39011e+22
1.93563  5.3604e+22
2.05294  5.32824e+22
2.17024  5.29355e+22
2.28754  5.25638e+22
2.40485  5.21689e+22
2.52216  5.17535e+22
2.63946  5.13215e+22
2.75677  5.08762e+22
2.87407  5.04217e+22
2.99137  4.99615e+22
3.10868  4.94977e+22
3.22599  4.90322e+22
3.34329  4.85655e+22
3.4606  4.80959e+22
3.5779  4.76218e+22
3.69521  4.71395e+22
3.81251  4.66439e+22
3.92982  4.61304e+22
4.04712  4.55943e+22
4.16443  4.50314e+22
4.28173  4.44391e+22
4.39903  4.3816e+22
4.51634  4.31641e+22
4.63364  4.24858e+22
4.75095  4.17861e+22
4.86825  4.10709e+22
4.98556  4.03471e+22
5.10286  3.96212e+22
5.22017  3.88981e+22
5.33748  3.81838e+22
5.45478  3.74808e+22
5.57209  3.67906e+22
5.68939  3.61132e+22
5.8067  3.54458e+22
5.924  3.4785e+22
6.0413  3.41263e+22
6.15861  3.34647e+22
6.27591  3.27941e+22
6.39322  3.21109e+22
6.51052  3.14108e+22
6.62783  3.06924e+22
6.74514  2.99549e+22
6.86244  2.92005e+22
6.97975  2.84324e+22
7.09705  2.7656e+22
7.21436  2.68768e+22
7.33166  2.61016e+22
7.44897  2.5337e+22
7.56627  2.45886e+22
7.68358  2.38615e+22
7.80088  2.31584e+22
7.91819  2.24814e+22
8.03549  2.18309e+22
8.1528  2.12042e+22
8.2701  2.05993e+22
8.38741  2.00121e+22
8.50471  1.9437e+22
8.62202  1.88706e+22
8.73932  1.83078e+22
8.85662  1.77446e+22
8.97393  1.71792e+22
9.09123  1.66103e+22
9.20854  1.60382e+22
9.32584  1.54643e+22
9.44315  1.48922e+22
9.56045  1.4325e+22
9.67776  1.37672e+22
9.79506  1.32229e+22
9.91237  1.26953e+22
10.0297  1.21885e+22
10.147  1.17043e+22
10.2643  1.12441e+22
10.3816  1.08088e+22
10.4989  1.03968e+22
10.6162  1.00073e+22
10.7335  9.63771e+21
10.8508  9.2856e+21
10.9681  8.9474e+21
11.0854  8.62077e+21
11.2027  8.30286e+21
11.32  7.992e+21
11.4373  7.68651e+21
11.5546  7.38644e+21
11.6719  7.092e+21
11.7893  6.80456e+21
11.9066  6.52558e+21
12.0239  6.25696e+21
12.1412  6.00082e+21
12.2585  5.7587e+21
12.3758  5.53221e+21
12.4931  5.32193e+21
12.6104  5.12845e+21
12.7277  4.95161e+21
12.845  4.79015e+21
12.9623  4.64328e+21
13.0796  4.5091e+21
13.1969  4.38519e+21
13.3142  4.27029e+21
13.4315  4.1619e+21
13.5488  4.05766e+21
13.6661  3.95679e+21
13.7834  3.85766e+21
13.9007  3.75953e+21
14.018  3.66209e+21
14.1354  3.56583e+21
14.2527  3.47079e+21
14.37  3.3778e+21
14.4873  3.28737e+21
14.6046  3.20045e+21
14.7219  3.11725e+21
14.8392  3.03841e+21
14.9565  2.96412e+21
15.0738  2.89469e+21
15.1911  2.82975e+21
15.3084  2.76937e+21
15.4257  2.71287e+21
15.543  2.66007e+21
15.6603  2.61025e+21
15.7776  2.56296e+21
15.8949  2.51785e+21
16.0122  2.4747e+21
16.1295  2.43322e+21
16.2468  2.39355e+21
16.3641  2.35567e+21
16.4815  2.31965e+21
16.5988  2.28529e+21
16.7161  2.25235e+21
16.8334  2.22013e+21
16.9507  2.18808e+21
17.068  2.1554e+21
17.1853  2.12133e+21
17.3026  2.08544e+21
17.4199  2.04763e+21
17.5372  2.00764e+21
17.6545  1.96591e+21
17.7718  1.92285e+21
17.8891  1.87879e+21
18.0064  1.83447e+21
18.1237  1.79036e+21
18.241  1.74666e+21
18.3583  1.70425e+21
18.4756  1.66359e+21
18.5929  1.62528e+21
18.7102  1.5901e+21
18.8275  1.55859e+21
18.9449  1.53086e+21
19.0622  1.50671e+21
19.1795  1.4853e+21
19.2968  1.4655e+21
19.4141  1.44521e+21
19.5314  1.42285e+21
19.6487  1.39679e+21
19.766  1.36558e+21
19.8833  1.32891e+21
20.0006  1.28692e+21
20.1179  1.24064e+21
20.2352  1.19154e+21
20.3525  1.14163e+21
20.4698  1.09283e+21
20.5871  1.04697e+21
20.7044  1.00554e+21
20.8217  9.697e+20
20.939  9.40333e+20
21.0563  9.17851e+20
21.1736  9.02365e+20
21.291  8.93675e+20
21.4083  8.91059e+20
21.5256  8.93561e+20
21.6429  8.99757e+20
21.7602  9.0772e+20
21.8775  9.15308e+20
21.9948  9.20579e+20
22.1121  9.21774e+20
22.2294  9.17524e+20
22.3467  9.0696e+20
22.464  8.9044e+20
22.5813  8.68678e+20
22.6986  8.43002e+20
22.8159  8.1513e+20
22.9332  7.86874e+20
23.0505  7.59891e+20
23.1678  7.35645e+20
23.2851  7.15172e+20
23.4024  6.99332e+20
23.5198  6.88218e+20
23.6371  6.81869e+20
23.7544  6.79847e+20
23.8717  6.81282e+20
23.989  6.85335e+20
24.1063  6.90575e+20
24.2236  6.95853e+20
24.3409  7.00115e+20
24.4582  7.02126e+20
24.5755  7.0166e+20
24.6928  6.98362e+20
24.8101  6.92662e+20
24.9274  6.85045e+20
25.0447  6.76365e+20
25.162  6.6742e+20
25.2793  6.58753e+20
25.3966  6.5073e+20
25.5139  6.43439e+20
25.6312  6.36747e+20
25.7485  6.30315e+20
25.8658  6.23775e+20
25.9832  6.16919e+20
26.1005  6.09183e+20
26.2178  6.00674e+20
26.3351  5.91233e+20
26.4524  5.80709e+20
26.5697  5.68963e+20
26.687  5.56158e+20
26.8043  5.42342e+20
26.9216  5.27865e+20
27.0389  5.13064e+20
27.1562  4.98758e+20
27.2735  4.85719e+20
27.3908  4.74785e+20
27.5081  4.66493e+20
27.6254  4.61436e+20
27.7427  4.59384e+20
27.86  4.6013e+20
27.9773  4.62816e+20
28.0946  4.66515e+20
28.212  4.7012e+20
28.3293  4.72673e+20
28.4466  4.7328e+20
28.5639  4.71464e+20
28.6812  4.66875e+20
28.7985  4.59612e+20
28.9158  4.49876e+20
29.0331  4.38149e+20
29.1504  4.24924e+20
29.2677  4.1087e+20
29.385  3.96686e+20
29.5023  3.83113e+20
29.6196  3.70778e+20
29.7369  3.60305e+20
29.8542  3.52185e+20
29.9715  3.46704e+20
30.0888  3.43919e+20
30.2061  3.43792e+20
30.3234  3.45923e+20
30.4407  3.49807e+20
30.558  3.5489e+20
30.6754  3.60662e+20
30.7927  3.66333e+20
30.91  3.71511e+20
31.0273  3.75717e+20
31.1446  3.7853e+20
31.2619  3.79713e+20
31.3792  3.79196e+20
31.4965  3.76809e+20
31.6138  3.72875e+20
31.7311  3.67518e+20
31.8484  3.61052e+20
31.9657  3.53847e+20
32.083  3.46358e+20
32.2003  3.38721e+20
32.3176  3.31421e+20
32.4349  3.24472e+20
32.5522  3.18135e+20
32.6695  3.12483e+20
32.7868  3.07604e+20
32.9042  3.03662e+20
33.0215  3.00723e+20
33.1388  2.98787e+20
33.2561  2.97936e+20
33.3734  2.97922e+20
33.4907  2.9862e+20
33.608  2.9951e+20
33.7253  3.0012e+20
33.8426  3.00075e+20
33.9599  2.98773e+20
34.0772  2.96012e+20
34.1945  2.91609e+20
34.3118  2.8558e+20
34.4291  2.78112e+20
34.5464  2.69566e+20
34.6637  2.60361e+20
34.781  2.50853e+20
34.8983  2.41663e+20
35.0156  2.33136e+20
35.1329  2.25669e+20
35.2503  2.19659e+20
35.3676  2.1539e+20
35.4849  2.13005e+20
35.6022  2.12572e+20
35.7195  2.13945e+20
35.8368  2.16751e+20
35.9541  2.20672e+20
36.0714  2.25071e+20
36.1887  2.29332e+20
36.306  2.33013e+20
36.4233  2.3563e+20
36.5406  2.36794e+20
36.6579  2.36365e+20
36.7752  2.34282e+20
36.8925  2.30433e+20
37.0098  2.24983e+20
37.1271  2.17938e+20
37.2444  2.09452e+20
37.3617  1.99753e+20
37.479  1.89177e+20
37.5964  1.78199e+20
37.7137  1.67337e+20
37.831  1.57156e+20
37.9483  1.48255e+20
38.0656  1.41128e+20
38.1829  1.36104e+20
38.3002  1.33206e+20
38.4175  1.32312e+20
38.5348  1.33337e+20
38.6521  1.35819e+20
38.7694  1.39559e+20
38.8867  1.44287e+20
39.004  1.4984e+20
39.1213  1.56089e+20
39.2386  1.62921e+20
39.3559  1.7003e+20
39.4732  1.77025e+20
39.5905  1.83488e+20
39.7078  1.88758e+20
39.8251  1.92282e+20
39.9425  1.93688e+20
40.0598  1.92777e+20
40.1771  1.89616e+20
40.2944  1.84571e+20
40.4117  1.78304e+20
40.529  1.71377e+20
40.6463  1.6462e+20
40.7636  1.58559e+20
40.8809  1.53589e+20
40.9982  1.49977e+20
41.1155  1.47862e+20
41.2328  1.4713e+20
41.3501  1.47805e+20
41.4674  1.49738e+20
41.5847  1.52774e+20
41.702  1.56688e+20
41.8193  1.6112e+20
41.9366  1.6553e+20
42.0539  1.69345e+20
42.1712  1.7188e+20
42.2885  1.72545e+20
42.4059  1.70915e+20
42.5232  1.66834e+20
42.6405  1.60402e+20
42.7578  1.52134e+20
42.8751  1.42757e+20
42.9924  1.32971e+20
43.1097  1.23579e+20
43.227  1.15323e+20
43.3443  1.08549e+20
43.4616  1.03605e+20
43.5789  1.00581e+20
43.6962  9.94764e+19
43.8135  1.00286e+20
43.9308  1.03018e+20
44.0481  1.07587e+20
44.1654  1.13907e+20
44.2827  1.21705e+20
44.4  1.30574e+20
44.5173  1.39885e+20
44.6347  1.48923e+20
44.752  1.56877e+20
44.8693  1.62956e+20
44.9866  1.66571e+20
45.1039  1.6749e+20
45.2212  1.65631e+20
45.3385  1.61386e+20
45.4558  1.55329e+20
45.5731  1.48197e+20
45.6904  1.40797e+20
45.8077  1.33926e+20
45.925  1.28172e+20
46.0423  1.24089e+20
46.1596  1.21928e+20
46.2769  1.21794e+20
46.3942  1.23597e+20
46.5115  1.26999e+20
46.6288  1.31508e+20
46.7461  1.36499e+20
46.8634  1.41205e+20
46.9808  1.44919e+20
47.0981  1.46968e+20
47.2154  1.46901e+20
47.3327  1.44446e+20
47.45  1.3968e+20
47.5673  1.32985e+20
47.6846  1.24797e+20
47.8019  1.15841e+20
47.9192  1.06849e+20
48.0365  9.84031e+19
48.1538  9.11086e+19
48.2711  8.53255e+19
48.3884  8.1301e+19
48.5057  7.9149e+19
48.623  7.88631e+19
48.7403  8.03161e+19
48.8576  8.32209e+19
48.9749  8.71278e+19
49.0922  9.15393e+19
49.2095  9.58224e+19
49.3269  9.92666e+19
49.4442  1.01338e+20
49.5615  1.01514e+20
49.6788  9.95842e+19
49.7961  9.56416e+19
49.9134  8.99866e+19
50.0307  8.31773e+19
50.148  7.58686e+19
50.2653  6.8796e+19
50.3826  6.25439e+19
50.4999  5.7615e+19
50.6172  5.42262e+19
50.7345  5.25211e+19
50.8518  5.24439e+19
