#S 1 spectral density
#N 2
#UFWHM 8.09405
#L  abscissas [um]  spectral density
-58.5938  2.95019e+20
-58.4764  3.05215e+20
-58.3591  3.19876e+20
-58.2418  3.3975e+20
-58.1245  3.64981e+20
-58.0072  3.95357e+20
-57.8899  4.30115e+20
-57.7726  4.68152e+20
-57.6553  5.07636e+20
-57.538  5.46502e+20
-57.4207  5.82715e+20
-57.3034  6.13844e+20
-57.1861  6.38237e+20
-57.0688  6.54398e+20
-56.9515  6.62149e+20
-56.8342  6.61847e+20
-56.7169  6.54775e+20
-56.5996  6.43046e+20
-56.4823  6.29023e+20
-56.365  6.15122e+20
-56.2477  6.03406e+20
-56.1303  5.95204e+20
-56.013  5.91203e+20
-55.8957  5.90934e+20
-55.7784  5.93366e+20
-55.6611  5.9684e+20
-55.5438  5.99396e+20
-55.4265  5.99473e+20
-55.3092  5.9559e+20
-55.1919  5.87168e+20
-55.0746  5.73898e+20
-54.9573  5.5633e+20
-54.84  5.35369e+20
-54.7227  5.12151e+20
-54.6054  4.88118e+20
-54.4881  4.64231e+20
-54.3708  4.41648e+20
-54.2535  4.21075e+20
-54.1362  4.03035e+20
-54.0189  3.877e+20
-53.9016  3.75064e+20
-53.7842  3.64955e+20
-53.6669  3.56993e+20
-53.5496  3.50855e+20
-53.4323  3.461e+20
-53.315  3.42444e+20
-53.1977  3.39554e+20
-53.0804  3.37218e+20
-52.9631  3.35485e+20
-52.8458  3.3435e+20
-52.7285  3.33922e+20
-52.6112  3.34503e+20
-52.4939  3.36347e+20
-52.3766  3.39786e+20
-52.2593  3.44954e+20
-52.142  3.51941e+20
-52.0247  3.60705e+20
-51.9074  3.71044e+20
-51.7901  3.82405e+20
-51.6728  3.94073e+20
-51.5555  4.0499e+20
-51.4381  4.14294e+20
-51.3208  4.20717e+20
-51.2035  4.23438e+20
-51.0862  4.21623e+20
-50.9689  4.15087e+20
-50.8516  4.03938e+20
-50.7343  3.88852e+20
-50.617  3.70931e+20
-50.4997  3.51634e+20
-50.3824  3.32385e+20
-50.2651  3.14786e+20
-50.1478  2.99958e+20
-50.0305  2.88678e+20
-49.9132  2.81313e+20
-49.7959  2.77545e+20
-49.6786  2.76671e+20
-49.5613  2.77617e+20
-49.444  2.79198e+20
-49.3267  2.80018e+20
-49.2094  2.7897e+20
-49.092  2.75226e+20
-48.9747  2.68124e+20
-48.8574  2.5762e+20
-48.7401  2.44023e+20
-48.6228  2.27842e+20
-48.5055  2.09815e+20
-48.3882  1.90988e+20
-48.2709  1.72202e+20
-48.1536  1.54332e+20
-48.0363  1.38058e+20
-47.919  1.23856e+20
-47.8017  1.12088e+20
-47.6844  1.0272e+20
-47.5671  9.57816e+19
-47.4498  9.10733e+19
-47.3325  8.82658e+19
-47.2152  8.70697e+19
-47.0979  8.71776e+19
-46.9806  8.82339e+19
-46.8633  9.00586e+19
-46.7459  9.25117e+19
-46.6286  9.57144e+19
-46.5113  9.99773e+19
-46.394  1.05813e+20
-46.2767  1.14004e+20
-46.1594  1.25445e+20
-46.0421  1.40985e+20
-45.9248  1.61297e+20
-45.8075  1.86792e+20
-45.6902  2.17196e+20
-45.5729  2.51813e+20
-45.4556  2.89144e+20
-45.3383  3.27259e+20
-45.221  3.63934e+20
-45.1037  3.96766e+20
-44.9864  4.23655e+20
-44.8691  4.4315e+20
-44.7518  4.54592e+20
-44.6345  4.58283e+20
-44.5172  4.55485e+20
-44.3998  4.48461e+20
-44.2825  4.39823e+20
-44.1652  4.32746e+20
-44.0479  4.30029e+20
-43.9306  4.34288e+20
-43.8133  4.46966e+20
-43.696  4.68841e+20
-43.5787  4.99273e+20
-43.4614  5.36475e+20
-43.3441  5.77747e+20
-43.2268  6.19946e+20
-43.1095  6.59445e+20
-42.9922  6.92847e+20
-42.8749  7.17638e+20
-42.7576  7.31994e+20
-42.6403  7.35314e+20
-42.523  7.28428e+20
-42.4057  7.13204e+20
-42.2884  6.92215e+20
-42.171  6.68549e+20
-42.0537  6.45225e+20
-41.9364  6.24768e+20
-41.8191  6.08848e+20
-41.7018  5.98131e+20
-41.5845  5.92328e+20
-41.4672  5.90291e+20
-41.3499  5.90403e+20
-41.2326  5.90817e+20
-41.1153  5.89833e+20
-40.998  5.86181e+20
-40.8807  5.79212e+20
-40.7634  5.68578e+20
-40.6461  5.54889e+20
-40.5288  5.38882e+20
-40.4115  5.21702e+20
-40.2942  5.04558e+20
-40.1769  4.88688e+20
-40.0596  4.75576e+20
-39.9423  4.66407e+20
-39.825  4.62333e+20
-39.7076  4.64401e+20
-39.5903  4.73255e+20
-39.473  4.89015e+20
-39.3557  5.11196e+20
-39.2384  5.38629e+20
-39.1211  5.69254e+20
-39.0038  6.00688e+20
-38.8865  6.29977e+20
-38.7692  6.54242e+20
-38.6519  6.70911e+20
-38.5346  6.78134e+20
-38.4173  6.74954e+20
-38.3  6.61622e+20
-38.1827  6.39174e+20
-38.0654  6.09734e+20
-37.9481  5.75821e+20
-37.8308  5.40128e+20
-37.7135  5.05581e+20
-37.5962  4.74317e+20
-37.4789  4.47981e+20
-37.3615  4.2744e+20
-37.2442  4.12783e+20
-37.1269  4.03397e+20
-37.0096  3.98086e+20
-36.8923  3.95143e+20
-36.775  3.92892e+20
-36.6577  3.89653e+20
-36.5404  3.84102e+20
-36.4231  3.75102e+20
-36.3058  3.62137e+20
-36.1885  3.45175e+20
-36.0712  3.2464e+20
-35.9539  3.01312e+20
-35.8366  2.76195e+20
-35.7193  2.50456e+20
-35.602  2.25066e+20
-35.4847  2.01061e+20
-35.3674  1.79138e+20
-35.2501  1.59829e+20
-35.1328  1.43315e+20
-35.0154  1.29733e+20
-34.8981  1.19023e+20
-34.7808  1.10949e+20
-34.6635  1.05185e+20
-34.5462  1.01497e+20
-34.4289  9.95776e+19
-34.3116  9.91516e+19
-34.1943  1.00005e+20
-34.077  1.02138e+20
-33.9597  1.0549e+20
-33.8424  1.10218e+20
-33.7251  1.16534e+20
-33.6078  1.24612e+20
-33.4905  1.34697e+20
-33.3732  1.46875e+20
-33.2559  1.61155e+20
-33.1386  1.77301e+20
-33.0213  1.95046e+20
-32.904  2.13774e+20
-32.7867  2.32742e+20
-32.6693  2.51227e+20
-32.552  2.68247e+20
-32.4347  2.82976e+20
-32.3174  2.94746e+20
-32.2001  3.02966e+20
-32.0828  3.07624e+20
-31.9655  3.08979e+20
-31.8482  3.07897e+20
-31.7309  3.05567e+20
-31.6136  3.03774e+20
-31.4963  3.04264e+20
-31.379  3.08895e+20
-31.2617  3.19134e+20
-31.1444  3.36041e+20
-31.0271  3.59753e+20
-30.9098  3.8977e+20
-30.7925  4.24687e+20
-30.6752  4.62652e+20
-30.5579  5.01313e+20
-30.4406  5.38477e+20
-30.3232  5.72094e+20
-30.2059  6.00508e+20
-30.0886  6.2284e+20
-29.9713  6.38854e+20
-29.854  6.48809e+20
-29.7367  6.53402e+20
-29.6194  6.53672e+20
-29.5021  6.50635e+20
-29.3848  6.45097e+20
-29.2675  6.37925e+20
-29.1502  6.29462e+20
-29.0329  6.20004e+20
-28.9156  6.09789e+20
-28.7983  5.98737e+20
-28.681  5.86888e+20
-28.5637  5.74538e+20
-28.4464  5.61946e+20
-28.3291  5.49888e+20
-28.2118  5.39101e+20
-28.0944  5.30713e+20
-27.9771  5.25692e+20
-27.8598  5.25238e+20
-27.7425  5.3016e+20
-27.6252  5.41001e+20
-27.5079  5.5791e+20
-27.3906  5.80538e+20
-27.2733  6.08222e+20
-27.156  6.39911e+20
-27.0387  6.73996e+20
-26.9214  7.09189e+20
-26.8041  7.43776e+20
-26.6868  7.76538e+20
-26.5695  8.06382e+20
-26.4522  8.32716e+20
-26.3349  8.55229e+20
-26.2176  8.74136e+20
-26.1003  8.90122e+20
-25.983  9.04047e+20
-25.8657  9.17109e+20
-25.7483  9.305e+20
-25.631  9.45315e+20
-25.5137  9.62367e+20
-25.3964  9.82064e+20
-25.2791  1.0041e+21
-25.1618  1.02779e+21
-25.0445  1.05175e+21
-24.9272  1.07402e+21
-24.8099  1.09283e+21
-24.6926  1.10595e+21
-24.5753  1.11139e+21
-24.458  1.10763e+21
-24.3407  1.0934e+21
-24.2234  1.06821e+21
-24.1061  1.03187e+21
-23.9888  9.84974e+20
-23.8715  9.28501e+20
-23.7542  8.63719e+20
-23.6369  7.9285e+20
-23.5196  7.18066e+20
-23.4023  6.41558e+20
-23.2849  5.66143e+20
-23.1676  4.94121e+20
-23.0503  4.27772e+20
-22.933  3.69025e+20
-22.8157  3.18943e+20
-22.6984  2.78553e+20
-22.5811  2.48082e+20
-22.4638  2.27356e+20
-22.3465  2.15749e+20
-22.2292  2.12564e+20
-22.1119  2.16813e+20
-21.9946  2.27494e+20
-21.8773  2.43443e+20
-21.76  2.63476e+20
-21.6427  2.86259e+20
-21.5254  3.10557e+20
-21.4081  3.35212e+20
-21.2908  3.59349e+20
-21.1735  3.82474e+20
-21.0561  4.04659e+20
-20.9388  4.26629e+20
-20.8215  4.49346e+20
-20.7042  4.74145e+20
-20.5869  5.02013e+20
-20.4696  5.337e+20
-20.3523  5.69027e+20
-20.235  6.07013e+20
-20.1177  6.45708e+20
-20.0004  6.82746e+20
-19.8831  7.15432e+20
-19.7658  7.4145e+20
-19.6485  7.58943e+20
-19.5312  7.67296e+20
-19.4139  7.66879e+20
-19.2966  7.59158e+20
-19.1793  7.46263e+20
-19.062  7.30791e+20
-18.9447  7.15188e+20
-18.8274  7.01693e+20
-18.71  6.91646e+20
-18.5927  6.86102e+20
-18.4754  6.84858e+20
-18.3581  6.87636e+20
-18.2408  6.93735e+20
-18.1235  7.02593e+20
-18.0062  7.13488e+20
-17.8889  7.26165e+20
-17.7716  7.40665e+20
-17.6543  7.57211e+20
-17.537  7.76336e+20
-17.4197  7.98402e+20
-17.3024  8.24171e+20
-17.1851  8.54096e+20
-17.0678  8.88421e+20
-16.9505  9.26947e+20
-16.8332  9.69426e+20
-16.7159  1.01484e+21
-16.5986  1.06208e+21
-16.4813  1.10958e+21
-16.364  1.15556e+21
-16.2466  1.19857e+21
-16.1293  1.23768e+21
-16.012  1.2719e+21
-15.8947  1.3012e+21
-15.7774  1.32643e+21
-15.6601  1.34864e+21
-15.5428  1.36975e+21
-15.4255  1.39191e+21
-15.3082  1.41687e+21
-15.1909  1.44703e+21
-15.0736  1.48349e+21
-14.9563  1.52749e+21
-14.839  1.57946e+21
-14.7217  1.63943e+21
-14.6044  1.70669e+21
-14.4871  1.7801e+21
-14.3698  1.85817e+21
-14.2525  1.9391e+21
-14.1352  2.02078e+21
-14.0178  2.1008e+21
-13.9005  2.1767e+21
-13.7832  2.2462e+21
-13.6659  2.30742e+21
-13.5486  2.35837e+21
-13.4313  2.39857e+21
-13.314  2.4275e+21
-13.1967  2.44633e+21
-13.0794  2.45634e+21
-12.9621  2.45986e+21
-12.8448  2.45972e+21
-12.7275  2.45901e+21
-12.6102  2.4603e+21
-12.4929  2.46653e+21
-12.3756  2.47995e+21
-12.2583  2.50122e+21
-12.141  2.53142e+21
-12.0237  2.57064e+21
-11.9064  2.6183e+21
-11.7891  2.67338e+21
-11.6718  2.73479e+21
-11.5544  2.80153e+21
-11.4371  2.87242e+21
-11.3198  2.94699e+21
-11.2025  3.02454e+21
-11.0852  3.10465e+21
-10.9679  3.18768e+21
-10.8506  3.27345e+21
-10.7333  3.36268e+21
-10.616  3.45639e+21
-10.4987  3.55503e+21
-10.3814  3.65982e+21
-10.2641  3.77216e+21
-10.1468  3.89321e+21
-10.0295  4.02379e+21
-9.91217  4.16528e+21
-9.79487  4.31768e+21
-9.67756  4.4811e+21
-9.56026  4.65545e+21
-9.44295  4.83911e+21
-9.32565  5.03111e+21
-9.20834  5.22981e+21
-9.09104  5.43321e+21
-8.97373  5.63965e+21
-8.85643  5.84744e+21
-8.73913  6.05557e+21
-8.62182  6.26332e+21
-8.50452  6.4698e+21
-8.38721  6.67487e+21
-8.26991  6.87838e+21
-8.1526  7.08042e+21
-8.03529  7.28148e+21
-7.91799  7.48185e+21
-7.80069  7.68108e+21
-7.68338  7.88019e+21
-7.56608  8.07906e+21
-7.44877  8.27854e+21
-7.33146  8.47838e+21
-7.21416  8.68001e+21
-7.09685  8.88415e+21
-6.97955  9.09295e+21
-6.86224  9.30772e+21
-6.74494  9.53101e+21
-6.62763  9.76558e+21
-6.51033  1.00143e+22
-6.39302  1.02801e+22
-6.27572  1.05654e+22
-6.15842  1.08729e+22
-6.04111  1.12041e+22
-5.92381  1.15596e+22
-5.8065  1.19406e+22
-5.68919  1.23467e+22
-5.57189  1.27775e+22
-5.45458  1.32337e+22
-5.33728  1.37144e+22
-5.21997  1.42197e+22
-5.10267  1.47496e+22
-4.98536  1.53046e+22
-4.86806  1.58834e+22
-4.75075  1.6487e+22
-4.63345  1.71141e+22
-4.51614  1.7764e+22
-4.39884  1.84361e+22
-4.28154  1.91299e+22
-4.16423  1.98457e+22
-4.04692  2.05838e+22
-3.92962  2.13442e+22
-3.81231  2.21293e+22
-3.69501  2.29398e+22
-3.5777  2.37761e+22
-3.4604  2.46394e+22
-3.34309  2.55272e+22
-3.22579  2.64376e+22
-3.10849  2.73679e+22
-2.99118  2.83115e+22
-2.87387  2.92625e+22
-2.75657  3.02139e+22
-2.63926  3.11578e+22
-2.52196  3.20851e+22
-2.40465  3.29884e+22
-2.28735  3.38594e+22
-2.17005  3.46905e+22
-2.05274  3.54751e+22
-1.93544  3.62071e+22
-1.81813  3.68823e+22
-1.70083  3.74973e+22
-1.58352  3.8051e+22
-1.46622  3.85426e+22
-1.34891  3.89724e+22
-1.2316  3.93446e+22
-1.1143  3.96605e+22
-0.996995  3.9925e+22
-0.87969  4.01436e+22
-0.762385  4.03191e+22
-0.64508  4.04589e+22
-0.527775  4.05663e+22
-0.41047  4.06466e+22
-0.293165  4.07034e+22
-0.17586  4.07407e+22
-0.058555  4.07596e+22
0.05875  4.07622e+22
0.176055  4.07478e+22
0.29336  4.07166e+22
0.410665  4.06648e+22
0.52797  4.05898e+22
0.645275  4.04873e+22
0.76258  4.03539e+22
0.879885  4.01831e+22
0.99719  3.99712e+22
1.1145  3.97126e+22
1.2318  3.94029e+22
1.3491  3.90368e+22
1.46641  3.86131e+22
1.58371  3.81276e+22
1.70102  3.75803e+22
1.81832  3.69709e+22
1.93563  3.63011e+22
2.05294  3.55745e+22
2.17024  3.47951e+22
2.28754  3.39686e+22
2.40485  3.31018e+22
2.52216  3.22016e+22
2.63946  3.12769e+22
2.75677  3.03354e+22
2.87407  2.93854e+22
2.99137  2.84348e+22
3.10868  2.7491e+22
3.22599  2.65601e+22
3.34329  2.56478e+22
3.4606  2.47573e+22
3.5779  2.38915e+22
3.69521  2.30516e+22
3.81251  2.2237e+22
3.92982  2.14475e+22
4.04712  2.06817e+22
4.16443  1.99389e+22
4.28173  1.9218e+22
4.39903  1.85187e+22
4.51634  1.78416e+22
4.63364  1.71867e+22
4.75095  1.65551e+22
4.86825  1.59472e+22
4.98556  1.53638e+22
5.10286  1.48051e+22
5.22017  1.4271e+22
5.33748  1.37625e+22
5.45478  1.3278e+22
5.57209  1.28188e+22
5.68939  1.23844e+22
5.8067  1.19754e+22
5.924  1.15914e+22
6.0413  1.12335e+22
6.15861  1.09002e+22
6.27591  1.05908e+22
6.39322  1.03037e+22
6.51052  1.00366e+22
6.62783  9.78683e+21
6.74514  9.55116e+21
6.86244  9.32739e+21
6.97975  9.11233e+21
7.09705  8.90384e+21
7.21436  8.69998e+21
7.33166  8.49876e+21
7.44897  8.29967e+21
7.56627  8.1013e+21
7.68358  7.90312e+21
7.80088  7.70498e+21
7.91819  7.50621e+21
8.03549  7.30675e+21
8.1528  7.10621e+21
8.2701  6.90423e+21
8.38741  6.70052e+21
8.50471  6.49538e+21
8.62202  6.28875e+21
8.73932  6.08052e+21
8.85662  5.87159e+21
8.97393  5.66281e+21
9.09123  5.45569e+21
9.20854  5.2514e+21
9.32584  5.05182e+21
9.44315  4.85882e+21
9.56045  4.67416e+21
9.67776  4.49889e+21
9.79506  4.33436e+21
9.91237  4.18115e+21
10.0297  4.03871e+21
10.147  3.90699e+21
10.2643  3.78485e+21
10.3816  3.67156e+21
10.4989  3.56536e+21
10.6162  3.46574e+21
10.7335  3.37106e+21
10.8508  3.2806e+21
10.9681  3.19367e+21
11.0854  3.10985e+21
11.2027  3.02889e+21
11.32  2.95064e+21
11.4373  2.87565e+21
11.5546  2.80425e+21
11.6719  2.73745e+21
11.7893  2.67616e+21
11.9066  2.62119e+21
12.0239  2.5743e+21
12.1412  2.53568e+21
12.2585  2.50625e+21
12.3758  2.48563e+21
12.4931  2.47339e+21
12.6104  2.46806e+21
12.7277  2.46735e+21
12.845  2.46879e+21
12.9623  2.46951e+21
13.0796  2.46631e+21
13.1969  2.45649e+21
13.3142  2.43781e+21
13.4315  2.40858e+21
13.5488  2.36829e+21
13.6661  2.31699e+21
13.7834  2.25556e+21
13.9007  2.18574e+21
14.018  2.10956e+21
14.1354  2.02941e+21
14.2527  1.94764e+21
14.37  1.86647e+21
14.4873  1.78828e+21
14.6046  1.71493e+21
14.7219  1.64778e+21
14.8392  1.58786e+21
14.9565  1.53591e+21
15.0738  1.49182e+21
15.1911  1.45518e+21
15.3084  1.42483e+21
15.4257  1.39948e+21
15.543  1.37688e+21
15.6603  1.3551e+21
15.7776  1.33207e+21
15.8949  1.30599e+21
16.0122  1.27562e+21
16.1295  1.24046e+21
16.2468  1.20055e+21
16.3641  1.1565e+21
16.4815  1.10979e+21
16.5988  1.06188e+21
16.7161  1.01426e+21
16.8334  9.68606e+20
16.9507  9.26065e+20
17.068  8.87639e+20
17.1853  8.53472e+20
17.3026  8.23766e+20
17.4199  7.98223e+20
17.5372  7.76498e+20
17.6545  7.57619e+20
17.7718  7.41383e+20
17.8891  7.27248e+20
18.0064  7.14731e+20
18.1237  7.03903e+20
18.241  6.95313e+20
18.3583  6.89268e+20
18.4756  6.86589e+20
18.5929  6.87954e+20
18.7102  6.93747e+20
18.8275  7.03756e+20
18.9449  7.17263e+20
19.0622  7.32772e+20
19.1795  7.48151e+20
19.2968  7.60721e+20
19.4141  7.68128e+20
19.5314  7.68234e+20
19.6487  7.59473e+20
19.766  7.4162e+20
19.8833  7.15345e+20
20.0006  6.82356e+20
20.1179  6.45169e+20
20.2352  6.06381e+20
20.3525  5.68401e+20
20.4698  5.33126e+20
20.5871  5.01431e+20
20.7044  4.73516e+20
20.8217  4.48573e+20
20.939  4.25575e+20
21.0563  4.03371e+20
21.1736  3.80831e+20
21.291  3.57338e+20
21.4083  3.32903e+20
21.5256  3.07988e+20
21.6429  2.83553e+20
21.7602  2.60609e+20
21.8775  2.40633e+20
21.9948  2.24788e+20
22.1121  2.14306e+20
22.2294  2.10348e+20
22.3467  2.13977e+20
22.464  2.26003e+20
22.5813  2.47329e+20
22.6986  2.78401e+20
22.8159  3.19333e+20
22.9332  3.69986e+20
23.0505  4.29415e+20
23.1678  4.96158e+20
23.2851  5.68665e+20
23.4024  6.44374e+20
23.5198  7.21007e+20
23.6371  7.95984e+20
23.7544  8.66786e+20
23.8717  9.31258e+20
23.989  9.87466e+20
24.1063  1.03409e+21
24.2236  1.07002e+21
24.3409  1.09465e+21
24.4582  1.10853e+21
24.5755  1.11172e+21
24.6928  1.1059e+21
24.8101  1.09245e+21
24.9274  1.0735e+21
25.0447  1.05096e+21
25.162  1.02699e+21
25.2793  1.00335e+21
25.3966  9.81364e+20
25.5139  9.61869e+20
25.6312  9.45005e+20
25.7485  9.30232e+20
25.8658  9.16924e+20
25.9832  9.039e+20
26.1005  8.90071e+20
26.2178  8.74036e+20
26.3351  8.55071e+20
26.4524  8.32491e+20
26.5697  8.06111e+20
26.687  7.76172e+20
26.8043  7.43315e+20
26.9216  7.08757e+20
27.0389  6.73625e+20
27.1562  6.39544e+20
27.2735  6.08108e+20
27.3908  5.80501e+20
27.5081  5.57975e+20
27.6254  5.41213e+20
27.7427  5.30581e+20
27.86  5.25733e+20
27.9773  5.26345e+20
28.0946  5.31373e+20
28.212  5.39735e+20
28.3293  5.5051e+20
28.4466  5.62435e+20
28.5639  5.74875e+20
28.6812  5.87218e+20
28.7985  5.98951e+20
28.9158  6.10001e+20
29.0331  6.20173e+20
29.1504  6.29551e+20
29.2677  6.38017e+20
29.385  6.45314e+20
29.5023  6.50831e+20
29.6196  6.53944e+20
29.7369  6.53723e+20
29.8542  6.49016e+20
29.9715  6.38961e+20
30.0888  6.22882e+20
30.2061  6.00384e+20
30.3234  5.71884e+20
30.4407  5.38203e+20
30.558  5.00938e+20
30.6754  4.62276e+20
30.7927  4.24427e+20
30.91  3.89584e+20
31.0273  3.59759e+20
31.1446  3.36282e+20
31.2619  3.19574e+20
31.3792  3.09439e+20
31.4965  3.04942e+20
31.6138  3.04543e+20
31.7311  3.06355e+20
31.8484  3.08556e+20
31.9657  3.09595e+20
32.083  3.08107e+20
32.2003  3.03285e+20
32.3176  2.9492e+20
32.4349  2.83044e+20
32.5522  2.68154e+20
32.6695  2.51034e+20
32.7868  2.32484e+20
32.9042  2.13409e+20
33.0215  1.94626e+20
33.1388  1.76863e+20
33.2561  1.6068e+20
33.3734  1.4637e+20
33.4907  1.34171e+20
33.608  1.24087e+20
33.7253  1.15976e+20
33.8426  1.09651e+20
33.9599  1.04902e+20
34.0772  1.01526e+20
34.1945  9.94061e+19
34.3118  9.85421e+19
34.4291  9.90339e+19
34.5464  1.01006e+20
34.6637  1.04798e+20
34.781  1.1066e+20
34.8983  1.18943e+20
35.0156  1.29856e+20
35.1329  1.43655e+20
35.2503  1.60385e+20
35.3676  1.79958e+20
35.4849  2.02148e+20
35.6022  2.26349e+20
35.7195  2.51847e+20
35.8368  2.77705e+20
35.9541  3.02767e+20
36.0714  3.26035e+20
36.1887  3.46393e+20
36.306  3.63142e+20
36.4233  3.75768e+20
36.5406  3.84408e+20
36.6579  3.8974e+20
36.7752  3.92617e+20
36.8925  3.94622e+20
37.0098  3.9747e+20
37.1271  4.02849e+20
37.2444  4.12304e+20
37.3617  4.27102e+20
37.479  4.47893e+20
37.5964  4.74451e+20
37.7137  5.05939e+20
37.831  5.40719e+20
37.9483  5.76433e+20
38.0656  6.1041e+20
38.1829  6.39785e+20
38.3002  6.62074e+20
38.4175  6.75144e+20
38.5348  6.77977e+20
38.6521  6.70505e+20
38.7694  6.53683e+20
38.8867  6.29216e+20
39.004  5.99893e+20
39.1213  5.68616e+20
39.2386  5.38055e+20
39.3559  5.10883e+20
39.4732  4.88976e+20
39.5905  4.73587e+20
39.7078  4.65034e+20
39.8251  4.63269e+20
39.9425  4.67467e+20
40.0598  4.76764e+20
40.1771  4.90007e+20
40.2944  5.05727e+20
40.4117  5.22731e+20
40.529  5.39749e+20
40.6463  5.55469e+20
40.7636  5.68903e+20
40.8809  5.79044e+20
40.9982  5.8581e+20
41.1155  5.89197e+20
41.2328  5.90051e+20
41.3501  5.8961e+20
41.4674  5.89634e+20
41.5847  5.91873e+20
41.702  5.9809e+20
41.8193  6.09254e+20
41.9366  6.25663e+20
42.0539  6.46498e+20
42.1712  6.70205e+20
42.2885  6.93919e+20
42.4059  7.14941e+20
42.5232  7.29918e+20
42.6405  7.36382e+20
42.7578  7.32539e+20
42.8751  7.17621e+20
42.9924  6.92264e+20
43.1097  6.58266e+20
43.227  6.18378e+20
43.3443  5.76024e+20
43.4616  5.34676e+20
43.5789  4.97554e+20
43.6962  4.67446e+20
43.8135  4.45987e+20
43.9308  4.33653e+20
44.0481  4.29834e+20
44.1654  4.32755e+20
44.2827  4.40156e+20
44.4  4.48901e+20
44.5173  4.55973e+20
44.6347  4.58643e+20
44.752  4.54802e+20
44.8693  4.43127e+20
44.9866  4.23326e+20
45.1039  3.96136e+20
45.2212  3.63174e+20
45.3385  3.26432e+20
45.4558  2.88263e+20
45.5731  2.51011e+20
45.6904  2.16499e+20
45.8077  1.86248e+20
45.925  1.60937e+20
46.0423  1.40756e+20
46.1596  1.25354e+20
46.2769  1.14011e+20
46.3942  1.05817e+20
46.5115  1.00001e+20
46.6288  9.56974e+19
46.7461  9.24214e+19
46.8634  8.99102e+19
46.9808  8.7995e+19
47.0981  8.68768e+19
47.2154  8.67678e+19
47.3327  8.79359e+19
47.45  9.07301e+19
47.5673  9.54797e+19
47.6846  1.02464e+20
47.8019  1.11865e+20
47.9192  1.23776e+20
48.0365  1.38063e+20
48.1538  1.54467e+20
48.2711  1.72461e+20
48.3884  1.91297e+20
48.5057  2.10216e+20
48.623  2.28201e+20
48.7403  2.44392e+20
48.8576  2.57876e+20
48.9749  2.68207e+20
49.0922  2.75084e+20
49.2095  2.78707e+20
49.3269  2.79528e+20
49.4442  2.7857e+20
49.5615  2.76919e+20
49.6788  2.75953e+20
49.7961  2.76853e+20
49.9134  2.80808e+20
50.0307  2.88406e+20
50.148  2.99936e+20
50.2653  3.15044e+20
50.3826  3.32985e+20
50.4999  3.52434e+20
50.6172  3.71939e+20
50.7345  3.89988e+20
