#S 1 spectral density
#N 2
#UFWHM 35.5434
#L  abscissas [um]  spectral density
-58.5938  2.20199e+20
-58.4764  2.30277e+20
-58.3591  2.40234e+20
-58.2418  2.48995e+20
-58.1245  2.55664e+20
-58.0072  2.59405e+20
-57.8899  2.59992e+20
-57.7726  2.57676e+20
-57.6553  2.52964e+20
-57.538  2.46947e+20
-57.4207  2.41065e+20
-57.3034  2.36647e+20
-57.1861  2.34903e+20
-57.0688  2.36614e+20
-56.9515  2.42177e+20
-56.8342  2.51329e+20
-56.7169  2.63298e+20
-56.5996  2.7709e+20
-56.4823  2.91503e+20
-56.365  3.05376e+20
-56.2477  3.17735e+20
-56.1303  3.28091e+20
-56.013  3.3615e+20
-55.8957  3.42073e+20
-55.7784  3.46239e+20
-55.6611  3.49321e+20
-55.5438  3.52201e+20
-55.4265  3.55642e+20
-55.3092  3.60541e+20
-55.1919  3.67468e+20
-55.0746  3.76874e+20
-54.9573  3.88781e+20
-54.84  4.02821e+20
-54.7227  4.18232e+20
-54.6054  4.33903e+20
-54.4881  4.485e+20
-54.3708  4.6074e+20
-54.2535  4.69262e+20
-54.1362  4.73173e+20
-54.0189  4.72178e+20
-53.9016  4.66356e+20
-53.7842  4.56538e+20
-53.6669  4.44101e+20
-53.5496  4.30457e+20
-53.4323  4.17383e+20
-53.315  4.06366e+20
-53.1977  3.98612e+20
-53.0804  3.94912e+20
-52.9631  3.95327e+20
-52.8458  3.99485e+20
-52.7285  4.0649e+20
-52.6112  4.15187e+20
-52.4939  4.24311e+20
-52.3766  4.32781e+20
-52.2593  4.39621e+20
-52.142  4.44538e+20
-52.0247  4.47513e+20
-51.9074  4.49031e+20
-51.7901  4.49682e+20
-51.6728  4.50191e+20
-51.5555  4.51179e+20
-51.4381  4.52963e+20
-51.3208  4.55365e+20
-51.2035  4.58042e+20
-51.0862  4.60083e+20
-50.9689  4.60846e+20
-50.8516  4.59488e+20
-50.7343  4.55319e+20
-50.617  4.4819e+20
-50.4997  4.38206e+20
-50.3824  4.2581e+20
-50.2651  4.11823e+20
-50.1478  3.96988e+20
-50.0305  3.82441e+20
-49.9132  3.69039e+20
-49.7959  3.57719e+20
-49.6786  3.49428e+20
-49.5613  3.44738e+20
-49.444  3.44148e+20
-49.3267  3.4794e+20
-49.2094  3.56028e+20
-49.092  3.67968e+20
-48.9747  3.82979e+20
-48.8574  4.00047e+20
-48.7401  4.17957e+20
-48.6228  4.35503e+20
-48.5055  4.51571e+20
-48.3882  4.65429e+20
-48.2709  4.76718e+20
-48.1536  4.85524e+20
-48.0363  4.92324e+20
-47.919  4.97836e+20
-47.8017  5.03119e+20
-47.6844  5.09124e+20
-47.5671  5.16637e+20
-47.4498  5.26451e+20
-47.3325  5.38899e+20
-47.2152  5.54341e+20
-47.0979  5.72401e+20
-46.9806  5.92574e+20
-46.8633  6.14253e+20
-46.7459  6.36206e+20
-46.6286  6.57157e+20
-46.5113  6.75773e+20
-46.394  6.90776e+20
-46.2767  7.01402e+20
-46.1594  7.06969e+20
-46.0421  7.07569e+20
-45.9248  7.03756e+20
-45.8075  6.96553e+20
-45.6902  6.87154e+20
-45.5729  6.76954e+20
-45.4556  6.67019e+20
-45.3383  6.58247e+20
-45.221  6.50818e+20
-45.1037  6.4479e+20
-44.9864  6.39801e+20
-44.8691  6.35164e+20
-44.7518  6.3021e+20
-44.6345  6.24322e+20
-44.5172  6.16919e+20
-44.3998  6.0802e+20
-44.2825  5.97276e+20
-44.1652  5.85106e+20
-44.0479  5.72142e+20
-43.9306  5.58976e+20
-43.8133  5.46656e+20
-43.696  5.36249e+20
-43.5787  5.28893e+20
-43.4614  5.25426e+20
-43.3441  5.26658e+20
-43.2268  5.32514e+20
-43.1095  5.42813e+20
-42.9922  5.56386e+20
-42.8749  5.71808e+20
-42.7576  5.8737e+20
-42.6403  6.01182e+20
-42.523  6.12041e+20
-42.4057  6.18969e+20
-42.2884  6.21763e+20
-42.171  6.21223e+20
-42.0537  6.18352e+20
-41.9364  6.14962e+20
-41.8191  6.12663e+20
-41.7018  6.12987e+20
-41.5845  6.17175e+20
-41.4672  6.25723e+20
-41.3499  6.38937e+20
-41.2326  6.56182e+20
-41.1153  6.7658e+20
-40.998  6.98987e+20
-40.8807  7.21885e+20
-40.7634  7.43707e+20
-40.6461  7.6283e+20
-40.5288  7.77767e+20
-40.4115  7.87522e+20
-40.2942  7.91422e+20
-40.1769  7.89415e+20
-40.0596  7.82172e+20
-39.9423  7.71032e+20
-39.825  7.57885e+20
-39.7076  7.45248e+20
-39.5903  7.35241e+20
-39.473  7.29743e+20
-39.3557  7.30247e+20
-39.2384  7.37001e+20
-39.1211  7.49359e+20
-39.0038  7.65918e+20
-38.8865  7.84418e+20
-38.7692  8.02354e+20
-38.6519  8.17495e+20
-38.5346  8.27622e+20
-38.4173  8.31732e+20
-38.3  8.2931e+20
-38.1827  8.21012e+20
-38.0654  8.08159e+20
-37.9481  7.92765e+20
-37.8308  7.77268e+20
-37.7135  7.64195e+20
-37.5962  7.55818e+20
-37.4789  7.5425e+20
-37.3615  7.60767e+20
-37.2442  7.76084e+20
-37.1269  7.9987e+20
-37.0096  8.30807e+20
-36.8923  8.66936e+20
-36.775  9.0558e+20
-36.6577  9.43869e+20
-36.5404  9.78743e+20
-36.4231  1.00765e+21
-36.3058  1.02895e+21
-36.1885  1.04167e+21
-36.0712  1.04605e+21
-35.9539  1.0431e+21
-35.8366  1.03473e+21
-35.7193  1.0234e+21
-35.602  1.01158e+21
-35.4847  1.00155e+21
-35.3674  9.95042e+20
-35.2501  9.93266e+20
-35.1328  9.96764e+20
-35.0154  1.00523e+21
-34.8981  1.01804e+21
-34.7808  1.03386e+21
-34.6635  1.05128e+21
-34.5462  1.06883e+21
-34.4289  1.08498e+21
-34.3116  1.09872e+21
-34.1943  1.10925e+21
-34.077  1.11648e+21
-33.9597  1.1208e+21
-33.8424  1.12303e+21
-33.7251  1.12445e+21
-33.6078  1.12664e+21
-33.4905  1.13113e+21
-33.3732  1.13928e+21
-33.2559  1.15225e+21
-33.1386  1.17054e+21
-33.0213  1.19419e+21
-32.904  1.22266e+21
-32.7867  1.25504e+21
-32.6693  1.2902e+21
-32.552  1.32676e+21
-32.4347  1.36357e+21
-32.3174  1.39944e+21
-32.2001  1.43364e+21
-32.0828  1.46586e+21
-31.9655  1.4961e+21
-31.8482  1.5249e+21
-31.7309  1.55324e+21
-31.6136  1.58249e+21
-31.4963  1.61411e+21
-31.379  1.64992e+21
-31.2617  1.6913e+21
-31.1444  1.7395e+21
-31.0271  1.79548e+21
-30.9098  1.85926e+21
-30.7925  1.93045e+21
-30.6752  2.00787e+21
-30.5579  2.08994e+21
-30.4406  2.17463e+21
-30.3232  2.25969e+21
-30.2059  2.34321e+21
-30.0886  2.42334e+21
-29.9713  2.49837e+21
-29.854  2.56779e+21
-29.7367  2.63096e+21
-29.6194  2.68815e+21
-29.5021  2.73981e+21
-29.3848  2.78728e+21
-29.2675  2.83147e+21
-29.1502  2.87369e+21
-29.0329  2.9146e+21
-28.9156  2.95517e+21
-28.7983  2.99529e+21
-28.681  3.0349e+21
-28.5637  3.07357e+21
-28.4464  3.11055e+21
-28.3291  3.14532e+21
-28.2118  3.1775e+21
-28.0944  3.20719e+21
-27.9771  3.23484e+21
-27.8598  3.26114e+21
-27.7425  3.2873e+21
-27.6252  3.31439e+21
-27.5079  3.34341e+21
-27.3906  3.37522e+21
-27.2733  3.41024e+21
-27.156  3.44899e+21
-27.0387  3.49134e+21
-26.9214  3.53757e+21
-26.8041  3.58758e+21
-26.6868  3.64175e+21
-26.5695  3.70013e+21
-26.4522  3.76291e+21
-26.3349  3.83059e+21
-26.2176  3.903e+21
-26.1003  3.98071e+21
-25.983  4.0639e+21
-25.8657  4.15298e+21
-25.7483  4.24846e+21
-25.631  4.35109e+21
-25.5137  4.46135e+21
-25.3964  4.5799e+21
-25.2791  4.70612e+21
-25.1618  4.83983e+21
-25.0445  4.97943e+21
-24.9272  5.12277e+21
-24.8099  5.26698e+21
-24.6926  5.40947e+21
-24.5753  5.54715e+21
-24.458  5.67777e+21
-24.3407  5.79925e+21
-24.2234  5.91129e+21
-24.1061  6.01355e+21
-23.9888  6.10712e+21
-23.8715  6.19391e+21
-23.7542  6.27592e+21
-23.6369  6.35585e+21
-23.5196  6.43592e+21
-23.4023  6.51895e+21
-23.2849  6.60642e+21
-23.1676  6.69938e+21
-23.0503  6.79787e+21
-22.933  6.90117e+21
-22.8157  7.00667e+21
-22.6984  7.11129e+21
-22.5811  7.21082e+21
-22.4638  7.30177e+21
-22.3465  7.37978e+21
-22.2292  7.44257e+21
-22.1119  7.4887e+21
-21.9946  7.51935e+21
-21.8773  7.53711e+21
-21.76  7.54643e+21
-21.6427  7.55353e+21
-21.5254  7.56492e+21
-21.4081  7.58807e+21
-21.2908  7.62948e+21
-21.1735  7.69516e+21
-21.0561  7.78959e+21
-20.9388  7.91572e+21
-20.8215  8.0743e+21
-20.7042  8.26397e+21
-20.5869  8.4808e+21
-20.4696  8.71927e+21
-20.3523  8.97174e+21
-20.235  9.22913e+21
-20.1177  9.48165e+21
-20.0004  9.72003e+21
-19.8831  9.93645e+21
-19.7658  1.01245e+22
-19.6485  1.02807e+22
-19.5312  1.04051e+22
-19.4139  1.05001e+22
-19.2966  1.05706e+22
-19.1793  1.06242e+22
-19.062  1.06686e+22
-18.9447  1.07121e+22
-18.8274  1.07618e+22
-18.71  1.08247e+22
-18.5927  1.09044e+22
-18.4754  1.10035e+22
-18.3581  1.11222e+22
-18.2408  1.12595e+22
-18.1235  1.14119e+22
-18.0062  1.15752e+22
-17.8889  1.17437e+22
-17.7716  1.19129e+22
-17.6543  1.20765e+22
-17.537  1.22308e+22
-17.4197  1.23718e+22
-17.3024  1.24984e+22
-17.1851  1.26106e+22
-17.0678  1.271e+22
-16.9505  1.27998e+22
-16.8332  1.28842e+22
-16.7159  1.29674e+22
-16.5986  1.30532e+22
-16.4813  1.31445e+22
-16.364  1.3243e+22
-16.2466  1.33488e+22
-16.1293  1.34611e+22
-16.012  1.35769e+22
-15.8947  1.36935e+22
-15.7774  1.38077e+22
-15.6601  1.39166e+22
-15.5428  1.4018e+22
-15.4255  1.41105e+22
-15.3082  1.41939e+22
-15.1909  1.42705e+22
-15.0736  1.43417e+22
-14.9563  1.44115e+22
-14.839  1.44836e+22
-14.7217  1.45627e+22
-14.6044  1.46523e+22
-14.4871  1.47562e+22
-14.3698  1.48766e+22
-14.2525  1.50141e+22
-14.1352  1.51683e+22
-14.0178  1.53376e+22
-13.9005  1.55183e+22
-13.7832  1.57065e+22
-13.6659  1.58973e+22
-13.5486  1.60863e+22
-13.4313  1.62687e+22
-13.314  1.64408e+22
-13.1967  1.65998e+22
-13.0794  1.67446e+22
-12.9621  1.68739e+22
-12.8448  1.69891e+22
-12.7275  1.7091e+22
-12.6102  1.71823e+22
-12.4929  1.72656e+22
-12.3756  1.73433e+22
-12.2583  1.74181e+22
-12.141  1.74922e+22
-12.0237  1.75662e+22
-11.9064  1.76407e+22
-11.7891  1.77154e+22
-11.6718  1.77888e+22
-11.5544  1.78598e+22
-11.4371  1.79274e+22
-11.3198  1.79898e+22
-11.2025  1.80473e+22
-11.0852  1.81003e+22
-10.9679  1.81506e+22
-10.8506  1.82012e+22
-10.7333  1.82552e+22
-10.616  1.83165e+22
-10.4987  1.83903e+22
-10.3814  1.84794e+22
-10.2641  1.85875e+22
-10.1468  1.87164e+22
-10.0295  1.88673e+22
-9.91217  1.90388e+22
-9.79487  1.92288e+22
-9.67756  1.94328e+22
-9.56026  1.96453e+22
-9.44295  1.98597e+22
-9.32565  2.00695e+22
-9.20834  2.02673e+22
-9.09104  2.04471e+22
-8.97373  2.06044e+22
-8.85643  2.07359e+22
-8.73913  2.08404e+22
-8.62182  2.09186e+22
-8.50452  2.09737e+22
-8.38721  2.10097e+22
-8.26991  2.10314e+22
-8.1526  2.1045e+22
-8.03529  2.10553e+22
-7.91799  2.10671e+22
-7.80069  2.10839e+22
-7.68338  2.11077e+22
-7.56608  2.11397e+22
-7.44877  2.11791e+22
-7.33146  2.12238e+22
-7.21416  2.12712e+22
-7.09685  2.13182e+22
-6.97955  2.13613e+22
-6.86224  2.13985e+22
-6.74494  2.14289e+22
-6.62763  2.14513e+22
-6.51033  2.14683e+22
-6.39302  2.14825e+22
-6.27572  2.14981e+22
-6.15842  2.15201e+22
-6.04111  2.15538e+22
-5.92381  2.16034e+22
-5.8065  2.16733e+22
-5.68919  2.17649e+22
-5.57189  2.18795e+22
-5.45458  2.20148e+22
-5.33728  2.21685e+22
-5.21997  2.23345e+22
-5.10267  2.25071e+22
-4.98536  2.26785e+22
-4.86806  2.28412e+22
-4.75075  2.29876e+22
-4.63345  2.31116e+22
-4.51614  2.32084e+22
-4.39884  2.32753e+22
-4.28154  2.33126e+22
-4.16423  2.3322e+22
-4.04692  2.33083e+22
-3.92962  2.32775e+22
-3.81231  2.32373e+22
-3.69501  2.31946e+22
-3.5777  2.31564e+22
-3.4604  2.31285e+22
-3.34309  2.31148e+22
-3.22579  2.31172e+22
-3.10849  2.31361e+22
-2.99118  2.31697e+22
-2.87387  2.32154e+22
-2.75657  2.32692e+22
-2.63926  2.33262e+22
-2.52196  2.33818e+22
-2.40465  2.34308e+22
-2.28735  2.34686e+22
-2.17005  2.34921e+22
-2.05274  2.34998e+22
-1.93544  2.34901e+22
-1.81813  2.34652e+22
-1.70083  2.34274e+22
-1.58352  2.33813e+22
-1.46622  2.33316e+22
-1.34891  2.32838e+22
-1.2316  2.3242e+22
-1.1143  2.32098e+22
-0.996995  2.31888e+22
-0.87969  2.31796e+22
-0.762385  2.31806e+22
-0.64508  2.31901e+22
-0.527775  2.32046e+22
-0.41047  2.32209e+22
-0.293165  2.32359e+22
-0.17586  2.32474e+22
-0.058555  2.32534e+22
0.05875  2.3253e+22
0.176055  2.32464e+22
0.29336  2.32339e+22
0.410665  2.32183e+22
0.52797  2.32011e+22
0.645275  2.31857e+22
0.76258  2.31753e+22
0.879885  2.31732e+22
0.99719  2.31812e+22
1.1145  2.32009e+22
1.2318  2.32319e+22
1.3491  2.32726e+22
1.46641  2.33191e+22
1.58371  2.33672e+22
1.70102  2.34119e+22
1.81832  2.3448e+22
1.93563  2.34714e+22
2.05294  2.34795e+22
2.17024  2.3471e+22
2.28754  2.34462e+22
2.40485  2.34071e+22
2.52216  2.33572e+22
2.63946  2.3301e+22
2.75677  2.32429e+22
2.87407  2.31884e+22
2.99137  2.31417e+22
3.10868  2.3107e+22
3.22599  2.30869e+22
3.34329  2.30833e+22
3.4606  2.3096e+22
3.5779  2.31222e+22
3.69521  2.31584e+22
3.81251  2.31993e+22
3.92982  2.32373e+22
4.04712  2.32656e+22
4.16443  2.32771e+22
4.28173  2.32654e+22
4.39903  2.32259e+22
4.51634  2.31567e+22
4.63364  2.30582e+22
4.75095  2.29325e+22
4.86825  2.27847e+22
4.98556  2.2621e+22
5.10286  2.24489e+22
5.22017  2.2276e+22
5.33748  2.21096e+22
5.45478  2.19561e+22
5.57209  2.18208e+22
5.68939  2.17062e+22
5.8067  2.16145e+22
5.924  2.15446e+22
6.0413  2.14949e+22
6.15861  2.14608e+22
6.27591  2.1438e+22
6.39322  2.14216e+22
6.51052  2.14063e+22
6.62783  2.1388e+22
6.74514  2.13639e+22
6.86244  2.13325e+22
6.97975  2.12937e+22
7.09705  2.1249e+22
7.21436  2.12008e+22
7.33166  2.11519e+22
7.44897  2.11059e+22
7.56627  2.10656e+22
7.68358  2.10324e+22
7.80088  2.10073e+22
7.91819  2.09893e+22
8.03549  2.09764e+22
8.1528  2.09654e+22
8.2701  2.09505e+22
8.38741  2.09271e+22
8.50471  2.089e+22
8.62202  2.08333e+22
8.73932  2.07533e+22
8.85662  2.06475e+22
8.97393  2.05146e+22
9.09123  2.03559e+22
9.20854  2.01745e+22
9.32584  1.99757e+22
9.44315  1.97649e+22
9.56045  1.95493e+22
9.67776  1.93361e+22
9.79506  1.91314e+22
9.91237  1.89409e+22
10.0297  1.8769e+22
10.147  1.86179e+22
10.2643  1.84887e+22
10.3816  1.83801e+22
10.4989  1.82908e+22
10.6162  1.82169e+22
10.7335  1.8155e+22
10.8508  1.81004e+22
10.9681  1.80493e+22
11.0854  1.79985e+22
11.2027  1.79447e+22
11.32  1.78864e+22
11.4373  1.7823e+22
11.5546  1.77548e+22
11.6719  1.76829e+22
11.7893  1.76086e+22
11.9066  1.75335e+22
12.0239  1.74579e+22
12.1412  1.73831e+22
12.2585  1.73087e+22
12.3758  1.72332e+22
12.4931  1.71548e+22
12.6104  1.70708e+22
12.7277  1.6979e+22
12.845  1.68767e+22
12.9623  1.67611e+22
13.0796  1.66312e+22
13.1969  1.64864e+22
13.3142  1.63269e+22
13.4315  1.61544e+22
13.5488  1.5972e+22
13.6661  1.57829e+22
13.7834  1.55917e+22
13.9007  1.54033e+22
14.018  1.52226e+22
14.1354  1.50531e+22
14.2527  1.48983e+22
14.37  1.47606e+22
14.4873  1.46399e+22
14.6046  1.45356e+22
14.7219  1.44455e+22
14.8392  1.43661e+22
14.9565  1.42937e+22
15.0738  1.42233e+22
15.1911  1.41518e+22
15.3084  1.4075e+22
15.4257  1.39908e+22
15.543  1.38979e+22
15.6603  1.37961e+22
15.7776  1.36871e+22
15.8949  1.35726e+22
16.0122  1.34555e+22
16.1295  1.33391e+22
16.2468  1.32266e+22
16.3641  1.31201e+22
16.4815  1.30212e+22
16.5988  1.29295e+22
16.7161  1.28428e+22
16.8334  1.27591e+22
16.9507  1.26741e+22
17.068  1.25837e+22
17.1853  1.24837e+22
17.3026  1.23711e+22
17.4199  1.22444e+22
17.5372  1.21034e+22
17.6545  1.19494e+22
17.7718  1.17863e+22
17.8891  1.16182e+22
18.0064  1.14504e+22
18.1237  1.12884e+22
18.241  1.11374e+22
18.3583  1.10013e+22
18.4756  1.08835e+22
18.5929  1.07855e+22
18.7102  1.07067e+22
18.8275  1.06446e+22
18.9449  1.05949e+22
19.0622  1.05516e+22
19.1795  1.0507e+22
19.2968  1.0453e+22
19.4141  1.03818e+22
19.5314  1.02864e+22
19.6487  1.01617e+22
19.766  1.00049e+22
19.8833  9.81695e+21
20.0006  9.60081e+21
20.1179  9.36273e+21
20.2352  9.11115e+21
20.3525  8.85506e+21
20.4698  8.60439e+21
20.5871  8.36767e+21
20.7044  8.15251e+21
20.8217  7.96488e+21
20.939  7.80819e+21
21.0563  7.68357e+21
21.1736  7.59067e+21
21.291  7.52627e+21
21.4083  7.48552e+21
21.5256  7.46321e+21
21.6429  7.452e+21
21.7602  7.44512e+21
21.8775  7.43548e+21
21.9948  7.41746e+21
22.1121  7.38643e+21
22.2294  7.33972e+21
22.3467  7.27644e+21
22.464  7.19823e+21
22.5813  7.10733e+21
22.6986  7.00782e+21
22.8159  6.90341e+21
22.9332  6.79841e+21
23.0505  6.69579e+21
23.1678  6.59792e+21
23.2851  6.50586e+21
23.4024  6.41938e+21
23.5198  6.33727e+21
23.6371  6.25803e+21
23.7544  6.17909e+21
23.8717  6.0979e+21
23.989  6.01197e+21
24.1063  5.91915e+21
24.2236  5.81773e+21
24.3409  5.70667e+21
24.4582  5.58592e+21
24.5755  5.45629e+21
24.6928  5.31946e+21
24.8101  5.17798e+21
24.9274  5.03483e+21
25.0447  4.89263e+21
25.162  4.75437e+21
25.2793  4.62208e+21
25.3966  4.49699e+21
25.5139  4.38005e+21
25.6312  4.2712e+21
25.7485  4.16986e+21
25.8658  4.07582e+21
25.9832  3.98811e+21
26.1005  3.90627e+21
26.2178  3.83001e+21
26.3351  3.75877e+21
26.4524  3.69247e+21
26.5697  3.63079e+21
26.687  3.57358e+21
26.8043  3.52049e+21
26.9216  3.47129e+21
27.0389  3.42593e+21
27.1562  3.38445e+21
27.2735  3.34647e+21
27.3908  3.31217e+21
27.5081  3.28104e+21
27.6254  3.25269e+21
27.7427  3.22627e+21
27.86  3.20083e+21
27.9773  3.17527e+21
28.0946  3.14842e+21
28.212  3.1194e+21
28.3293  3.08804e+21
28.4466  3.05406e+21
28.5639  3.01793e+21
28.6812  2.98005e+21
28.7985  2.94129e+21
28.9158  2.90201e+21
29.0331  2.86226e+21
29.1504  2.82211e+21
29.2677  2.78064e+21
29.385  2.73708e+21
29.5023  2.69029e+21
29.6196  2.63919e+21
29.7369  2.58259e+21
29.8542  2.52006e+21
29.9715  2.45152e+21
30.0888  2.3771e+21
30.2061  2.29799e+21
30.3234  2.21542e+21
30.4407  2.13128e+21
30.558  2.04777e+21
30.6754  1.96685e+21
30.7927  1.89072e+21
30.91  1.82083e+21
31.0273  1.75823e+21
31.1446  1.70346e+21
31.2619  1.6563e+21
31.3792  1.61593e+21
31.4965  1.58108e+21
31.6138  1.55022e+21
31.7311  1.52177e+21
31.8484  1.49415e+21
31.9657  1.46592e+21
32.083  1.43638e+21
32.2003  1.40487e+21
32.3176  1.37124e+21
32.4349  1.3361e+21
32.5522  1.30005e+21
32.6695  1.26429e+21
32.7868  1.22995e+21
32.9042  1.19835e+21
33.0215  1.17073e+21
33.1388  1.14786e+21
33.2561  1.13036e+21
33.3734  1.11806e+21
33.4907  1.11051e+21
33.608  1.10662e+21
33.7253  1.10484e+21
33.8426  1.10388e+21
33.9599  1.10199e+21
34.0772  1.09803e+21
34.1945  1.09112e+21
34.3118  1.08088e+21
34.4291  1.06752e+21
34.5464  1.05173e+21
34.6637  1.03474e+21
34.781  1.0178e+21
34.8983  1.00251e+21
35.0156  9.90245e+20
35.1329  9.82242e+20
35.2503  9.79332e+20
35.3676  9.81462e+20
35.4849  9.88424e+20
35.6022  9.98877e+20
35.7195  1.01094e+21
35.8368  1.02241e+21
35.9541  1.03088e+21
36.0714  1.03388e+21
36.1887  1.02957e+21
36.306  1.01693e+21
36.4233  9.95814e+20
36.5406  9.67064e+20
36.6579  9.32434e+20
36.7752  8.94617e+20
36.8925  8.56528e+20
37.0098  8.20936e+20
37.1271  7.90699e+20
37.2444  7.676e+20
37.3617  7.5294e+20
37.479  7.46994e+20
37.5964  7.4914e+20
37.7137  7.57917e+20
37.831  7.71326e+20
37.9483  7.87016e+20
38.0656  8.02553e+20
38.1829  8.15421e+20
38.3002  8.23672e+20
38.4175  8.2598e+20
38.5348  8.21854e+20
38.6521  8.11672e+20
38.7694  7.96723e+20
38.8867  7.78867e+20
39.004  7.60587e+20
39.1213  7.44363e+20
39.2386  7.32409e+20
39.3559  7.2613e+20
39.4732  7.25997e+20
39.5905  7.31722e+20
39.7078  7.41982e+20
39.8251  7.54811e+20
39.9425  7.67981e+20
40.0598  7.79045e+20
40.1771  7.86185e+20
40.2944  7.88044e+20
40.4117  7.84042e+20
40.529  7.74061e+20
40.6463  7.58991e+20
40.7636  7.39862e+20
40.8809  7.18126e+20
40.9982  6.95394e+20
41.1155  6.73151e+20
41.2328  6.52945e+20
41.3501  6.35932e+20
41.4674  6.22976e+20
41.5847  6.14694e+20
41.702  6.10757e+20
41.8193  6.10666e+20
41.9366  6.13084e+20
42.0539  6.16536e+20
42.1712  6.19346e+20
42.2885  6.19905e+20
42.4059  6.1691e+20
42.5232  6.09892e+20
42.6405  5.98894e+20
42.7578  5.8501e+20
42.8751  5.69446e+20
42.9924  5.53967e+20
43.1097  5.40463e+20
43.227  5.30254e+20
43.3443  5.24476e+20
43.4616  5.23454e+20
43.5789  5.26983e+20
43.6962  5.34431e+20
43.8135  5.44856e+20
43.9308  5.57304e+20
44.0481  5.70447e+20
44.1654  5.83412e+20
44.2827  5.95457e+20
44.4  6.06093e+20
44.5173  6.15028e+20
44.6347  6.22324e+20
44.752  6.28201e+20
44.8693  6.33065e+20
44.9866  6.37622e+20
45.1039  6.42648e+20
45.2212  6.48529e+20
45.3385  6.55857e+20
45.4558  6.64601e+20
45.5731  6.74488e+20
45.6904  6.84613e+20
45.8077  6.93802e+20
45.925  7.00859e+20
46.0423  7.04478e+20
46.1596  7.03649e+20
46.2769  6.97909e+20
46.3942  6.87159e+20
46.5115  6.72027e+20
46.6288  6.53313e+20
46.7461  6.3231e+20
46.8634  6.10457e+20
46.9808  5.88799e+20
47.0981  5.68618e+20
47.2154  5.50665e+20
47.3327  5.35377e+20
47.45  5.22979e+20
47.5673  5.13182e+20
47.6846  5.05722e+20
47.8019  4.99797e+20
47.9192  4.94473e+20
48.0365  4.8893e+20
48.1538  4.82073e+20
48.2711  4.73264e+20
48.3884  4.61913e+20
48.5057  4.48074e+20
48.623  4.31975e+20
48.7403  4.14445e+20
48.8576  3.96637e+20
48.9749  3.79623e+20
49.0922  3.64711e+20
49.2095  3.52927e+20
49.3269  3.44968e+20
49.4442  3.41312e+20
49.5615  3.41985e+20
49.6788  3.46814e+20
49.7961  3.55241e+20
49.9134  3.66588e+20
50.0307  3.80032e+20
50.148  3.94652e+20
50.2653  4.09481e+20
50.3826  4.23573e+20
50.4999  4.35853e+20
50.6172  4.45805e+20
50.7345  4.52869e+20
