#S 1 spectral density
#N 2
#UFWHM 25.3379
#L  abscissas [um]  spectral density
-58.5938  9.8468e+19
-58.4764  9.51337e+19
-58.3591  9.34501e+19
-58.2418  9.32124e+19
-58.1245  9.40002e+19
-58.0072  9.52906e+19
-57.8899  9.66372e+19
-57.7726  9.77091e+19
-57.6553  9.84791e+19
-57.538  9.91749e+19
-57.4207  1.00236e+20
-57.3034  1.02141e+20
-57.1861  1.05356e+20
-57.0688  1.10049e+20
-56.9515  1.16178e+20
-56.8342  1.23283e+20
-56.7169  1.30852e+20
-56.5996  1.38067e+20
-56.4823  1.44397e+20
-56.365  1.49339e+20
-56.2477  1.52677e+20
-56.1303  1.54407e+20
-56.013  1.54849e+20
-55.8957  1.54253e+20
-55.7784  1.53047e+20
-55.6611  1.51425e+20
-55.5438  1.49616e+20
-55.4265  1.478e+20
-55.3092  1.46062e+20
-55.1919  1.44431e+20
-55.0746  1.43083e+20
-54.9573  1.41983e+20
-54.84  1.41288e+20
-54.7227  1.40853e+20
-54.6054  1.40599e+20
-54.4881  1.40265e+20
-54.3708  1.39482e+20
-54.2535  1.37948e+20
-54.1362  1.35408e+20
-54.0189  1.31819e+20
-53.9016  1.27314e+20
-53.7842  1.22349e+20
-53.6669  1.17603e+20
-53.5496  1.1388e+20
-53.4323  1.12036e+20
-53.315  1.12875e+20
-53.1977  1.16955e+20
-53.0804  1.24564e+20
-52.9631  1.35643e+20
-52.8458  1.49775e+20
-52.7285  1.66179e+20
-52.6112  1.83914e+20
-52.4939  2.0183e+20
-52.3766  2.18835e+20
-52.2593  2.33826e+20
-52.142  2.46048e+20
-52.0247  2.54861e+20
-51.9074  2.59909e+20
-51.7901  2.6105e+20
-51.6728  2.58482e+20
-51.5555  2.52357e+20
-51.4381  2.4298e+20
-51.3208  2.30766e+20
-51.2035  2.16078e+20
-51.0862  1.99525e+20
-50.9689  1.81633e+20
-50.8516  1.63172e+20
-50.7343  1.44866e+20
-50.617  1.27592e+20
-50.4997  1.12132e+20
-50.3824  9.9098e+19
-50.2651  8.89856e+19
-50.1478  8.20633e+19
-50.0305  7.83429e+19
-49.9132  7.76959e+19
-49.7959  7.97635e+19
-49.6786  8.41888e+19
-49.5613  9.0564e+19
-49.444  9.84887e+19
-49.3267  1.07539e+20
-49.2094  1.17237e+20
-49.092  1.2711e+20
-48.9747  1.36565e+20
-48.8574  1.45179e+20
-48.7401  1.52488e+20
-48.6228  1.5825e+20
-48.5055  1.62418e+20
-48.3882  1.65241e+20
-48.2709  1.67189e+20
-48.1536  1.68843e+20
-48.0363  1.70839e+20
-47.919  1.73857e+20
-47.8017  1.78341e+20
-47.6844  1.84556e+20
-47.5671  1.92534e+20
-47.4498  2.02235e+20
-47.3325  2.13289e+20
-47.2152  2.25442e+20
-47.0979  2.38176e+20
-46.9806  2.50906e+20
-46.8633  2.63032e+20
-46.7459  2.73809e+20
-46.6286  2.82464e+20
-46.5113  2.88221e+20
-46.394  2.90659e+20
-46.2767  2.89528e+20
-46.1594  2.85136e+20
-46.0421  2.7814e+20
-45.9248  2.69692e+20
-45.8075  2.61138e+20
-45.6902  2.5363e+20
-45.5729  2.48342e+20
-45.4556  2.45704e+20
-45.3383  2.45727e+20
-45.221  2.4776e+20
-45.1037  2.50731e+20
-44.9864  2.53485e+20
-44.8691  2.54884e+20
-44.7518  2.54096e+20
-44.6345  2.50809e+20
-44.5172  2.45219e+20
-44.3998  2.38006e+20
-44.2825  2.29875e+20
-44.1652  2.21909e+20
-44.0479  2.15099e+20
-43.9306  2.10113e+20
-43.8133  2.07487e+20
-43.696  2.07492e+20
-43.5787  2.10114e+20
-43.4614  2.15026e+20
-43.3441  2.21898e+20
-43.2268  2.30024e+20
-43.1095  2.3873e+20
-42.9922  2.47073e+20
-42.8749  2.54333e+20
-42.7576  2.59817e+20
-42.6403  2.63239e+20
-42.523  2.6467e+20
-42.4057  2.64685e+20
-42.2884  2.64214e+20
-42.171  2.64479e+20
-42.0537  2.66806e+20
-41.9364  2.72259e+20
-41.8191  2.81421e+20
-41.7018  2.94218e+20
-41.5845  3.101e+20
-41.4672  3.27888e+20
-41.3499  3.46121e+20
-41.2326  3.63181e+20
-41.1153  3.77852e+20
-40.998  3.8916e+20
-40.8807  3.9669e+20
-40.7634  4.00488e+20
-40.6461  4.01099e+20
-40.5288  3.99147e+20
-40.4115  3.95488e+20
-40.2942  3.91025e+20
-40.1769  3.86146e+20
-40.0596  3.81377e+20
-39.9423  3.77009e+20
-39.825  3.73113e+20
-39.7076  3.69697e+20
-39.5903  3.66696e+20
-39.473  3.6386e+20
-39.3557  3.60989e+20
-39.2384  3.57804e+20
-39.1211  3.53931e+20
-39.0038  3.49301e+20
-38.8865  3.43845e+20
-38.7692  3.37841e+20
-38.6519  3.31928e+20
-38.5346  3.2679e+20
-38.4173  3.23346e+20
-38.3  3.22528e+20
-38.1827  3.25099e+20
-38.0654  3.31497e+20
-37.9481  3.41773e+20
-37.8308  3.55596e+20
-37.7135  3.72227e+20
-37.5962  3.90621e+20
-37.4789  4.09726e+20
-37.3615  4.28376e+20
-37.2442  4.45469e+20
-37.1269  4.60397e+20
-37.0096  4.72185e+20
-36.8923  4.80727e+20
-36.775  4.85805e+20
-36.6577  4.87612e+20
-36.5404  4.86476e+20
-36.4231  4.83002e+20
-36.3058  4.78091e+20
-36.1885  4.72601e+20
-36.0712  4.67428e+20
-35.9539  4.63276e+20
-35.8366  4.6059e+20
-35.7193  4.59582e+20
-35.602  4.59928e+20
-35.4847  4.60854e+20
-35.3674  4.61669e+20
-35.2501  4.61574e+20
-35.1328  4.59877e+20
-35.0154  4.56587e+20
-34.8981  4.52094e+20
-34.7808  4.47417e+20
-34.6635  4.43848e+20
-34.5462  4.43195e+20
-34.4289  4.46901e+20
-34.3116  4.56372e+20
-34.1943  4.72336e+20
-34.077  4.95053e+20
-33.9597  5.23983e+20
-33.8424  5.57857e+20
-33.7251  5.94951e+20
-33.6078  6.33201e+20
-33.4905  6.70341e+20
-33.3732  7.04218e+20
-33.2559  7.3291e+20
-33.1386  7.5529e+20
-33.0213  7.70606e+20
-32.904  7.78917e+20
-32.7867  7.81414e+20
-32.6693  7.79417e+20
-32.552  7.74911e+20
-32.4347  7.70395e+20
-32.3174  7.67535e+20
-32.2001  7.68344e+20
-32.0828  7.73615e+20
-31.9655  7.8365e+20
-31.8482  7.9798e+20
-31.7309  8.15145e+20
-31.6136  8.33643e+20
-31.4963  8.51461e+20
-31.379  8.669e+20
-31.2617  8.7833e+20
-31.1444  8.84891e+20
-31.0271  8.86134e+20
-30.9098  8.82206e+20
-30.7925  8.73947e+20
-30.6752  8.62295e+20
-30.5579  8.48286e+20
-30.4406  8.33128e+20
-30.3232  8.18034e+20
-30.2059  8.03807e+20
-30.0886  7.90825e+20
-29.9713  7.79362e+20
-29.854  7.69326e+20
-29.7367  7.60473e+20
-29.6194  7.52453e+20
-29.5021  7.44862e+20
-29.3848  7.37569e+20
-29.2675  7.30856e+20
-29.1502  7.24828e+20
-29.0329  7.20443e+20
-28.9156  7.18647e+20
-28.7983  7.20545e+20
-28.681  7.27413e+20
-28.5637  7.40186e+20
-28.4464  7.59867e+20
-28.3291  7.86722e+20
-28.2118  8.20638e+20
-28.0944  8.61148e+20
-27.9771  9.06712e+20
-27.8598  9.55471e+20
-27.7425  1.00514e+21
-27.6252  1.05287e+21
-27.5079  1.09615e+21
-27.3906  1.13244e+21
-27.2733  1.16013e+21
-27.156  1.17887e+21
-27.0387  1.1888e+21
-26.9214  1.19197e+21
-26.8041  1.19095e+21
-26.6868  1.18921e+21
-26.5695  1.19002e+21
-26.4522  1.19646e+21
-26.3349  1.21097e+21
-26.2176  1.23454e+21
-26.1003  1.26725e+21
-25.983  1.30778e+21
-25.8657  1.35403e+21
-25.7483  1.40379e+21
-25.631  1.45436e+21
-25.5137  1.50383e+21
-25.3964  1.55029e+21
-25.2791  1.59314e+21
-25.1618  1.63213e+21
-25.0445  1.66792e+21
-24.9272  1.7016e+21
-24.8099  1.73467e+21
-24.6926  1.76885e+21
-24.5753  1.8061e+21
-24.458  1.84749e+21
-24.3407  1.89427e+21
-24.2234  1.9466e+21
-24.1061  2.00393e+21
-23.9888  2.06504e+21
-23.8715  2.12784e+21
-23.7542  2.19025e+21
-23.6369  2.25019e+21
-23.5196  2.30618e+21
-23.4023  2.35775e+21
-23.2849  2.40567e+21
-23.1676  2.45175e+21
-23.0503  2.49877e+21
-22.933  2.5499e+21
-22.8157  2.60807e+21
-22.6984  2.67551e+21
-22.5811  2.75335e+21
-22.4638  2.84187e+21
-22.3465  2.93964e+21
-22.2292  3.04494e+21
-22.1119  3.15512e+21
-21.9946  3.26762e+21
-21.8773  3.3802e+21
-21.76  3.491e+21
-21.6427  3.59909e+21
-21.5254  3.70392e+21
-21.4081  3.80615e+21
-21.2908  3.90676e+21
-21.1735  4.00762e+21
-21.0561  4.11114e+21
-20.9388  4.21961e+21
-20.8215  4.33608e+21
-20.7042  4.46265e+21
-20.5869  4.60086e+21
-20.4696  4.75098e+21
-20.3523  4.91217e+21
-20.235  5.08123e+21
-20.1177  5.25417e+21
-20.0004  5.42579e+21
-19.8831  5.59032e+21
-19.7658  5.74236e+21
-19.6485  5.87759e+21
-19.5312  5.99369e+21
-19.4139  6.08983e+21
-19.2966  6.16736e+21
-19.1793  6.23014e+21
-19.062  6.2828e+21
-18.9447  6.33135e+21
-18.8274  6.38225e+21
-18.71  6.44197e+21
-18.5927  6.51619e+21
-18.4754  6.61014e+21
-18.3581  6.7273e+21
-18.2408  6.87085e+21
-18.1235  7.04119e+21
-18.0062  7.23781e+21
-17.8889  7.45819e+21
-17.7716  7.69901e+21
-17.6543  7.95549e+21
-17.537  8.22221e+21
-17.4197  8.49384e+21
-17.3024  8.76541e+21
-17.1851  9.03321e+21
-17.0678  9.29423e+21
-16.9505  9.54753e+21
-16.8332  9.79276e+21
-16.7159  1.00311e+22
-16.5986  1.02639e+22
-16.4813  1.04931e+22
-16.364  1.07199e+22
-16.2466  1.09444e+22
-16.1293  1.11663e+22
-16.012  1.13843e+22
-15.8947  1.15958e+22
-15.7774  1.17979e+22
-15.6601  1.19878e+22
-15.5428  1.21623e+22
-15.4255  1.23197e+22
-15.3082  1.24589e+22
-15.1909  1.258e+22
-15.0736  1.26852e+22
-14.9563  1.27776e+22
-14.839  1.28622e+22
-14.7217  1.29444e+22
-14.6044  1.30297e+22
-14.4871  1.31245e+22
-14.3698  1.32332e+22
-14.2525  1.33597e+22
-14.1352  1.3506e+22
-14.0178  1.36727e+22
-13.9005  1.38582e+22
-13.7832  1.406e+22
-13.6659  1.42737e+22
-13.5486  1.44963e+22
-13.4313  1.47219e+22
-13.314  1.49474e+22
-13.1967  1.51696e+22
-13.0794  1.53866e+22
-12.9621  1.55979e+22
-12.8448  1.58047e+22
-12.7275  1.60083e+22
-12.6102  1.62124e+22
-12.4929  1.64208e+22
-12.3756  1.66366e+22
-12.2583  1.68636e+22
-12.141  1.71042e+22
-12.0237  1.73595e+22
-11.9064  1.76288e+22
-11.7891  1.79108e+22
-11.6718  1.8202e+22
-11.5544  1.84983e+22
-11.4371  1.8795e+22
-11.3198  1.9087e+22
-11.2025  1.937e+22
-11.0852  1.96414e+22
-10.9679  1.98987e+22
-10.8506  2.01422e+22
-10.7333  2.03728e+22
-10.616  2.05934e+22
-10.4987  2.08078e+22
-10.3814  2.10204e+22
-10.2641  2.12358e+22
-10.1468  2.14583e+22
-10.0295  2.16914e+22
-9.91217  2.19371e+22
-9.79487  2.21964e+22
-9.67756  2.24677e+22
-9.56026  2.27479e+22
-9.44295  2.30325e+22
-9.32565  2.33157e+22
-9.20834  2.3591e+22
-9.09104  2.38515e+22
-8.97373  2.40913e+22
-8.85643  2.43063e+22
-8.73913  2.44921e+22
-8.62182  2.46488e+22
-8.50452  2.47769e+22
-8.38721  2.48792e+22
-8.26991  2.496e+22
-8.1526  2.50245e+22
-8.03529  2.5078e+22
-7.91799  2.51262e+22
-7.80069  2.51743e+22
-7.68338  2.52261e+22
-7.56608  2.52848e+22
-7.44877  2.53524e+22
-7.33146  2.54295e+22
-7.21416  2.5516e+22
-7.09685  2.56113e+22
-6.97955  2.57142e+22
-6.86224  2.58243e+22
-6.74494  2.59413e+22
-6.62763  2.60648e+22
-6.51033  2.61962e+22
-6.39302  2.63376e+22
-6.27572  2.6491e+22
-6.15842  2.66596e+22
-6.04111  2.68456e+22
-5.92381  2.70513e+22
-5.8065  2.72783e+22
-5.68919  2.75266e+22
-5.57189  2.77946e+22
-5.45458  2.8079e+22
-5.33728  2.83757e+22
-5.21997  2.86779e+22
-5.10267  2.89785e+22
-4.98536  2.92691e+22
-4.86806  2.95414e+22
-4.75075  2.97881e+22
-4.63345  3.00027e+22
-4.51614  3.01812e+22
-4.39884  3.03215e+22
-4.28154  3.04249e+22
-4.16423  3.04949e+22
-4.04692  3.05375e+22
-3.92962  3.05607e+22
-3.81231  3.05732e+22
-3.69501  3.05831e+22
-3.5777  3.05983e+22
-3.4604  3.06244e+22
-3.34309  3.06653e+22
-3.22579  3.07222e+22
-3.10849  3.07947e+22
-2.99118  3.08802e+22
-2.87387  3.09748e+22
-2.75657  3.10737e+22
-2.63926  3.11712e+22
-2.52196  3.12627e+22
-2.40465  3.13432e+22
-2.28735  3.14087e+22
-2.17005  3.14576e+22
-2.05274  3.14892e+22
-1.93544  3.15043e+22
-1.81813  3.15064e+22
-1.70083  3.14994e+22
-1.58352  3.14884e+22
-1.46622  3.1479e+22
-1.34891  3.14755e+22
-1.2316  3.14813e+22
-1.1143  3.14984e+22
-0.996995  3.15266e+22
-0.87969  3.15644e+22
-0.762385  3.16081e+22
-0.64508  3.16549e+22
-0.527775  3.17003e+22
-0.41047  3.17409e+22
-0.293165  3.17736e+22
-0.17586  3.17963e+22
-0.058555  3.18078e+22
0.05875  3.1807e+22
0.176055  3.17941e+22
0.29336  3.17696e+22
0.410665  3.17355e+22
0.52797  3.1693e+22
0.645275  3.16456e+22
0.76258  3.15969e+22
0.879885  3.15512e+22
0.99719  3.15113e+22
1.1145  3.14812e+22
1.2318  3.1462e+22
1.3491  3.14542e+22
1.46641  3.14553e+22
1.58371  3.14625e+22
1.70102  3.14711e+22
1.81832  3.14756e+22
1.93563  3.14711e+22
2.05294  3.14532e+22
2.17024  3.14193e+22
2.28754  3.13683e+22
2.40485  3.13001e+22
2.52216  3.12174e+22
2.63946  3.11238e+22
2.75677  3.10237e+22
2.87407  3.09228e+22
2.99137  3.08257e+22
3.10868  3.07379e+22
3.22599  3.06628e+22
3.34329  3.06032e+22
3.4606  3.05598e+22
3.5779  3.05308e+22
3.69521  3.05125e+22
3.81251  3.04997e+22
3.92982  3.04836e+22
4.04712  3.04567e+22
4.16443  3.04107e+22
4.28173  3.0337e+22
4.39903  3.02301e+22
4.51634  3.00865e+22
4.63364  2.99053e+22
4.75095  2.96879e+22
4.86825  2.9439e+22
4.98556  2.91646e+22
5.10286  2.88729e+22
5.22017  2.85711e+22
5.33748  2.82682e+22
5.45478  2.79712e+22
5.57209  2.76866e+22
5.68939  2.74183e+22
5.8067  2.71702e+22
5.924  2.6943e+22
6.0413  2.67371e+22
6.15861  2.65508e+22
6.27591  2.63816e+22
6.39322  2.62276e+22
6.51052  2.60853e+22
6.62783  2.59525e+22
6.74514  2.58275e+22
6.86244  2.57094e+22
6.97975  2.55979e+22
7.09705  2.54932e+22
7.21436  2.53964e+22
7.33166  2.53081e+22
7.44897  2.52295e+22
7.56627  2.51603e+22
7.68358  2.50999e+22
7.80088  2.50464e+22
7.91819  2.49965e+22
8.03549  2.49465e+22
8.1528  2.48912e+22
8.2701  2.48249e+22
8.38741  2.47421e+22
8.50471  2.46379e+22
8.62202  2.45078e+22
8.73932  2.43489e+22
8.85662  2.4161e+22
8.97393  2.39442e+22
9.09123  2.37023e+22
9.20854  2.34401e+22
9.32584  2.31633e+22
9.44315  2.28785e+22
9.56045  2.25923e+22
9.67776  2.23109e+22
9.79506  2.20387e+22
9.91237  2.17784e+22
10.0297  2.15319e+22
10.147  2.12982e+22
10.2643  2.10751e+22
10.3816  2.08593e+22
10.4989  2.06464e+22
10.6162  2.04315e+22
10.7335  2.02107e+22
10.8508  1.998e+22
10.9681  1.97363e+22
11.0854  1.9479e+22
11.2027  1.92078e+22
11.32  1.89247e+22
11.4373  1.86329e+22
11.5546  1.83366e+22
11.6719  1.80404e+22
11.7893  1.77495e+22
11.9066  1.74681e+22
12.0239  1.71987e+22
12.1412  1.69439e+22
12.2585  1.67038e+22
12.3758  1.64773e+22
12.4931  1.62617e+22
12.6104  1.60537e+22
12.7277  1.58499e+22
12.845  1.56465e+22
12.9623  1.54402e+22
13.0796  1.52292e+22
13.1969  1.50125e+22
13.3142  1.47911e+22
13.4315  1.45659e+22
13.5488  1.43407e+22
13.6661  1.4119e+22
13.7834  1.39054e+22
13.9007  1.37043e+22
14.018  1.35191e+22
14.1354  1.33528e+22
14.2527  1.32066e+22
14.37  1.30805e+22
14.4873  1.29718e+22
14.6046  1.2877e+22
14.7219  1.27917e+22
14.8392  1.27097e+22
14.9565  1.2625e+22
15.0738  1.25327e+22
15.1911  1.24275e+22
15.3084  1.23065e+22
15.4257  1.21677e+22
15.543  1.2011e+22
15.6603  1.18369e+22
15.7776  1.1648e+22
15.8949  1.14467e+22
16.0122  1.12362e+22
16.1295  1.10194e+22
16.2468  1.07985e+22
16.3641  1.05746e+22
16.4815  1.03491e+22
16.5988  1.0121e+22
16.7161  9.88883e+21
16.8334  9.65138e+21
16.9507  9.40722e+21
17.068  9.15516e+21
17.1853  8.89531e+21
17.3026  8.62906e+21
17.4199  8.35913e+21
17.5372  8.0893e+21
17.6545  7.82475e+21
17.7718  7.57072e+21
17.8891  7.33214e+21
18.0064  7.11438e+21
18.1237  6.92039e+21
18.241  6.7526e+21
18.3583  6.6116e+21
18.4756  6.4965e+21
18.5929  6.40476e+21
18.7102  6.33235e+21
18.8275  6.27447e+21
18.9449  6.225e+21
19.0622  6.17786e+21
19.1795  6.12639e+21
19.2968  6.06463e+21
19.4141  5.98802e+21
19.5314  5.89294e+21
19.6487  5.77786e+21
19.766  5.64381e+21
19.8833  5.49292e+21
20.0006  5.32996e+21
20.1179  5.15998e+21
20.2352  4.98903e+21
20.3525  4.82188e+21
20.4698  4.66291e+21
20.5871  4.51487e+21
20.7044  4.3788e+21
20.8217  4.25444e+21
20.939  4.14012e+21
21.0563  4.03344e+21
21.1736  3.93198e+21
21.291  3.83289e+21
21.4083  3.73406e+21
21.5256  3.63358e+21
21.6429  3.5304e+21
21.7602  3.42409e+21
21.8775  3.3149e+21
21.9948  3.20399e+21
22.1121  3.09318e+21
22.2294  2.98458e+21
22.3467  2.88108e+21
22.464  2.78498e+21
22.5813  2.69819e+21
22.6986  2.62197e+21
22.8159  2.55629e+21
22.9332  2.49968e+21
23.0505  2.45008e+21
23.1678  2.40435e+21
23.2851  2.35952e+21
23.4024  2.31281e+21
23.5198  2.26245e+21
23.6371  2.20768e+21
23.7544  2.149e+21
23.8717  2.08789e+21
23.989  2.02643e+21
24.1063  1.96674e+21
24.2236  1.91084e+21
24.3409  1.85983e+21
24.4582  1.81449e+21
24.5755  1.77426e+21
24.6928  1.73835e+21
24.8101  1.70524e+21
24.9274  1.6732e+21
25.0447  1.64054e+21
25.162  1.60568e+21
25.2793  1.56762e+21
25.3966  1.52563e+21
25.5139  1.47998e+21
25.6312  1.43154e+21
25.7485  1.38196e+21
25.8658  1.33334e+21
25.9832  1.288e+21
26.1005  1.24871e+21
26.2178  1.21719e+21
26.3351  1.19464e+21
26.4524  1.18116e+21
26.5697  1.17557e+21
26.687  1.17544e+21
26.8043  1.17796e+21
26.9216  1.17947e+21
27.0389  1.17658e+21
27.1562  1.1668e+21
27.2735  1.14838e+21
27.3908  1.12073e+21
27.5081  1.08472e+21
27.6254  1.04181e+21
27.7427  9.94487e+20
27.86  9.45339e+20
27.9773  8.97044e+20
28.0946  8.52172e+20
28.212  8.12369e+20
28.3293  7.79029e+20
28.4466  7.52848e+20
28.5639  7.33748e+20
28.6812  7.21603e+20
28.7985  7.15227e+20
28.9158  7.1376e+20
29.0331  7.16037e+20
29.1504  7.20673e+20
29.2677  7.26993e+20
29.385  7.34066e+20
29.5023  7.41523e+20
29.6196  7.49261e+20
29.7369  7.57507e+20
29.8542  7.66623e+20
29.9715  7.76862e+20
30.0888  7.88393e+20
30.2061  8.01461e+20
30.3234  8.15812e+20
30.4407  8.3096e+20
30.558  8.46095e+20
30.6754  8.60078e+20
30.7927  8.71724e+20
30.91  8.79956e+20
31.0273  8.83696e+20
31.1446  8.82325e+20
31.2619  8.75615e+20
31.3792  8.64073e+20
31.4965  8.48715e+20
31.6138  8.30982e+20
31.7311  8.12447e+20
31.8484  7.95349e+20
31.9657  7.81232e+20
32.083  7.71204e+20
32.2003  7.66003e+20
32.3176  7.65338e+20
32.4349  7.68077e+20
32.5522  7.72625e+20
32.6695  7.76869e+20
32.7868  7.78739e+20
32.9042  7.75975e+20
33.0215  7.67325e+20
33.1388  7.5177e+20
33.2561  7.29165e+20
33.3734  7.00322e+20
33.4907  6.66316e+20
33.608  6.29165e+20
33.7253  5.91058e+20
33.8426  5.54006e+20
33.9599  5.20362e+20
34.0772  4.91667e+20
34.1945  4.69203e+20
34.3118  4.53375e+20
34.4291  4.44079e+20
34.5464  4.40516e+20
34.6637  4.41297e+20
34.781  4.44831e+20
34.8983  4.49501e+20
35.0156  4.53899e+20
35.1329  4.57082e+20
35.2503  4.58637e+20
35.3676  4.58728e+20
35.4849  4.57854e+20
35.6022  4.56876e+20
35.7195  4.56617e+20
35.8368  4.5763e+20
35.9541  4.60239e+20
36.0714  4.64424e+20
36.1887  4.69571e+20
36.306  4.75078e+20
36.4233  4.79919e+20
36.5406  4.83297e+20
36.6579  4.84351e+20
36.7752  4.82497e+20
36.8925  4.77306e+20
37.0098  4.68723e+20
37.1271  4.56843e+20
37.2444  4.42015e+20
37.3617  4.24915e+20
37.479  4.06378e+20
37.5964  3.87331e+20
37.7137  3.69052e+20
37.831  3.52557e+20
37.9483  3.38894e+20
38.0656  3.28721e+20
38.1829  3.22465e+20
38.3002  3.19992e+20
38.4175  3.20877e+20
38.5348  3.24336e+20
38.6521  3.29514e+20
38.7694  3.35451e+20
38.8867  3.41392e+20
39.004  3.4679e+20
39.1213  3.51387e+20
39.2386  3.5525e+20
39.3559  3.5853e+20
39.4732  3.61433e+20
39.5905  3.64278e+20
39.7078  3.67339e+20
39.8251  3.70819e+20
39.9425  3.74766e+20
40.0598  3.79202e+20
40.1771  3.83983e+20
40.2944  3.88902e+20
40.4117  3.93446e+20
40.529  3.9704e+20
40.6463  3.98965e+20
40.7636  3.98375e+20
40.8809  3.94457e+20
40.9982  3.86916e+20
41.1155  3.75561e+20
41.2328  3.60913e+20
41.3501  3.43803e+20
41.4674  3.2569e+20
41.5847  3.08043e+20
41.702  2.92304e+20
41.8193  2.79682e+20
41.9366  2.70733e+20
42.0539  2.65452e+20
42.1712  2.63244e+20
42.2885  2.63052e+20
42.4059  2.6354e+20
42.5232  2.6349e+20
42.6405  2.62008e+20
42.7578  2.58506e+20
42.8751  2.52946e+20
42.9924  2.45634e+20
43.1097  2.37259e+20
43.227  2.28584e+20
43.3443  2.20504e+20
43.4616  2.13731e+20
43.5789  2.08882e+20
43.6962  2.06385e+20
43.8135  2.06513e+20
43.9308  2.0927e+20
44.0481  2.14337e+20
44.1654  2.212e+20
44.2827  2.29177e+20
44.4  2.37297e+20
44.5173  2.44549e+20
44.6347  2.50076e+20
44.752  2.53266e+20
44.8693  2.5393e+20
44.9866  2.52515e+20
45.1039  2.49754e+20
45.2212  2.46765e+20
45.3385  2.44829e+20
45.4558  2.44916e+20
45.5731  2.47641e+20
45.6904  2.53085e+20
45.8077  2.60593e+20
45.925  2.69211e+20
46.0423  2.7766e+20
46.1596  2.84609e+20
46.2769  2.88908e+20
46.3942  2.89935e+20
46.5115  2.87442e+20
46.6288  2.8156e+20
46.7461  2.72847e+20
46.8634  2.62066e+20
46.9808  2.4994e+20
47.0981  2.37208e+20
47.2154  2.24556e+20
47.3327  2.12461e+20
47.45  2.01447e+20
47.5673  1.91826e+20
47.6846  1.83926e+20
47.8019  1.77791e+20
47.9192  1.73377e+20
48.0365  1.7041e+20
48.1538  1.68418e+20
48.2711  1.66782e+20
48.3884  1.64853e+20
48.5057  1.61998e+20
48.623  1.57792e+20
48.7403  1.51999e+20
48.8576  1.44627e+20
48.9749  1.35995e+20
49.0922  1.26527e+20
49.2095  1.16685e+20
49.3269  1.06991e+20
49.4442  9.80122e+19
49.5615  9.01264e+19
49.6788  8.38106e+19
49.7961  7.9452e+19
49.9134  7.74675e+19
50.0307  7.82341e+19
50.148  8.20413e+19
50.2653  8.90708e+19
50.3826  9.92641e+19
50.4999  1.12381e+20
50.6172  1.2793e+20
50.7345  1.45264e+20
50.8518  1.63579e+20
