#S 1 spectral density
#N 2
#UFWHM 16.4227
#L  abscissas [um]  spectral density
-58.5938  1.22449e+20
-58.4764  1.1963e+20
-58.3591  1.17669e+20
-58.2418  1.16457e+20
-58.1245  1.15755e+20
-58.0072  1.1522e+20
-57.8899  1.14673e+20
-57.7726  1.14025e+20
-57.6553  1.13228e+20
-57.538  1.125e+20
-57.4207  1.12113e+20
-57.3034  1.12348e+20
-57.1861  1.13362e+20
-57.0688  1.15239e+20
-56.9515  1.17864e+20
-56.8342  1.20981e+20
-56.7169  1.24227e+20
-56.5996  1.27276e+20
-56.4823  1.29859e+20
-56.365  1.31911e+20
-56.2477  1.33445e+20
-56.1303  1.34661e+20
-56.013  1.35763e+20
-55.8957  1.36991e+20
-55.7784  1.38437e+20
-55.6611  1.40141e+20
-55.5438  1.42033e+20
-55.4265  1.43961e+20
-55.3092  1.45749e+20
-55.1919  1.4723e+20
-55.0746  1.48389e+20
-54.9573  1.49151e+20
-54.84  1.49627e+20
-54.7227  1.49846e+20
-54.6054  1.49979e+20
-54.4881  1.50015e+20
-54.3708  1.49981e+20
-54.2535  1.49825e+20
-54.1362  1.49487e+20
-54.0189  1.48852e+20
-53.9016  1.47891e+20
-53.7842  1.46607e+20
-53.6669  1.45095e+20
-53.5496  1.43472e+20
-53.4323  1.41958e+20
-53.315  1.40744e+20
-53.1977  1.40068e+20
-53.0804  1.40153e+20
-52.9631  1.41015e+20
-52.8458  1.4268e+20
-52.7285  1.44986e+20
-52.6112  1.47641e+20
-52.4939  1.50243e+20
-52.3766  1.52417e+20
-52.2593  1.5377e+20
-52.142  1.54018e+20
-52.0247  1.53051e+20
-51.9074  1.50839e+20
-51.7901  1.47589e+20
-51.6728  1.43605e+20
-51.5555  1.39194e+20
-51.4381  1.34728e+20
-51.3208  1.3052e+20
-51.2035  1.26853e+20
-51.0862  1.23869e+20
-50.9689  1.21795e+20
-50.8516  1.20807e+20
-50.7343  1.21098e+20
-50.617  1.22775e+20
-50.4997  1.25927e+20
-50.3824  1.30599e+20
-50.2651  1.36507e+20
-50.1478  1.43358e+20
-50.0305  1.50584e+20
-49.9132  1.57647e+20
-49.7959  1.63959e+20
-49.6786  1.69064e+20
-49.5613  1.72614e+20
-49.444  1.74627e+20
-49.3267  1.75221e+20
-49.2094  1.74726e+20
-49.092  1.73599e+20
-48.9747  1.72347e+20
-48.8574  1.71341e+20
-48.7401  1.7093e+20
-48.6228  1.71298e+20
-48.5055  1.72552e+20
-48.3882  1.74759e+20
-48.2709  1.77855e+20
-48.1536  1.81815e+20
-48.0363  1.8649e+20
-47.919  1.9162e+20
-47.8017  1.96875e+20
-47.6844  2.01867e+20
-47.5671  2.06117e+20
-47.4498  2.09124e+20
-47.3325  2.10625e+20
-47.2152  2.10257e+20
-47.0979  2.0809e+20
-46.9806  2.04277e+20
-46.8633  1.99159e+20
-46.7459  1.93187e+20
-46.6286  1.86908e+20
-46.5113  1.80853e+20
-46.394  1.7536e+20
-46.2767  1.70854e+20
-46.1594  1.67555e+20
-46.0421  1.65642e+20
-45.9248  1.6512e+20
-45.8075  1.6596e+20
-45.6902  1.68095e+20
-45.5729  1.71202e+20
-45.4556  1.74989e+20
-45.3383  1.79101e+20
-45.221  1.83152e+20
-45.1037  1.8688e+20
-44.9864  1.90161e+20
-44.8691  1.92914e+20
-44.7518  1.95376e+20
-44.6345  1.97785e+20
-44.5172  2.00372e+20
-44.3998  2.03367e+20
-44.2825  2.06836e+20
-44.1652  2.10653e+20
-44.0479  2.146e+20
-43.9306  2.1826e+20
-43.8133  2.21334e+20
-43.696  2.23571e+20
-43.5787  2.25005e+20
-43.4614  2.25836e+20
-43.3441  2.26468e+20
-43.2268  2.27302e+20
-43.1095  2.28892e+20
-42.9922  2.31524e+20
-42.8749  2.35373e+20
-42.7576  2.40351e+20
-42.6403  2.46374e+20
-42.523  2.53038e+20
-42.4057  2.60171e+20
-42.2884  2.67507e+20
-42.171  2.74904e+20
-42.0537  2.8216e+20
-41.9364  2.89219e+20
-41.8191  2.95767e+20
-41.7018  3.01459e+20
-41.5845  3.05892e+20
-41.4672  3.08559e+20
-41.3499  3.09082e+20
-41.2326  3.07166e+20
-41.1153  3.02823e+20
-40.998  2.96365e+20
-40.8807  2.88209e+20
-40.7634  2.78978e+20
-40.6461  2.69478e+20
-40.5288  2.60264e+20
-40.4115  2.51886e+20
-40.2942  2.44869e+20
-40.1769  2.39318e+20
-40.0596  2.35529e+20
-39.9423  2.33677e+20
-39.825  2.33843e+20
-39.7076  2.36198e+20
-39.5903  2.40742e+20
-39.473  2.47391e+20
-39.3557  2.55972e+20
-39.2384  2.6581e+20
-39.1211  2.76251e+20
-39.0038  2.86357e+20
-38.8865  2.95349e+20
-38.7692  3.02374e+20
-38.6519  3.06977e+20
-38.5346  3.08832e+20
-38.4173  3.08235e+20
-38.3  3.05436e+20
-38.1827  3.01054e+20
-38.0654  2.95676e+20
-37.9481  2.89994e+20
-37.8308  2.84412e+20
-37.7135  2.79411e+20
-37.5962  2.75295e+20
-37.4789  2.72326e+20
-37.3615  2.7062e+20
-37.2442  2.70505e+20
-37.1269  2.71957e+20
-37.0096  2.75106e+20
-36.8923  2.79875e+20
-36.775  2.86021e+20
-36.6577  2.93247e+20
-36.5404  3.01074e+20
-36.4231  3.09042e+20
-36.3058  3.16728e+20
-36.1885  3.23739e+20
-36.0712  3.29833e+20
-35.9539  3.35043e+20
-35.8366  3.39335e+20
-35.7193  3.42819e+20
-35.602  3.45845e+20
-35.4847  3.48485e+20
-35.3674  3.50975e+20
-35.2501  3.53507e+20
-35.1328  3.56228e+20
-35.0154  3.59294e+20
-34.8981  3.6275e+20
-34.7808  3.66654e+20
-34.6635  3.71179e+20
-34.5462  3.76032e+20
-34.4289  3.81199e+20
-34.3116  3.86315e+20
-34.1943  3.91223e+20
-34.077  3.95535e+20
-33.9597  3.99148e+20
-33.8424  4.01809e+20
-33.7251  4.03755e+20
-33.6078  4.04979e+20
-33.4905  4.05748e+20
-33.3732  4.06296e+20
-33.2559  4.06851e+20
-33.1386  4.07554e+20
-33.0213  4.08542e+20
-32.904  4.09887e+20
-32.7867  4.11677e+20
-32.6693  4.13834e+20
-32.552  4.16626e+20
-32.4347  4.19926e+20
-32.3174  4.23938e+20
-32.2001  4.28633e+20
-32.0828  4.33887e+20
-31.9655  4.39592e+20
-31.8482  4.45638e+20
-31.7309  4.5167e+20
-31.6136  4.57622e+20
-31.4963  4.63296e+20
-31.379  4.68684e+20
-31.2617  4.73884e+20
-31.1444  4.79024e+20
-31.0271  4.84313e+20
-30.9098  4.90078e+20
-30.7925  4.96618e+20
-30.6752  5.04041e+20
-30.5579  5.12506e+20
-30.4406  5.22122e+20
-30.3232  5.32732e+20
-30.2059  5.4415e+20
-30.0886  5.55943e+20
-29.9713  5.67842e+20
-29.854  5.79109e+20
-29.7367  5.89333e+20
-29.6194  5.97832e+20
-29.5021  6.04317e+20
-29.3848  6.08387e+20
-29.2675  6.10145e+20
-29.1502  6.09482e+20
-29.0329  6.07011e+20
-28.9156  6.03056e+20
-28.7983  5.98204e+20
-28.681  5.92993e+20
-28.5637  5.87921e+20
-28.4464  5.83435e+20
-28.3291  5.79969e+20
-28.2118  5.77861e+20
-28.0944  5.775e+20
-27.9771  5.78972e+20
-27.8598  5.82635e+20
-27.7425  5.88316e+20
-27.6252  5.95925e+20
-27.5079  6.05014e+20
-27.3906  6.14861e+20
-27.2733  6.24833e+20
-27.156  6.34358e+20
-27.0387  6.42755e+20
-26.9214  6.49908e+20
-26.8041  6.55824e+20
-26.6868  6.60869e+20
-26.5695  6.65511e+20
-26.4522  6.7028e+20
-26.3349  6.7566e+20
-26.2176  6.81898e+20
-26.1003  6.89228e+20
-25.983  6.97369e+20
-25.8657  7.06087e+20
-25.7483  7.15284e+20
-25.631  7.24637e+20
-25.5137  7.34165e+20
-25.3964  7.4385e+20
-25.2791  7.53926e+20
-25.1618  7.64434e+20
-25.0445  7.75604e+20
-24.9272  7.87341e+20
-24.8099  7.99694e+20
-24.6926  8.12672e+20
-24.5753  8.26316e+20
-24.458  8.4068e+20
-24.3407  8.56122e+20
-24.2234  8.72907e+20
-24.1061  8.91252e+20
-23.9888  9.11411e+20
-23.8715  9.33257e+20
-23.7542  9.56526e+20
-23.6369  9.808e+20
-23.5196  1.00545e+21
-23.4023  1.02978e+21
-23.2849  1.05323e+21
-23.1676  1.07546e+21
-23.0503  1.09603e+21
-22.933  1.11496e+21
-22.8157  1.13215e+21
-22.6984  1.14756e+21
-22.5811  1.16128e+21
-22.4638  1.17348e+21
-22.3465  1.18444e+21
-22.2292  1.19452e+21
-22.1119  1.20443e+21
-21.9946  1.21486e+21
-21.8773  1.22656e+21
-21.76  1.24016e+21
-21.6427  1.25601e+21
-21.5254  1.27402e+21
-21.4081  1.29413e+21
-21.2908  1.31544e+21
-21.1735  1.33716e+21
-21.0561  1.35881e+21
-20.9388  1.3796e+21
-20.8215  1.39921e+21
-20.7042  1.41799e+21
-20.5869  1.43614e+21
-20.4696  1.45411e+21
-20.3523  1.47241e+21
-20.235  1.49115e+21
-20.1177  1.51034e+21
-20.0004  1.52998e+21
-19.8831  1.54947e+21
-19.7658  1.56881e+21
-19.6485  1.58782e+21
-19.5312  1.60679e+21
-19.4139  1.62578e+21
-19.2966  1.64546e+21
-19.1793  1.66601e+21
-19.062  1.68764e+21
-18.9447  1.71025e+21
-18.8274  1.73349e+21
-18.71  1.7567e+21
-18.5927  1.7795e+21
-18.4754  1.80172e+21
-18.3581  1.82313e+21
-18.2408  1.84462e+21
-18.1235  1.8669e+21
-18.0062  1.89107e+21
-17.8889  1.91828e+21
-17.7716  1.94957e+21
-17.6543  1.98585e+21
-17.537  2.02733e+21
-17.4197  2.07428e+21
-17.3024  2.1266e+21
-17.1851  2.18401e+21
-17.0678  2.24626e+21
-16.9505  2.31299e+21
-16.8332  2.38392e+21
-16.7159  2.45907e+21
-16.5986  2.53809e+21
-16.4813  2.62081e+21
-16.364  2.70728e+21
-16.2466  2.79709e+21
-16.1293  2.8897e+21
-16.012  2.98558e+21
-15.8947  3.08442e+21
-15.7774  3.1865e+21
-15.6601  3.29216e+21
-15.5428  3.40179e+21
-15.4255  3.51566e+21
-15.3082  3.63454e+21
-15.1909  3.75819e+21
-15.0736  3.88722e+21
-14.9563  4.02144e+21
-14.839  4.16126e+21
-14.7217  4.30631e+21
-14.6044  4.457e+21
-14.4871  4.61351e+21
-14.3698  4.77602e+21
-14.2525  4.94489e+21
-14.1352  5.12068e+21
-14.0178  5.30367e+21
-13.9005  5.49445e+21
-13.7832  5.69371e+21
-13.6659  5.90152e+21
-13.5486  6.1193e+21
-13.4313  6.34675e+21
-13.314  6.58464e+21
-13.1967  6.83315e+21
-13.0794  7.09207e+21
-12.9621  7.36186e+21
-12.8448  7.64167e+21
-12.7275  7.93127e+21
-12.6102  8.23021e+21
-12.4929  8.53847e+21
-12.3756  8.85539e+21
-12.2583  9.18103e+21
-12.141  9.51536e+21
-12.0237  9.85883e+21
-11.9064  1.02114e+22
-11.7891  1.05739e+22
-11.6718  1.09468e+22
-11.5544  1.13307e+22
-11.4371  1.17256e+22
-11.3198  1.21322e+22
-11.2025  1.25507e+22
-11.0852  1.2981e+22
-10.9679  1.34228e+22
-10.8506  1.38753e+22
-10.7333  1.43369e+22
-10.616  1.48069e+22
-10.4987  1.52824e+22
-10.3814  1.57619e+22
-10.2641  1.62429e+22
-10.1468  1.67232e+22
-10.0295  1.72009e+22
-9.91217  1.76745e+22
-9.79487  1.81432e+22
-9.67756  1.86062e+22
-9.56026  1.90635e+22
-9.44295  1.9516e+22
-9.32565  1.99646e+22
-9.20834  2.04109e+22
-9.09104  2.08568e+22
-8.97373  2.13041e+22
-8.85643  2.17565e+22
-8.73913  2.22149e+22
-8.62182  2.26826e+22
-8.50452  2.31615e+22
-8.38721  2.3653e+22
-8.26991  2.4159e+22
-8.1526  2.46793e+22
-8.03529  2.5214e+22
-7.91799  2.57619e+22
-7.80069  2.63227e+22
-7.68338  2.68933e+22
-7.56608  2.7472e+22
-7.44877  2.80561e+22
-7.33146  2.86428e+22
-7.21416  2.92288e+22
-7.09685  2.98116e+22
-6.97955  3.03879e+22
-6.86224  3.09553e+22
-6.74494  3.15114e+22
-6.62763  3.20543e+22
-6.51033  3.25827e+22
-6.39302  3.30957e+22
-6.27572  3.35932e+22
-6.15842  3.40753e+22
-6.04111  3.45423e+22
-5.92381  3.49955e+22
-5.8065  3.54358e+22
-5.68919  3.58644e+22
-5.57189  3.62833e+22
-5.45458  3.66935e+22
-5.33728  3.70971e+22
-5.21997  3.74956e+22
-5.10267  3.78904e+22
-4.98536  3.82828e+22
-4.86806  3.86733e+22
-4.75075  3.90629e+22
-4.63345  3.94513e+22
-4.51614  3.98386e+22
-4.39884  4.02241e+22
-4.28154  4.06074e+22
-4.16423  4.09886e+22
-4.04692  4.13662e+22
-3.92962  4.174e+22
-3.81231  4.21095e+22
-3.69501  4.24731e+22
-3.5777  4.28299e+22
-3.4604  4.31779e+22
-3.34309  4.35153e+22
-3.22579  4.38399e+22
-3.10849  4.41505e+22
-2.99118  4.44452e+22
-2.87387  4.47236e+22
-2.75657  4.49853e+22
-2.63926  4.52308e+22
-2.52196  4.54608e+22
-2.40465  4.56768e+22
-2.28735  4.58796e+22
-2.17005  4.60713e+22
-2.05274  4.62536e+22
-1.93544  4.64277e+22
-1.81813  4.65959e+22
-1.70083  4.67598e+22
-1.58352  4.69209e+22
-1.46622  4.70807e+22
-1.34891  4.72397e+22
-1.2316  4.73979e+22
-1.1143  4.75545e+22
-0.996995  4.77077e+22
-0.87969  4.78552e+22
-0.762385  4.79932e+22
-0.64508  4.81194e+22
-0.527775  4.82302e+22
-0.41047  4.83227e+22
-0.293165  4.83946e+22
-0.17586  4.84443e+22
-0.058555  4.84707e+22
0.05875  4.84731e+22
0.176055  4.84516e+22
0.29336  4.84067e+22
0.410665  4.83397e+22
0.52797  4.8252e+22
0.645275  4.81461e+22
0.76258  4.80249e+22
0.879885  4.78916e+22
0.99719  4.77493e+22
1.1145  4.76013e+22
1.2318  4.74499e+22
1.3491  4.72971e+22
1.46641  4.71435e+22
1.58371  4.69892e+22
1.70102  4.68336e+22
1.81832  4.66753e+22
1.93563  4.65127e+22
2.05294  4.6344e+22
2.17024  4.61676e+22
2.28754  4.59816e+22
2.40485  4.57841e+22
2.52216  4.55737e+22
2.63946  4.5349e+22
2.75677  4.51085e+22
2.87407  4.48516e+22
2.99137  4.45779e+22
3.10868  4.42874e+22
3.22599  4.39811e+22
3.34329  4.36604e+22
3.4606  4.33268e+22
3.5779  4.29826e+22
3.69521  4.26296e+22
3.81251  4.22696e+22
3.92982  4.19037e+22
4.04712  4.15335e+22
4.16443  4.11596e+22
4.28173  4.07825e+22
4.39903  4.04028e+22
4.51634  4.00213e+22
4.63364  3.96384e+22
4.75095  3.92541e+22
4.86825  3.88689e+22
4.98556  3.84825e+22
5.10286  3.80948e+22
5.22017  3.77038e+22
5.33748  3.73093e+22
5.45478  3.69095e+22
5.57209  3.65026e+22
5.68939  3.60871e+22
5.8067  3.56611e+22
5.924  3.52233e+22
6.0413  3.47724e+22
6.15861  3.43074e+22
6.27591  3.38267e+22
6.39322  3.33308e+22
6.51052  3.28189e+22
6.62783  3.22917e+22
6.74514  3.17495e+22
6.86244  3.11944e+22
6.97975  3.06279e+22
7.09705  3.00523e+22
7.21436  2.94702e+22
7.33166  2.88848e+22
7.44897  2.82988e+22
7.56627  2.77152e+22
7.68358  2.71369e+22
7.80088  2.65664e+22
7.91819  2.6006e+22
8.03549  2.5458e+22
8.1528  2.49229e+22
8.2701  2.44024e+22
8.38741  2.38962e+22
8.50471  2.34038e+22
8.62202  2.29241e+22
8.73932  2.24555e+22
8.85662  2.19957e+22
8.97393  2.15424e+22
9.09123  2.10931e+22
9.20854  2.06458e+22
9.32584  2.01976e+22
9.44315  1.97471e+22
9.56045  1.92925e+22
9.67776  1.88329e+22
9.79506  1.83679e+22
9.91237  1.78963e+22
10.0297  1.74201e+22
10.147  1.69395e+22
10.2643  1.6456e+22
10.3816  1.59722e+22
10.4989  1.54892e+22
10.6162  1.50102e+22
10.7335  1.45369e+22
10.8508  1.40717e+22
10.9681  1.36155e+22
11.0854  1.31703e+22
11.2027  1.27363e+22
11.32  1.23141e+22
11.4373  1.19037e+22
11.5546  1.15049e+22
11.6719  1.11174e+22
11.7893  1.07407e+22
11.9066  1.03743e+22
12.0239  1.00176e+22
12.1412  9.67035e+21
12.2585  9.33188e+21
12.3758  9.00225e+21
12.4931  8.68127e+21
12.6104  8.36896e+21
12.7277  8.06584e+21
12.845  7.77179e+21
12.9623  7.48797e+21
13.0796  7.2144e+21
13.1969  6.95121e+21
13.3142  6.69895e+21
13.4315  6.4573e+21
13.5488  6.22592e+21
13.6661  6.00473e+21
13.7834  5.79306e+21
13.9007  5.59052e+21
14.018  5.39619e+21
14.1354  5.20994e+21
14.2527  5.03092e+21
14.37  4.85884e+21
14.4873  4.69321e+21
14.6046  4.53342e+21
14.7219  4.37963e+21
14.8392  4.23136e+21
14.9565  4.08837e+21
15.0738  3.95117e+21
15.1911  3.81899e+21
15.3084  3.69226e+21
15.4257  3.57046e+21
15.543  3.4537e+21
15.6603  3.34128e+21
15.7776  3.23294e+21
15.8949  3.12822e+21
16.0122  3.02697e+21
16.1295  2.92884e+21
16.2468  2.83378e+21
16.3641  2.74198e+21
16.4815  2.65366e+21
16.5988  2.56891e+21
16.7161  2.48814e+21
16.8334  2.41143e+21
16.9507  2.33879e+21
17.068  2.27061e+21
17.1853  2.20704e+21
17.3026  2.14832e+21
17.4199  2.09473e+21
17.5372  2.04639e+21
17.6545  2.00387e+21
17.7718  1.96668e+21
17.8891  1.93432e+21
18.0064  1.90628e+21
18.1237  1.88133e+21
18.241  1.85812e+21
18.3583  1.83596e+21
18.4756  1.81371e+21
18.5929  1.79098e+21
18.7102  1.76752e+21
18.8275  1.7439e+21
18.9449  1.72034e+21
19.0622  1.69745e+21
19.1795  1.67553e+21
19.2968  1.65478e+21
19.4141  1.63494e+21
19.5314  1.6157e+21
19.6487  1.59648e+21
19.766  1.5774e+21
19.8833  1.55784e+21
20.0006  1.5382e+21
20.1179  1.51848e+21
20.2352  1.49917e+21
20.3525  1.48041e+21
20.4698  1.46209e+21
20.5871  1.44404e+21
20.7044  1.42591e+21
20.8217  1.40716e+21
20.939  1.38739e+21
21.0563  1.36663e+21
21.1736  1.34514e+21
21.291  1.32325e+21
21.4083  1.30213e+21
21.5256  1.28223e+21
21.6429  1.26421e+21
21.7602  1.24854e+21
21.8775  1.23514e+21
21.9948  1.22356e+21
22.1121  1.21324e+21
22.2294  1.20325e+21
22.3467  1.19323e+21
22.464  1.18229e+21
22.5813  1.17002e+21
22.6986  1.15622e+21
22.8159  1.14079e+21
22.9332  1.12343e+21
23.0505  1.10443e+21
23.1678  1.08361e+21
23.2851  1.06127e+21
23.4024  1.03761e+21
23.5198  1.01317e+21
23.6371  9.8841e+20
23.7544  9.6405e+20
23.8717  9.40638e+20
23.989  9.18758e+20
24.1063  8.98528e+20
24.2236  8.80064e+20
24.3409  8.63128e+20
24.4582  8.47638e+20
24.5755  8.3307e+20
24.6928  8.19331e+20
24.8101  8.06172e+20
24.9274  7.93635e+20
25.0447  7.81726e+20
25.162  7.70411e+20
25.2793  7.5967e+20
25.3966  7.49418e+20
25.5139  7.3951e+20
25.6312  7.29759e+20
25.7485  7.20187e+20
25.8658  7.10906e+20
25.9832  7.0187e+20
26.1005  6.93634e+20
26.2178  6.86184e+20
26.3351  6.79757e+20
26.4524  6.74211e+20
26.5697  6.69334e+20
26.687  6.64502e+20
26.8043  6.5936e+20
26.9216  6.53203e+20
27.0389  6.45898e+20
27.1562  6.37228e+20
27.2735  6.27582e+20
27.3908  6.17368e+20
27.5081  6.07408e+20
27.6254  5.98207e+20
27.7427  5.9057e+20
27.86  5.84728e+20
27.9773  5.81011e+20
28.0946  5.79457e+20
28.212  5.79854e+20
28.3293  5.81877e+20
28.4466  5.85369e+20
28.5639  5.89753e+20
28.6812  5.94904e+20
28.7985  6.00082e+20
28.9158  6.04911e+20
29.0331  6.08816e+20
29.1504  6.11259e+20
29.2677  6.11785e+20
29.385  6.10035e+20
29.5023  6.05843e+20
29.6196  5.99287e+20
29.7369  5.90707e+20
29.8542  5.80478e+20
29.9715  5.69114e+20
30.0888  5.57252e+20
30.2061  5.45395e+20
30.3234  5.33985e+20
30.4407  5.23409e+20
30.558  5.13915e+20
30.6754  5.05442e+20
30.7927  4.98092e+20
30.91  4.91597e+20
31.0273  4.85892e+20
31.1446  4.80591e+20
31.2619  4.75523e+20
31.3792  4.70332e+20
31.4965  4.6503e+20
31.6138  4.59367e+20
31.7311  4.53479e+20
31.8484  4.47399e+20
31.9657  4.41451e+20
32.083  4.35738e+20
32.2003  4.30552e+20
32.3176  4.25918e+20
32.4349  4.2201e+20
32.5522  4.18688e+20
32.6695  4.15953e+20
32.7868  4.13784e+20
32.9042  4.12072e+20
33.0215  4.10702e+20
33.1388  4.09775e+20
33.2561  4.09007e+20
33.3734  4.08518e+20
33.4907  4.07945e+20
33.608  4.07132e+20
33.7253  4.05852e+20
33.8426  4.03853e+20
33.9599  4.01069e+20
34.0772  3.97423e+20
34.1945  3.93025e+20
34.3118  3.88057e+20
34.4291  3.82885e+20
34.5464  3.77731e+20
34.6637  3.72782e+20
34.781  3.68362e+20
34.8983  3.64382e+20
35.0156  3.60898e+20
35.1329  3.57859e+20
35.2503  3.55158e+20
35.3676  3.52631e+20
35.4849  3.501e+20
35.6022  3.4735e+20
35.7195  3.44352e+20
35.8368  3.40704e+20
35.9541  3.36346e+20
36.0714  3.31046e+20
36.1887  3.24861e+20
36.306  3.17736e+20
36.4233  3.09992e+20
36.5406  3.01886e+20
36.6579  2.94e+20
36.7752  2.86725e+20
36.8925  2.80572e+20
37.0098  2.75795e+20
37.1271  2.72696e+20
37.2444  2.71244e+20
37.3617  2.7142e+20
37.479  2.73117e+20
37.5964  2.76137e+20
37.7137  2.80258e+20
37.831  2.85325e+20
37.9483  2.90882e+20
38.0656  2.9662e+20
38.1829  3.0196e+20
38.3002  3.06296e+20
38.4175  3.09021e+20
38.5348  3.09522e+20
38.6521  3.07508e+20
38.7694  3.02813e+20
38.8867  2.95689e+20
39.004  2.86585e+20
39.1213  2.76405e+20
39.2386  2.65961e+20
39.3559  2.56075e+20
39.4732  2.47642e+20
39.5905  2.41006e+20
39.7078  2.36509e+20
39.8251  2.34237e+20
39.9425  2.34164e+20
40.0598  2.36159e+20
40.1771  2.40036e+20
40.2944  2.45586e+20
40.4117  2.52803e+20
40.529  2.61179e+20
40.6463  2.70449e+20
40.7636  2.80026e+20
40.8809  2.89266e+20
40.9982  2.9741e+20
41.1155  3.03893e+20
41.2328  3.08117e+20
41.3501  3.09957e+20
41.4674  3.09365e+20
41.5847  3.06651e+20
41.702  3.02157e+20
41.8193  2.96451e+20
41.9366  2.8988e+20
42.0539  2.82843e+20
42.1712  2.75544e+20
42.2885  2.6814e+20
42.4059  2.60805e+20
42.5232  2.53713e+20
42.6405  2.47037e+20
42.7578  2.41079e+20
42.8751  2.36127e+20
42.9924  2.32317e+20
43.1097  2.29731e+20
43.227  2.28165e+20
43.3443  2.2732e+20
43.4616  2.26721e+20
43.5789  2.25893e+20
43.6962  2.24389e+20
43.8135  2.221e+20
43.9308  2.19003e+20
44.0481  2.15299e+20
44.1654  2.11415e+20
44.2827  2.07582e+20
44.4  2.04103e+20
44.5173  2.01083e+20
44.6347  1.98492e+20
44.752  1.961e+20
44.8693  1.9363e+20
44.9866  1.90764e+20
45.1039  1.8749e+20
45.2212  1.83676e+20
45.3385  1.79556e+20
45.4558  1.75424e+20
45.5731  1.7162e+20
45.6904  1.68494e+20
45.8077  1.66416e+20
45.925  1.65545e+20
46.0423  1.66074e+20
46.1596  1.6802e+20
46.2769  1.71351e+20
46.3942  1.75873e+20
46.5115  1.8137e+20
46.6288  1.87483e+20
46.7461  1.93795e+20
46.8634  1.99733e+20
46.9808  2.04812e+20
47.0981  2.08607e+20
47.2154  2.1073e+20
47.3327  2.11008e+20
47.45  2.09471e+20
47.5673  2.06397e+20
47.6846  2.02104e+20
47.8019  1.97076e+20
47.9192  1.91785e+20
48.0365  1.86644e+20
48.1538  1.81987e+20
48.2711  1.7806e+20
48.3884  1.74921e+20
48.5057  1.72748e+20
48.623  1.71496e+20
48.7403  1.71157e+20
48.8576  1.71636e+20
48.9749  1.72648e+20
49.0922  1.73907e+20
49.2095  1.75005e+20
49.3269  1.75466e+20
49.4442  1.74872e+20
49.5615  1.72845e+20
49.6788  1.69207e+20
49.7961  1.64099e+20
49.9134  1.57755e+20
50.0307  1.50676e+20
50.148  1.43435e+20
50.2653  1.36635e+20
50.3826  1.30757e+20
50.4999  1.26187e+20
50.6172  1.23045e+20
50.7345  1.21413e+20
50.8518  1.21188e+20
