#S 1 spectral density
#N 2
#UFWHM 30.4993
#L  abscissas [um]  spectral density
-58.5938  2.63914e+20
-58.4764  2.68004e+20
-58.3591  2.72835e+20
-58.2418  2.77676e+20
-58.1245  2.81929e+20
-58.0072  2.84603e+20
-57.8899  2.85258e+20
-57.7726  2.83546e+20
-57.6553  2.79485e+20
-57.538  2.73269e+20
-57.4207  2.65586e+20
-57.3034  2.57047e+20
-57.1861  2.48465e+20
-57.0688  2.40413e+20
-56.9515  2.33475e+20
-56.8342  2.27981e+20
-56.7169  2.24077e+20
-56.5996  2.21952e+20
-56.4823  2.21619e+20
-56.365  2.23132e+20
-56.2477  2.26579e+20
-56.1303  2.32039e+20
-56.013  2.39429e+20
-55.8957  2.48464e+20
-55.7784  2.58905e+20
-55.6611  2.70083e+20
-55.5438  2.81326e+20
-55.4265  2.91881e+20
-55.3092  3.01097e+20
-55.1919  3.08324e+20
-55.0746  3.13187e+20
-54.9573  3.15508e+20
-54.84  3.15367e+20
-54.7227  3.12994e+20
-54.6054  3.0879e+20
-54.4881  3.0311e+20
-54.3708  2.96497e+20
-54.2535  2.89462e+20
-54.1362  2.82368e+20
-54.0189  2.7569e+20
-53.9016  2.69871e+20
-53.7842  2.65297e+20
-53.6669  2.62161e+20
-53.5496  2.60774e+20
-53.4323  2.614e+20
-53.315  2.63943e+20
-53.1977  2.68479e+20
-53.0804  2.74871e+20
-52.9631  2.82746e+20
-52.8458  2.91541e+20
-52.7285  3.00783e+20
-52.6112  3.09669e+20
-52.4939  3.17578e+20
-52.3766  3.23658e+20
-52.2593  3.27585e+20
-52.142  3.2898e+20
-52.0247  3.27711e+20
-51.9074  3.2415e+20
-51.7901  3.1866e+20
-51.6728  3.11941e+20
-51.5555  3.04813e+20
-51.4381  2.98011e+20
-51.3208  2.92264e+20
-51.2035  2.88118e+20
-51.0862  2.86211e+20
-50.9689  2.86744e+20
-50.8516  2.89952e+20
-50.7343  2.95986e+20
-50.617  3.04828e+20
-50.4997  3.16184e+20
-50.3824  3.29655e+20
-50.2651  3.44525e+20
-50.1478  3.60058e+20
-50.0305  3.75056e+20
-49.9132  3.88613e+20
-49.7959  3.99519e+20
-49.6786  4.07017e+20
-49.5613  4.1065e+20
-49.444  4.10252e+20
-49.3267  4.05986e+20
-49.2094  3.98562e+20
-49.092  3.88756e+20
-48.9747  3.77449e+20
-48.8574  3.6568e+20
-48.7401  3.54345e+20
-48.6228  3.44272e+20
-48.5055  3.36174e+20
-48.3882  3.3069e+20
-48.2709  3.28126e+20
-48.1536  3.28717e+20
-48.0363  3.32518e+20
-47.919  3.39271e+20
-47.8017  3.48512e+20
-47.6844  3.59469e+20
-47.5671  3.71379e+20
-47.4498  3.83313e+20
-47.3325  3.9435e+20
-47.2152  4.03918e+20
-47.0979  4.11471e+20
-46.9806  4.17001e+20
-46.8633  4.20735e+20
-46.7459  4.22924e+20
-46.6286  4.24284e+20
-46.5113  4.25375e+20
-46.394  4.26952e+20
-46.2767  4.29517e+20
-46.1594  4.33474e+20
-46.0421  4.39192e+20
-45.9248  4.46781e+20
-45.8075  4.56056e+20
-45.6902  4.66709e+20
-45.5729  4.78049e+20
-45.4556  4.8952e+20
-45.3383  5.00002e+20
-45.221  5.08812e+20
-45.1037  5.15044e+20
-44.9864  5.18076e+20
-44.8691  5.1777e+20
-44.7518  5.14258e+20
-44.6345  5.07859e+20
-44.5172  4.99332e+20
-44.3998  4.89563e+20
-44.2825  4.79281e+20
-44.1652  4.69379e+20
-44.0479  4.6048e+20
-43.9306  4.53279e+20
-43.8133  4.48193e+20
-43.696  4.458e+20
-43.5787  4.4641e+20
-43.4614  4.50444e+20
-43.3441  4.58221e+20
-43.2268  4.69688e+20
-43.1095  4.84566e+20
-42.9922  5.02338e+20
-42.8749  5.21965e+20
-42.7576  5.42375e+20
-42.6403  5.62145e+20
-42.523  5.8018e+20
-42.4057  5.95412e+20
-42.2884  6.07241e+20
-42.171  6.15599e+20
-42.0537  6.20368e+20
-41.9364  6.22243e+20
-41.8191  6.21725e+20
-41.7018  6.19608e+20
-41.5845  6.16576e+20
-41.4672  6.13151e+20
-41.3499  6.10068e+20
-41.2326  6.07729e+20
-41.1153  6.06553e+20
-40.998  6.06967e+20
-40.8807  6.0911e+20
-40.7634  6.1315e+20
-40.6461  6.18803e+20
-40.5288  6.25676e+20
-40.4115  6.33037e+20
-40.2942  6.39969e+20
-40.1769  6.45655e+20
-40.0596  6.49381e+20
-39.9423  6.50611e+20
-39.825  6.49124e+20
-39.7076  6.45382e+20
-39.5903  6.39636e+20
-39.473  6.32848e+20
-39.3557  6.25741e+20
-39.2384  6.1923e+20
-39.1211  6.13777e+20
-39.0038  6.09985e+20
-38.8865  6.08122e+20
-38.7692  6.08439e+20
-38.6519  6.11088e+20
-38.5346  6.16141e+20
-38.4173  6.23675e+20
-38.3  6.3372e+20
-38.1827  6.45928e+20
-38.0654  6.60082e+20
-37.9481  6.75381e+20
-37.8308  6.9125e+20
-37.7135  7.06663e+20
-37.5962  7.20721e+20
-37.4789  7.32825e+20
-37.3615  7.42262e+20
-37.2442  7.48904e+20
-37.1269  7.52714e+20
-37.0096  7.53919e+20
-36.8923  7.53091e+20
-36.775  7.50644e+20
-36.6577  7.47283e+20
-36.5404  7.43473e+20
-36.4231  7.39801e+20
-36.3058  7.36771e+20
-36.1885  7.34887e+20
-36.0712  7.34552e+20
-35.9539  7.36199e+20
-35.8366  7.39969e+20
-35.7193  7.46043e+20
-35.602  7.54425e+20
-35.4847  7.6482e+20
-35.3674  7.76906e+20
-35.2501  7.90319e+20
-35.1328  8.04338e+20
-35.0154  8.18791e+20
-34.8981  8.32829e+20
-34.7808  8.46377e+20
-34.6635  8.58996e+20
-34.5462  8.70534e+20
-34.4289  8.80595e+20
-34.3116  8.89067e+20
-34.1943  8.9586e+20
-34.077  9.00956e+20
-33.9597  9.0439e+20
-33.8424  9.06482e+20
-33.7251  9.07626e+20
-33.6078  9.08255e+20
-33.4905  9.08819e+20
-33.3732  9.09899e+20
-33.2559  9.11825e+20
-33.1386  9.15105e+20
-33.0213  9.19771e+20
-32.904  9.25896e+20
-32.7867  9.33732e+20
-32.6693  9.43132e+20
-32.552  9.54147e+20
-32.4347  9.66646e+20
-32.3174  9.80503e+20
-32.2001  9.95576e+20
-32.0828  1.01154e+21
-31.9655  1.02796e+21
-31.8482  1.04427e+21
-31.7309  1.06005e+21
-31.6136  1.07466e+21
-31.4963  1.08784e+21
-31.379  1.0992e+21
-31.2617  1.1089e+21
-31.1444  1.11688e+21
-31.0271  1.12365e+21
-30.9098  1.12995e+21
-30.7925  1.13628e+21
-30.6752  1.14354e+21
-30.5579  1.15264e+21
-30.4406  1.16422e+21
-30.3232  1.17924e+21
-30.2059  1.19794e+21
-30.0886  1.22079e+21
-29.9713  1.2479e+21
-29.854  1.27896e+21
-29.7367  1.31342e+21
-29.6194  1.35054e+21
-29.5021  1.38949e+21
-29.3848  1.42921e+21
-29.2675  1.46876e+21
-29.1502  1.50734e+21
-29.0329  1.54434e+21
-28.9156  1.57902e+21
-28.7983  1.61109e+21
-28.681  1.64041e+21
-28.5637  1.66696e+21
-28.4464  1.69114e+21
-28.3291  1.71339e+21
-28.2118  1.73462e+21
-28.0944  1.75594e+21
-27.9771  1.77863e+21
-27.8598  1.80392e+21
-27.7425  1.83296e+21
-27.6252  1.86671e+21
-27.5079  1.90555e+21
-27.3906  1.94978e+21
-27.2733  1.99903e+21
-27.156  2.05266e+21
-27.0387  2.11012e+21
-26.9214  2.17046e+21
-26.8041  2.23307e+21
-26.6868  2.29721e+21
-26.5695  2.36258e+21
-26.4522  2.42852e+21
-26.3349  2.4947e+21
-26.2176  2.5609e+21
-26.1003  2.62647e+21
-25.983  2.69115e+21
-25.8657  2.75488e+21
-25.7483  2.81756e+21
-25.631  2.87962e+21
-25.5137  2.94172e+21
-25.3964  3.00442e+21
-25.2791  3.06874e+21
-25.1618  3.1352e+21
-25.0445  3.20428e+21
-24.9272  3.27616e+21
-24.8099  3.35068e+21
-24.6926  3.42736e+21
-24.5753  3.50568e+21
-24.458  3.58502e+21
-24.3407  3.66508e+21
-24.2234  3.74516e+21
-24.1061  3.82521e+21
-23.9888  3.90484e+21
-23.8715  3.98399e+21
-23.7542  4.06253e+21
-23.6369  4.14042e+21
-23.5196  4.21803e+21
-23.4023  4.29576e+21
-23.2849  4.37416e+21
-23.1676  4.45412e+21
-23.0503  4.53671e+21
-22.933  4.62291e+21
-22.8157  4.71332e+21
-22.6984  4.8088e+21
-22.5811  4.90951e+21
-22.4638  5.01542e+21
-22.3465  5.12628e+21
-22.2292  5.24156e+21
-22.1119  5.36073e+21
-21.9946  5.48303e+21
-21.8773  5.60799e+21
-21.76  5.73461e+21
-21.6427  5.8621e+21
-21.5254  5.98965e+21
-21.4081  6.11585e+21
-21.2908  6.23979e+21
-21.1735  6.3606e+21
-21.0561  6.47754e+21
-20.9388  6.59078e+21
-20.8215  6.70123e+21
-20.7042  6.80937e+21
-20.5869  6.91715e+21
-20.4696  7.02598e+21
-20.3523  7.13737e+21
-20.235  7.25258e+21
-20.1177  7.37235e+21
-20.0004  7.49701e+21
-19.8831  7.62683e+21
-19.7658  7.76128e+21
-19.6485  7.90058e+21
-19.5312  8.04437e+21
-19.4139  8.19286e+21
-19.2966  8.34558e+21
-19.1793  8.50255e+21
-19.062  8.66283e+21
-18.9447  8.82553e+21
-18.8274  8.98954e+21
-18.71  9.15348e+21
-18.5927  9.31575e+21
-18.4754  9.47512e+21
-18.3581  9.63104e+21
-18.2408  9.78308e+21
-18.1235  9.93102e+21
-18.0062  1.00754e+22
-17.8889  1.02169e+22
-17.7716  1.03559e+22
-17.6543  1.04927e+22
-17.537  1.06277e+22
-17.4197  1.07607e+22
-17.3024  1.08915e+22
-17.1851  1.10205e+22
-17.0678  1.11477e+22
-16.9505  1.12736e+22
-16.8332  1.1399e+22
-16.7159  1.15248e+22
-16.5986  1.16521e+22
-16.4813  1.1782e+22
-16.364  1.19154e+22
-16.2466  1.20536e+22
-16.1293  1.21979e+22
-16.012  1.23485e+22
-15.8947  1.25067e+22
-15.7774  1.26727e+22
-15.6601  1.28474e+22
-15.5428  1.30306e+22
-15.4255  1.32219e+22
-15.3082  1.34203e+22
-15.1909  1.3625e+22
-15.0736  1.38335e+22
-14.9563  1.40437e+22
-14.839  1.42532e+22
-14.7217  1.44596e+22
-14.6044  1.466e+22
-14.4871  1.48528e+22
-14.3698  1.50357e+22
-14.2525  1.52073e+22
-14.1352  1.53668e+22
-14.0178  1.55146e+22
-13.9005  1.56504e+22
-13.7832  1.57756e+22
-13.6659  1.5892e+22
-13.5486  1.60018e+22
-13.4313  1.61069e+22
-13.314  1.62103e+22
-13.1967  1.63143e+22
-13.0794  1.64216e+22
-12.9621  1.65338e+22
-12.8448  1.66531e+22
-12.7275  1.67796e+22
-12.6102  1.69146e+22
-12.4929  1.70579e+22
-12.3756  1.72092e+22
-12.2583  1.73682e+22
-12.141  1.75343e+22
-12.0237  1.77063e+22
-11.9064  1.78832e+22
-11.7891  1.80644e+22
-11.6718  1.82486e+22
-11.5544  1.8435e+22
-11.4371  1.86239e+22
-11.3198  1.88134e+22
-11.2025  1.90039e+22
-11.0852  1.91945e+22
-10.9679  1.93853e+22
-10.8506  1.95754e+22
-10.7333  1.97637e+22
-10.616  1.9949e+22
-10.4987  2.01306e+22
-10.3814  2.03057e+22
-10.2641  2.04731e+22
-10.1468  2.06309e+22
-10.0295  2.07782e+22
-9.91217  2.09131e+22
-9.79487  2.10357e+22
-9.67756  2.11456e+22
-9.56026  2.12436e+22
-9.44295  2.13305e+22
-9.32565  2.14084e+22
-9.20834  2.1479e+22
-9.09104  2.15449e+22
-8.97373  2.16088e+22
-8.85643  2.16738e+22
-8.73913  2.17422e+22
-8.62182  2.18168e+22
-8.50452  2.18995e+22
-8.38721  2.19925e+22
-8.26991  2.20957e+22
-8.1526  2.22102e+22
-8.03529  2.23346e+22
-7.91799  2.24682e+22
-7.80069  2.2609e+22
-7.68338  2.2755e+22
-7.56608  2.29044e+22
-7.44877  2.30545e+22
-7.33146  2.32037e+22
-7.21416  2.33499e+22
-7.09685  2.34917e+22
-6.97955  2.3628e+22
-6.86224  2.37579e+22
-6.74494  2.38819e+22
-6.62763  2.39991e+22
-6.51033  2.41105e+22
-6.39302  2.42167e+22
-6.27572  2.43189e+22
-6.15842  2.44177e+22
-6.04111  2.45137e+22
-5.92381  2.46075e+22
-5.8065  2.46998e+22
-5.68919  2.479e+22
-5.57189  2.48779e+22
-5.45458  2.49635e+22
-5.33728  2.50466e+22
-5.21997  2.51262e+22
-5.10267  2.52026e+22
-4.98536  2.52751e+22
-4.86806  2.53436e+22
-4.75075  2.54075e+22
-4.63345  2.54673e+22
-4.51614  2.55228e+22
-4.39884  2.55742e+22
-4.28154  2.56226e+22
-4.16423  2.5669e+22
-4.04692  2.57145e+22
-3.92962  2.57605e+22
-3.81231  2.58081e+22
-3.69501  2.58587e+22
-3.5777  2.5912e+22
-3.4604  2.59684e+22
-3.34309  2.60267e+22
-3.22579  2.60862e+22
-3.10849  2.61456e+22
-2.99118  2.62035e+22
-2.87387  2.62592e+22
-2.75657  2.63113e+22
-2.63926  2.636e+22
-2.52196  2.64047e+22
-2.40465  2.64451e+22
-2.28735  2.64816e+22
-2.17005  2.65141e+22
-2.05274  2.6543e+22
-1.93544  2.65686e+22
-1.81813  2.65912e+22
-1.70083  2.66121e+22
-1.58352  2.66324e+22
-1.46622  2.66532e+22
-1.34891  2.66751e+22
-1.2316  2.6699e+22
-1.1143  2.67251e+22
-0.996995  2.67529e+22
-0.87969  2.67813e+22
-0.762385  2.68096e+22
-0.64508  2.68362e+22
-0.527775  2.68599e+22
-0.41047  2.68799e+22
-0.293165  2.68956e+22
-0.17586  2.69065e+22
-0.058555  2.69125e+22
0.05875  2.69135e+22
0.176055  2.69095e+22
0.29336  2.69004e+22
0.410665  2.68865e+22
0.52797  2.68681e+22
0.645275  2.68458e+22
0.76258  2.68206e+22
0.879885  2.67937e+22
0.99719  2.67664e+22
1.1145  2.67399e+22
1.2318  2.6715e+22
1.3491  2.66921e+22
1.46641  2.66715e+22
1.58371  2.66521e+22
1.70102  2.66335e+22
1.81832  2.66143e+22
1.93563  2.6593e+22
2.05294  2.65696e+22
2.17024  2.65429e+22
2.28754  2.65124e+22
2.40485  2.64781e+22
2.52216  2.64399e+22
2.63946  2.63973e+22
2.75677  2.63509e+22
2.87407  2.63004e+22
2.99137  2.62465e+22
3.10868  2.61901e+22
3.22599  2.61321e+22
3.34329  2.60738e+22
3.4606  2.60164e+22
3.5779  2.5961e+22
3.69521  2.59086e+22
3.81251  2.5859e+22
3.92982  2.58121e+22
4.04712  2.5767e+22
4.16443  2.57227e+22
4.28173  2.56775e+22
4.39903  2.56305e+22
4.51634  2.55805e+22
4.63364  2.5527e+22
4.75095  2.54692e+22
4.86825  2.54071e+22
4.98556  2.53407e+22
5.10286  2.52702e+22
5.22017  2.5196e+22
5.33748  2.51182e+22
5.45478  2.50371e+22
5.57209  2.49534e+22
5.68939  2.4867e+22
5.8067  2.47784e+22
5.924  2.46877e+22
6.0413  2.45951e+22
6.15861  2.45003e+22
6.27591  2.44026e+22
6.39322  2.43017e+22
6.51052  2.41966e+22
6.62783  2.40861e+22
6.74514  2.39699e+22
6.86244  2.38475e+22
6.97975  2.37185e+22
7.09705  2.35836e+22
7.21436  2.34432e+22
7.33166  2.32981e+22
7.44897  2.31504e+22
7.56627  2.30015e+22
7.68358  2.28537e+22
7.80088  2.27088e+22
7.91819  2.25691e+22
8.03549  2.24368e+22
8.1528  2.23137e+22
8.2701  2.22005e+22
8.38741  2.20982e+22
8.50471  2.20067e+22
8.62202  2.19249e+22
8.73932  2.18515e+22
8.85662  2.17845e+22
8.97393  2.17208e+22
9.09123  2.16582e+22
9.20854  2.15935e+22
9.32584  2.15243e+22
9.44315  2.14478e+22
9.56045  2.13618e+22
9.67776  2.12651e+22
9.79506  2.11562e+22
9.91237  2.10346e+22
10.0297  2.09004e+22
10.147  2.07541e+22
10.2643  2.05969e+22
10.3816  2.043e+22
10.4989  2.02553e+22
10.6162  2.00744e+22
10.7335  1.98893e+22
10.8508  1.97013e+22
10.9681  1.95116e+22
11.0854  1.93213e+22
11.2027  1.9131e+22
11.32  1.89409e+22
11.4373  1.87517e+22
11.5546  1.85638e+22
11.6719  1.83777e+22
11.7893  1.81943e+22
11.9066  1.8014e+22
12.0239  1.78376e+22
12.1412  1.76665e+22
12.2585  1.75013e+22
12.3758  1.73432e+22
12.4931  1.71925e+22
12.6104  1.70497e+22
12.7277  1.69156e+22
12.845  1.67896e+22
12.9623  1.66711e+22
13.0796  1.65591e+22
13.1969  1.64524e+22
13.3142  1.63486e+22
13.4315  1.62456e+22
13.5488  1.61409e+22
13.6661  1.60316e+22
13.7834  1.59155e+22
13.9007  1.57904e+22
14.018  1.56548e+22
14.1354  1.55073e+22
14.2527  1.53476e+22
14.37  1.5176e+22
14.4873  1.49931e+22
14.6046  1.48002e+22
14.7219  1.45995e+22
14.8392  1.43929e+22
14.9565  1.41833e+22
15.0738  1.39725e+22
15.1911  1.37637e+22
15.3084  1.35588e+22
15.4257  1.33601e+22
15.543  1.31685e+22
15.6603  1.2985e+22
15.7776  1.28103e+22
15.8949  1.26439e+22
16.0122  1.24857e+22
16.1295  1.23348e+22
16.2468  1.21908e+22
16.3641  1.20524e+22
16.4815  1.1919e+22
16.5988  1.17892e+22
16.7161  1.16616e+22
16.8334  1.15355e+22
16.9507  1.14098e+22
17.068  1.12835e+22
17.1853  1.11556e+22
17.3026  1.10257e+22
17.4199  1.08941e+22
17.5372  1.07604e+22
17.6545  1.06244e+22
17.7718  1.04863e+22
17.8891  1.03464e+22
18.0064  1.02038e+22
18.1237  1.00582e+22
18.241  9.90942e+21
18.3583  9.75649e+21
18.4756  9.59963e+21
18.5929  9.43936e+21
18.7102  9.27639e+21
18.8275  9.11178e+21
18.9449  8.94693e+21
19.0622  8.78356e+21
19.1795  8.62262e+21
19.2968  8.46497e+21
19.4141  8.3115e+21
19.5314  8.16225e+21
19.6487  8.01761e+21
19.766  7.87721e+21
19.8833  7.74164e+21
20.0006  7.61075e+21
20.1179  7.48502e+21
20.2352  7.36404e+21
20.3525  7.24758e+21
20.4698  7.13505e+21
20.5871  7.02491e+21
20.7044  6.9159e+21
20.8217  6.80627e+21
20.939  6.69477e+21
21.0563  6.58016e+21
21.1736  6.46186e+21
21.291  6.33995e+21
21.4083  6.21467e+21
21.5256  6.08716e+21
21.6429  5.95861e+21
21.7602  5.82984e+21
21.8775  5.70196e+21
21.9948  5.57576e+21
22.1121  5.45234e+21
22.2294  5.33218e+21
22.3467  5.21567e+21
22.464  5.10361e+21
22.5813  4.99667e+21
22.6986  4.89484e+21
22.8159  4.79828e+21
22.9332  4.70687e+21
23.0505  4.61972e+21
23.1678  4.53608e+21
23.2851  4.455e+21
23.4024  4.37555e+21
23.5198  4.29669e+21
23.6371  4.21785e+21
23.7544  4.13873e+21
23.8717  4.05897e+21
23.989  3.97849e+21
24.1063  3.89758e+21
24.2236  3.81629e+21
24.3409  3.73485e+21
24.4582  3.65342e+21
24.5755  3.57267e+21
24.6928  3.49292e+21
24.8101  3.41501e+21
24.9274  3.33917e+21
25.0447  3.26602e+21
25.162  3.19577e+21
25.2793  3.12805e+21
25.3966  3.06262e+21
25.5139  2.99863e+21
25.6312  2.9354e+21
25.7485  2.87216e+21
25.8658  2.80824e+21
25.9832  2.74339e+21
26.1005  2.67742e+21
26.2178  2.61061e+21
26.3351  2.54332e+21
26.4524  2.4758e+21
26.5697  2.40861e+21
26.687  2.34205e+21
26.8043  2.27674e+21
26.9216  2.21308e+21
27.0389  2.15155e+21
27.1562  2.09306e+21
27.2735  2.03842e+21
27.3908  1.98829e+21
27.5081  1.94317e+21
27.6254  1.90353e+21
27.7427  1.86902e+21
27.86  1.8392e+21
27.9773  1.81311e+21
28.0946  1.78969e+21
28.212  1.76745e+21
28.3293  1.74535e+21
28.4466  1.7222e+21
28.5639  1.69714e+21
28.6812  1.66958e+21
28.7985  1.63929e+21
28.9158  1.60626e+21
29.0331  1.57057e+21
29.1504  1.53264e+21
29.2677  1.49312e+21
29.385  1.45259e+21
29.5023  1.41205e+21
29.6196  1.37231e+21
29.7369  1.33445e+21
29.8542  1.29937e+21
29.9715  1.26771e+21
30.0888  1.24012e+21
30.2061  1.21669e+21
30.3234  1.19744e+21
30.4407  1.18209e+21
30.558  1.16997e+21
30.6754  1.16047e+21
30.7927  1.15267e+21
30.91  1.14578e+21
31.0273  1.13903e+21
31.1446  1.13152e+21
31.2619  1.12289e+21
31.3792  1.11265e+21
31.4965  1.10063e+21
31.6138  1.08689e+21
31.7311  1.07158e+21
31.8484  1.0553e+21
31.9657  1.03846e+21
32.083  1.02158e+21
32.2003  1.0052e+21
32.3176  9.89733e+20
32.4349  9.75518e+20
32.5522  9.62708e+20
32.6695  9.51428e+20
32.7868  9.41815e+20
32.9042  9.33714e+20
33.0215  9.27357e+20
33.1388  9.22525e+20
33.2561  9.19102e+20
33.3734  9.16955e+20
33.4907  9.15629e+20
33.608  9.14837e+20
33.7253  9.13957e+20
33.8426  9.12515e+20
33.9599  9.10169e+20
34.0772  9.06385e+20
34.1945  9.00994e+20
34.3118  8.939e+20
34.4291  8.85107e+20
34.5464  8.74845e+20
34.6637  8.63156e+20
34.781  8.50367e+20
34.8983  8.36656e+20
35.0156  8.22375e+20
35.1329  8.07922e+20
35.2503  7.93779e+20
35.3676  7.8039e+20
35.4849  7.68224e+20
35.6022  7.57834e+20
35.7195  7.49515e+20
35.8368  7.43372e+20
35.9541  7.39546e+20
36.0714  7.37982e+20
36.1887  7.38277e+20
36.306  7.40123e+20
36.4233  7.43071e+20
36.5406  7.46731e+20
36.6579  7.5047e+20
36.7752  7.5373e+20
36.8925  7.56102e+20
37.0098  7.56828e+20
37.1271  7.55484e+20
37.2444  7.51569e+20
37.3617  7.44825e+20
37.479  7.35288e+20
37.5964  7.23148e+20
37.7137  7.09005e+20
37.831  6.93589e+20
37.9483  6.77741e+20
38.0656  6.62485e+20
38.1829  6.48422e+20
38.3002  6.36235e+20
38.4175  6.26339e+20
38.5348  6.18837e+20
38.6521  6.13922e+20
38.7694  6.11383e+20
38.8867  6.11101e+20
39.004  6.1304e+20
39.1213  6.16861e+20
39.2386  6.2246e+20
39.3559  6.29127e+20
39.4732  6.36252e+20
39.5905  6.43066e+20
39.7078  6.48758e+20
39.8251  6.52527e+20
39.9425  6.53924e+20
40.0598  6.5269e+20
40.1771  6.48938e+20
40.2944  6.43241e+20
40.4117  6.36277e+20
40.529  6.28959e+20
40.6463  6.22121e+20
40.7636  6.1658e+20
40.8809  6.12651e+20
40.9982  6.1055e+20
41.1155  6.10245e+20
41.2328  6.1154e+20
41.3501  6.13963e+20
41.4674  6.17081e+20
41.5847  6.20523e+20
41.702  6.23607e+20
41.8193  6.25727e+20
41.9366  6.26178e+20
42.0539  6.24242e+20
42.1712  6.1932e+20
42.2885  6.10966e+20
42.4059  5.98944e+20
42.5232  5.83596e+20
42.6405  5.65388e+20
42.7578  5.45567e+20
42.8751  5.25144e+20
42.9924  5.05436e+20
43.1097  4.87746e+20
43.227  4.72905e+20
43.3443  4.61582e+20
43.4616  4.53958e+20
43.5789  4.49948e+20
43.6962  4.4946e+20
43.8135  4.51954e+20
43.9308  4.5721e+20
44.0481  4.64589e+20
44.1654  4.73521e+20
44.2827  4.83461e+20
44.4  4.93771e+20
44.5173  5.03563e+20
44.6347  5.12019e+20
44.752  5.18347e+20
44.8693  5.21747e+20
44.9866  5.21915e+20
45.1039  5.18628e+20
45.2212  5.12284e+20
45.3385  5.03367e+20
45.4558  4.92696e+20
45.5731  4.81217e+20
45.6904  4.69745e+20
45.8077  4.59064e+20
45.925  4.49808e+20
46.0423  4.42237e+20
46.1596  4.3652e+20
46.2769  4.32539e+20
46.3942  4.30046e+20
46.5115  4.28464e+20
46.6288  4.2733e+20
46.7461  4.25899e+20
46.8634  4.23607e+20
46.9808  4.19876e+20
47.0981  4.14173e+20
47.2154  4.0648e+20
47.3327  3.9676e+20
47.45  3.85621e+20
47.5673  3.73636e+20
47.6846  3.61658e+20
47.8019  3.50654e+20
47.9192  3.41453e+20
48.0365  3.34747e+20
48.1538  3.31017e+20
48.2711  3.30457e+20
48.3884  3.33106e+20
48.5057  3.38713e+20
48.623  3.46899e+20
48.7403  3.57048e+20
48.8576  3.6837e+20
48.9749  3.80099e+20
49.0922  3.91357e+20
49.2095  4.01144e+20
49.3269  4.08404e+20
49.4442  4.12506e+20
49.5615  4.12703e+20
49.6788  4.08893e+20
49.7961  4.01125e+20
49.9134  3.90038e+20
50.0307  3.76408e+20
50.148  3.61177e+20
50.2653  3.45623e+20
50.3826  3.30663e+20
50.4999  3.17156e+20
50.6172  3.05801e+20
50.7345  2.97019e+20
50.8518  2.91032e+20
