#S 1 spectral density
#N 2
#UFWHM 49.2681
#L  abscissas [um]  spectral density
-58.5938  4.62327e+20
-58.4764  4.57189e+20
-58.3591  4.53705e+20
-58.2418  4.51668e+20
-58.1245  4.50567e+20
-58.0072  4.5022e+20
-57.8899  4.49974e+20
-57.7726  4.49659e+20
-57.6553  4.49128e+20
-57.538  4.48524e+20
-57.4207  4.48069e+20
-57.3034  4.47955e+20
-57.1861  4.48431e+20
-57.0688  4.49745e+20
-56.9515  4.5181e+20
-56.8342  4.54542e+20
-56.7169  4.57807e+20
-56.5996  4.6137e+20
-56.4823  4.65319e+20
-56.365  4.69537e+20
-56.2477  4.74355e+20
-56.1303  4.79891e+20
-56.013  4.86392e+20
-55.8957  4.94191e+20
-55.7784  5.03018e+20
-55.6611  5.12865e+20
-55.5438  5.2333e+20
-55.4265  5.33888e+20
-55.3092  5.43953e+20
-55.1919  5.53007e+20
-55.0746  5.6065e+20
-54.9573  5.6658e+20
-54.84  5.7057e+20
-54.7227  5.72601e+20
-54.6054  5.7264e+20
-54.4881  5.70942e+20
-54.3708  5.67618e+20
-54.2535  5.62945e+20
-54.1362  5.57221e+20
-54.0189  5.50899e+20
-53.9016  5.44258e+20
-53.7842  5.37824e+20
-53.6669  5.32158e+20
-53.5496  5.27771e+20
-53.4323  5.24964e+20
-53.315  5.2432e+20
-53.1977  5.25857e+20
-53.0804  5.29671e+20
-52.9631  5.35512e+20
-52.8458  5.43116e+20
-52.7285  5.51788e+20
-52.6112  5.60814e+20
-52.4939  5.69321e+20
-52.3766  5.76623e+20
-52.2593  5.8198e+20
-52.142  5.84956e+20
-52.0247  5.85441e+20
-51.9074  5.83553e+20
-51.7901  5.79899e+20
-51.6728  5.74979e+20
-51.5555  5.69765e+20
-51.4381  5.65156e+20
-51.3208  5.61916e+20
-51.2035  5.61015e+20
-51.0862  5.62807e+20
-50.9689  5.67989e+20
-50.8516  5.76808e+20
-50.7343  5.89396e+20
-50.617  6.05652e+20
-50.4997  6.25275e+20
-50.3824  6.47675e+20
-50.2651  6.72037e+20
-50.1478  6.97093e+20
-50.0305  7.21625e+20
-49.9132  7.43987e+20
-49.7959  7.63121e+20
-49.6786  7.77897e+20
-49.5613  7.87537e+20
-49.444  7.91801e+20
-49.3267  7.91083e+20
-49.2094  7.85853e+20
-49.092  7.77179e+20
-48.9747  7.66349e+20
-48.8574  7.5462e+20
-48.7401  7.43322e+20
-48.6228  7.3373e+20
-48.5055  7.26883e+20
-48.3882  7.23573e+20
-48.2709  7.24498e+20
-48.1536  7.30026e+20
-48.0363  7.40027e+20
-47.919  7.5427e+20
-47.8017  7.72012e+20
-47.6844  7.92283e+20
-47.5671  8.13835e+20
-47.4498  8.35465e+20
-47.3325  8.56015e+20
-47.2152  8.74648e+20
-47.0979  8.90826e+20
-46.9806  9.04379e+20
-46.8633  9.15594e+20
-46.7459  9.25192e+20
-46.6286  9.33916e+20
-46.5113  9.42882e+20
-46.394  9.52843e+20
-46.2767  9.64829e+20
-46.1594  9.79442e+20
-46.0421  9.9709e+20
-45.9248  1.01773e+21
-45.8075  1.04119e+21
-45.6902  1.06677e+21
-45.5729  1.09355e+21
-45.4556  1.12012e+21
-45.3383  1.14521e+21
-45.221  1.16713e+21
-45.1037  1.1849e+21
-44.9864  1.19762e+21
-44.8691  1.20472e+21
-44.7518  1.20633e+21
-44.6345  1.20318e+21
-44.5172  1.19628e+21
-44.3998  1.187e+21
-44.2825  1.17714e+21
-44.1652  1.16813e+21
-44.0479  1.16168e+21
-43.9306  1.15918e+21
-43.8133  1.16186e+21
-43.696  1.17077e+21
-43.5787  1.18674e+21
-43.4614  1.21017e+21
-43.3441  1.2411e+21
-43.2268  1.27917e+21
-43.1095  1.32337e+21
-42.9922  1.37216e+21
-42.8749  1.42354e+21
-42.7576  1.47527e+21
-42.6403  1.52512e+21
-42.523  1.57093e+21
-42.4057  1.61109e+21
-42.2884  1.6447e+21
-42.171  1.67113e+21
-42.0537  1.69118e+21
-41.9364  1.70561e+21
-41.8191  1.71593e+21
-41.7018  1.72365e+21
-41.5845  1.7305e+21
-41.4672  1.73821e+21
-41.3499  1.74812e+21
-41.2326  1.76139e+21
-41.1153  1.77898e+21
-40.998  1.80126e+21
-40.8807  1.82843e+21
-40.7634  1.85972e+21
-40.6461  1.89446e+21
-40.5288  1.93113e+21
-40.4115  1.96804e+21
-40.2942  2.00355e+21
-40.1769  2.03572e+21
-40.0596  2.06311e+21
-39.9423  2.08489e+21
-39.825  2.10088e+21
-39.7076  2.11136e+21
-39.5903  2.1179e+21
-39.473  2.12162e+21
-39.3557  2.12477e+21
-39.2384  2.12902e+21
-39.1211  2.1363e+21
-39.0038  2.14827e+21
-38.8865  2.16612e+21
-38.7692  2.19067e+21
-38.6519  2.22246e+21
-38.5346  2.26143e+21
-38.4173  2.3073e+21
-38.3  2.35902e+21
-38.1827  2.41554e+21
-38.0654  2.475e+21
-37.9481  2.53568e+21
-37.8308  2.5951e+21
-37.7135  2.65133e+21
-37.5962  2.70254e+21
-37.4789  2.74701e+21
-37.3615  2.78423e+21
-37.2442  2.81391e+21
-37.1269  2.83675e+21
-37.0096  2.85396e+21
-36.8923  2.867e+21
-36.775  2.87818e+21
-36.6577  2.88957e+21
-36.5404  2.90319e+21
-36.4231  2.92106e+21
-36.3058  2.94483e+21
-36.1885  2.97567e+21
-36.0712  3.01437e+21
-35.9539  3.06107e+21
-35.8366  3.11566e+21
-35.7193  3.1773e+21
-35.602  3.24476e+21
-35.4847  3.31641e+21
-35.3674  3.39037e+21
-35.2501  3.46459e+21
-35.1328  3.53752e+21
-35.0154  3.60736e+21
-34.8981  3.67351e+21
-34.7808  3.73448e+21
-34.6635  3.79052e+21
-34.5462  3.84144e+21
-34.4289  3.88781e+21
-34.3116  3.93038e+21
-34.1943  3.97008e+21
-34.077  4.00767e+21
-33.9597  4.04453e+21
-33.8424  4.08126e+21
-33.7251  4.11897e+21
-33.6078  4.15797e+21
-33.4905  4.19927e+21
-33.3732  4.24251e+21
-33.2559  4.28793e+21
-33.1386  4.33482e+21
-33.0213  4.3828e+21
-32.904  4.43118e+21
-32.7867  4.47932e+21
-32.6693  4.52672e+21
-32.552  4.57318e+21
-32.4347  4.61862e+21
-32.3174  4.66335e+21
-32.2001  4.70726e+21
-32.0828  4.75089e+21
-31.9655  4.79483e+21
-31.8482  4.83916e+21
-31.7309  4.88406e+21
-31.6136  4.92987e+21
-31.4963  4.9762e+21
-31.379  5.02324e+21
-31.2617  5.07055e+21
-31.1444  5.11806e+21
-31.0271  5.16534e+21
-30.9098  5.21208e+21
-30.7925  5.2581e+21
-30.6752  5.30325e+21
-30.5579  5.34724e+21
-30.4406  5.39031e+21
-30.3232  5.43265e+21
-30.2059  5.47508e+21
-30.0886  5.5175e+21
-29.9713  5.56112e+21
-29.854  5.60621e+21
-29.7367  5.65383e+21
-29.6194  5.70462e+21
-29.5021  5.75918e+21
-29.3848  5.81767e+21
-29.2675  5.88099e+21
-29.1502  5.94865e+21
-29.0329  6.02102e+21
-28.9156  6.0973e+21
-28.7983  6.17752e+21
-28.681  6.2602e+21
-28.5637  6.34468e+21
-28.4464  6.42946e+21
-28.3291  6.51353e+21
-28.2118  6.59569e+21
-28.0944  6.67537e+21
-27.9771  6.75143e+21
-27.8598  6.82376e+21
-27.7425  6.89196e+21
-27.6252  6.95616e+21
-27.5079  7.01581e+21
-27.3906  7.07068e+21
-27.2733  7.12107e+21
-27.156  7.16705e+21
-27.0387  7.20853e+21
-26.9214  7.24657e+21
-26.8041  7.28168e+21
-26.6868  7.31534e+21
-26.5695  7.34868e+21
-26.4522  7.38313e+21
-26.3349  7.42018e+21
-26.2176  7.46051e+21
-26.1003  7.50532e+21
-25.983  7.55495e+21
-25.8657  7.6096e+21
-25.7483  7.66938e+21
-25.631  7.73434e+21
-25.5137  7.80455e+21
-25.3964  7.87926e+21
-25.2791  7.95837e+21
-25.1618  8.04096e+21
-25.0445  8.12636e+21
-24.9272  8.21322e+21
-24.8099  8.30027e+21
-24.6926  8.386e+21
-24.5753  8.46989e+21
-24.458  8.55021e+21
-24.3407  8.62703e+21
-24.2234  8.70014e+21
-24.1061  8.76989e+21
-23.9888  8.83672e+21
-23.8715  8.90107e+21
-23.7542  8.96381e+21
-23.6369  9.0253e+21
-23.5196  9.08596e+21
-23.4023  9.14685e+21
-23.2849  9.2075e+21
-23.1676  9.26857e+21
-23.0503  9.33013e+21
-22.933  9.39213e+21
-22.8157  9.45399e+21
-22.6984  9.5148e+21
-22.5811  9.57397e+21
-22.4638  9.63096e+21
-22.3465  9.68422e+21
-22.2292  9.73401e+21
-22.1119  9.77985e+21
-21.9946  9.82252e+21
-21.8773  9.86292e+21
-21.76  9.90218e+21
-21.6427  9.94219e+21
-21.5254  9.984e+21
-21.4081  1.00295e+22
-21.2908  1.00797e+22
-21.1735  1.01353e+22
-21.0561  1.01969e+22
-20.9388  1.0265e+22
-20.8215  1.03399e+22
-20.7042  1.04206e+22
-20.5869  1.0507e+22
-20.4696  1.05977e+22
-20.3523  1.0691e+22
-20.235  1.07843e+22
-20.1177  1.08752e+22
-20.0004  1.09606e+22
-19.8831  1.10385e+22
-19.7658  1.11062e+22
-19.6485  1.1163e+22
-19.5312  1.12091e+22
-19.4139  1.12452e+22
-19.2966  1.12733e+22
-19.1793  1.12956e+22
-19.062  1.13153e+22
-18.9447  1.13346e+22
-18.8274  1.13559e+22
-18.71  1.13818e+22
-18.5927  1.14133e+22
-18.4754  1.14518e+22
-18.3581  1.14983e+22
-18.2408  1.15531e+22
-18.1235  1.16165e+22
-18.0062  1.16881e+22
-17.8889  1.17672e+22
-17.7716  1.18532e+22
-17.6543  1.19438e+22
-17.537  1.20379e+22
-17.4197  1.21331e+22
-17.3024  1.2228e+22
-17.1851  1.2321e+22
-17.0678  1.24109e+22
-16.9505  1.24973e+22
-16.8332  1.25803e+22
-16.7159  1.26599e+22
-16.5986  1.27365e+22
-16.4813  1.28105e+22
-16.364  1.28817e+22
-16.2466  1.29502e+22
-16.1293  1.30158e+22
-16.012  1.30774e+22
-15.8947  1.31346e+22
-15.7774  1.31868e+22
-15.6601  1.32331e+22
-15.5428  1.32727e+22
-15.4255  1.33054e+22
-15.3082  1.33311e+22
-15.1909  1.33504e+22
-15.0736  1.33633e+22
-14.9563  1.33712e+22
-14.839  1.33757e+22
-14.7217  1.33785e+22
-14.6044  1.3382e+22
-14.4871  1.33884e+22
-14.3698  1.34004e+22
-14.2525  1.34198e+22
-14.1352  1.34483e+22
-14.0178  1.34877e+22
-13.9005  1.35381e+22
-13.7832  1.35994e+22
-13.6659  1.3671e+22
-13.5486  1.37515e+22
-13.4313  1.38389e+22
-13.314  1.3931e+22
-13.1967  1.4025e+22
-13.0794  1.4119e+22
-12.9621  1.42096e+22
-12.8448  1.42954e+22
-12.7275  1.43742e+22
-12.6102  1.44449e+22
-12.4929  1.4507e+22
-12.3756  1.45602e+22
-12.2583  1.46052e+22
-12.141  1.46432e+22
-12.0237  1.46752e+22
-11.9064  1.47026e+22
-11.7891  1.47267e+22
-11.6718  1.47484e+22
-11.5544  1.47689e+22
-11.4371  1.47884e+22
-11.3198  1.48077e+22
-11.2025  1.48263e+22
-11.0852  1.48446e+22
-10.9679  1.48623e+22
-10.8506  1.48791e+22
-10.7333  1.48947e+22
-10.616  1.49092e+22
-10.4987  1.49231e+22
-10.3814  1.49362e+22
-10.2641  1.49497e+22
-10.1468  1.49646e+22
-10.0295  1.49822e+22
-9.91217  1.50039e+22
-9.79487  1.50315e+22
-9.67756  1.50665e+22
-9.56026  1.51098e+22
-9.44295  1.51619e+22
-9.32565  1.52233e+22
-9.20834  1.5293e+22
-9.09104  1.53695e+22
-8.97373  1.54515e+22
-8.85643  1.55359e+22
-8.73913  1.56207e+22
-8.62182  1.57033e+22
-8.50452  1.57807e+22
-8.38721  1.58512e+22
-8.26991  1.59123e+22
-8.1526  1.59632e+22
-8.03529  1.60029e+22
-7.91799  1.60315e+22
-7.80069  1.60499e+22
-7.68338  1.60589e+22
-7.56608  1.60612e+22
-7.44877  1.6059e+22
-7.33146  1.60545e+22
-7.21416  1.60503e+22
-7.09685  1.60485e+22
-6.97955  1.60505e+22
-6.86224  1.60574e+22
-6.74494  1.60695e+22
-6.62763  1.60868e+22
-6.51033  1.61083e+22
-6.39302  1.61332e+22
-6.27572  1.61598e+22
-6.15842  1.61868e+22
-6.04111  1.62123e+22
-5.92381  1.62353e+22
-5.8065  1.62549e+22
-5.68919  1.62705e+22
-5.57189  1.62821e+22
-5.45458  1.62904e+22
-5.33728  1.62964e+22
-5.21997  1.63014e+22
-5.10267  1.63073e+22
-4.98536  1.63156e+22
-4.86806  1.63276e+22
-4.75075  1.6344e+22
-4.63345  1.63656e+22
-4.51614  1.6392e+22
-4.39884  1.64227e+22
-4.28154  1.64571e+22
-4.16423  1.64937e+22
-4.04692  1.65318e+22
-3.92962  1.65703e+22
-3.81231  1.66078e+22
-3.69501  1.66434e+22
-3.5777  1.66759e+22
-3.4604  1.67043e+22
-3.34309  1.67277e+22
-3.22579  1.67457e+22
-3.10849  1.67581e+22
-2.99118  1.67652e+22
-2.87387  1.67682e+22
-2.75657  1.67686e+22
-2.63926  1.67676e+22
-2.52196  1.67669e+22
-2.40465  1.67679e+22
-2.28735  1.67711e+22
-2.17005  1.67769e+22
-2.05274  1.67848e+22
-1.93544  1.67944e+22
-1.81813  1.68047e+22
-1.70083  1.68148e+22
-1.58352  1.68236e+22
-1.46622  1.68307e+22
-1.34891  1.68352e+22
-1.2316  1.68369e+22
-1.1143  1.68354e+22
-0.996995  1.68307e+22
-0.87969  1.68224e+22
-0.762385  1.68114e+22
-0.64508  1.67979e+22
-0.527775  1.67831e+22
-0.41047  1.67686e+22
-0.293165  1.67558e+22
-0.17586  1.67464e+22
-0.058555  1.67414e+22
0.05875  1.67416e+22
0.176055  1.67471e+22
0.29336  1.67571e+22
0.410665  1.67705e+22
0.52797  1.67856e+22
0.645275  1.6801e+22
0.76258  1.68152e+22
0.879885  1.68272e+22
0.99719  1.68362e+22
1.1145  1.6842e+22
1.2318  1.68444e+22
1.3491  1.68436e+22
1.46641  1.68398e+22
1.58371  1.68335e+22
1.70102  1.68253e+22
1.81832  1.68158e+22
1.93563  1.68062e+22
2.05294  1.67969e+22
2.17024  1.67892e+22
2.28754  1.67836e+22
2.40485  1.67806e+22
2.52216  1.67799e+22
2.63946  1.67806e+22
2.75677  1.67819e+22
2.87407  1.6782e+22
2.99137  1.67794e+22
3.10868  1.67727e+22
3.22599  1.6761e+22
3.34329  1.67438e+22
3.4606  1.67215e+22
3.5779  1.66941e+22
3.69521  1.66628e+22
3.81251  1.66283e+22
3.92982  1.6592e+22
4.04712  1.65547e+22
4.16443  1.65175e+22
4.28173  1.64818e+22
4.39903  1.64483e+22
4.51634  1.64183e+22
4.63364  1.63926e+22
4.75095  1.63714e+22
4.86825  1.63552e+22
4.98556  1.63436e+22
5.10286  1.63355e+22
5.22017  1.63298e+22
5.33748  1.63248e+22
5.45478  1.63191e+22
5.57209  1.63111e+22
5.68939  1.62997e+22
5.8067  1.62845e+22
5.924  1.62653e+22
6.0413  1.62428e+22
6.15861  1.62176e+22
6.27591  1.61914e+22
6.39322  1.61657e+22
6.51052  1.61417e+22
6.62783  1.61211e+22
6.74514  1.61047e+22
6.86244  1.60932e+22
6.97975  1.60871e+22
7.09705  1.60859e+22
7.21436  1.60886e+22
7.33166  1.60934e+22
7.44897  1.60985e+22
7.56627  1.61014e+22
7.68358  1.60996e+22
7.80088  1.60908e+22
7.91819  1.60731e+22
8.03549  1.6045e+22
8.1528  1.60058e+22
8.2701  1.59553e+22
8.38741  1.58947e+22
8.50471  1.58248e+22
8.62202  1.57478e+22
8.73932  1.56658e+22
8.85662  1.55815e+22
8.97393  1.54975e+22
9.09123  1.54162e+22
9.20854  1.53401e+22
9.32584  1.52712e+22
9.44315  1.52102e+22
9.56045  1.51584e+22
9.67776  1.51158e+22
9.79506  1.50812e+22
9.91237  1.50542e+22
10.0297  1.50328e+22
10.147  1.5016e+22
10.2643  1.50018e+22
10.3816  1.49889e+22
10.4989  1.49765e+22
10.6162  1.49634e+22
10.7335  1.49496e+22
10.8508  1.49346e+22
10.9681  1.49186e+22
11.0854  1.49019e+22
11.2027  1.48844e+22
11.32  1.48664e+22
11.4373  1.4848e+22
11.5546  1.48289e+22
11.6719  1.4809e+22
11.7893  1.47878e+22
11.9066  1.47642e+22
12.0239  1.47371e+22
12.1412  1.47055e+22
12.2585  1.46679e+22
12.3758  1.4623e+22
12.4931  1.45699e+22
12.6104  1.4508e+22
12.7277  1.44376e+22
12.845  1.43592e+22
12.9623  1.42736e+22
13.0796  1.41831e+22
13.1969  1.40898e+22
13.3142  1.3996e+22
13.4315  1.39043e+22
13.5488  1.38174e+22
13.6661  1.37375e+22
13.7834  1.36664e+22
13.9007  1.36055e+22
14.018  1.35559e+22
14.1354  1.3517e+22
14.2527  1.34889e+22
14.37  1.34701e+22
14.4873  1.34586e+22
14.6046  1.34528e+22
14.7219  1.34498e+22
14.8392  1.34475e+22
14.9565  1.34436e+22
15.0738  1.34361e+22
15.1911  1.34237e+22
15.3084  1.34051e+22
15.4257  1.33797e+22
15.543  1.33473e+22
15.6603  1.3308e+22
15.7776  1.32623e+22
15.8949  1.32107e+22
16.0122  1.31535e+22
16.1295  1.3092e+22
16.2468  1.30267e+22
16.3641  1.29581e+22
16.4815  1.2887e+22
16.5988  1.28132e+22
16.7161  1.27366e+22
16.8334  1.26571e+22
16.9507  1.25743e+22
17.068  1.24878e+22
17.1853  1.23979e+22
17.3026  1.23052e+22
17.4199  1.22108e+22
17.5372  1.2116e+22
17.6545  1.20224e+22
17.7718  1.19323e+22
17.8891  1.18473e+22
18.0064  1.17685e+22
18.1237  1.16975e+22
18.241  1.16349e+22
18.3583  1.15807e+22
18.4756  1.15348e+22
18.5929  1.14967e+22
18.7102  1.14658e+22
18.8275  1.14403e+22
18.9449  1.1419e+22
19.0622  1.14e+22
19.1795  1.13803e+22
19.2968  1.13581e+22
19.4141  1.13299e+22
19.5314  1.12937e+22
19.6487  1.12477e+22
19.766  1.11905e+22
19.8833  1.11228e+22
20.0006  1.10451e+22
20.1179  1.09595e+22
20.2352  1.08688e+22
20.3525  1.07755e+22
20.4698  1.06827e+22
20.5871  1.05924e+22
20.7044  1.05061e+22
20.8217  1.04256e+22
20.939  1.03513e+22
21.0563  1.02833e+22
21.1736  1.0222e+22
21.291  1.01667e+22
21.4083  1.01169e+22
21.5256  1.00716e+22
21.6429  1.00299e+22
21.7602  9.99013e+21
21.8775  9.95087e+21
21.9948  9.9106e+21
22.1121  9.86819e+21
22.2294  9.82234e+21
22.3467  9.77266e+21
22.464  9.71926e+21
22.5813  9.66251e+21
22.6986  9.60304e+21
22.8159  9.54212e+21
22.9332  9.48043e+21
23.0505  9.41847e+21
23.1678  9.35678e+21
23.2851  9.29545e+21
23.4024  9.23471e+21
23.5198  9.1739e+21
23.6371  9.11281e+21
23.7544  9.05116e+21
23.8717  8.98811e+21
23.989  8.92367e+21
24.1063  8.85669e+21
24.2236  8.78665e+21
24.3409  8.71348e+21
24.4582  8.6364e+21
24.5755  8.55581e+21
24.6928  8.47206e+21
24.8101  8.38602e+21
24.9274  8.29897e+21
25.0447  8.21193e+21
25.162  8.12673e+21
25.2793  8.0441e+21
25.3966  7.96473e+21
25.5139  7.88987e+21
25.6312  7.81989e+21
25.7485  7.75471e+21
25.8658  7.69495e+21
25.9832  7.64032e+21
26.1005  7.59072e+21
26.2178  7.54599e+21
26.3351  7.50559e+21
26.4524  7.46869e+21
26.5697  7.43423e+21
26.687  7.4008e+21
26.8043  7.36728e+21
26.9216  7.33217e+21
27.0389  7.29414e+21
27.1562  7.25232e+21
27.2735  7.20632e+21
27.3908  7.1555e+21
27.5081  7.10018e+21
27.6254  7.04036e+21
27.7427  6.97592e+21
27.86  6.90717e+21
27.9773  6.83426e+21
28.0946  6.75757e+21
28.212  6.67758e+21
28.3293  6.59464e+21
28.4466  6.51002e+21
28.5639  6.42464e+21
28.6812  6.33984e+21
28.7985  6.25676e+21
28.9158  6.17629e+21
29.0331  6.0997e+21
29.1504  6.02719e+21
29.2677  5.95928e+21
29.385  5.89609e+21
29.5023  5.83744e+21
29.6196  5.78298e+21
29.7369  5.73208e+21
29.8542  5.68445e+21
29.9715  5.63918e+21
30.0888  5.59527e+21
30.2061  5.55247e+21
30.3234  5.51e+21
30.4407  5.46721e+21
30.558  5.42371e+21
30.6754  5.37927e+21
30.7927  5.33373e+21
30.91  5.2872e+21
31.0273  5.23994e+21
31.1446  5.19218e+21
31.2619  5.14433e+21
31.3792  5.09646e+21
31.4965  5.04917e+21
31.6138  5.00245e+21
31.7311  4.95645e+21
31.8484  4.91107e+21
31.9657  4.86648e+21
32.083  4.8222e+21
32.2003  4.77816e+21
32.3176  4.73391e+21
32.4349  4.68894e+21
32.5522  4.64309e+21
32.6695  4.59615e+21
32.7868  4.54822e+21
32.9042  4.49973e+21
33.0215  4.45077e+21
33.1388  4.4023e+21
33.2561  4.35493e+21
33.3734  4.30913e+21
33.4907  4.26547e+21
33.608  4.22381e+21
33.7253  4.18424e+21
33.8426  4.14624e+21
33.9599  4.10903e+21
34.0772  4.07187e+21
34.1945  4.03383e+21
34.3118  3.99371e+21
34.4291  3.95069e+21
34.5464  3.90369e+21
34.6637  3.85218e+21
34.781  3.7955e+21
34.8983  3.73371e+21
35.0156  3.66707e+21
35.1329  3.59649e+21
35.2503  3.52287e+21
35.3676  3.44787e+21
35.4849  3.37328e+21
35.6022  3.30108e+21
35.7195  3.23313e+21
35.8368  3.17107e+21
35.9541  3.11613e+21
36.0714  3.06897e+21
36.1887  3.0301e+21
36.306  2.99908e+21
36.4233  2.97519e+21
36.5406  2.95699e+21
36.6579  2.9431e+21
36.7752  2.93147e+21
36.8925  2.91991e+21
37.0098  2.90641e+21
37.1271  2.88869e+21
37.2444  2.8652e+21
37.3617  2.83477e+21
37.479  2.79672e+21
37.5964  2.75134e+21
37.7137  2.69934e+21
37.831  2.64218e+21
37.9483  2.58194e+21
38.0656  2.52052e+21
38.1829  2.46037e+21
38.3002  2.4033e+21
38.4175  2.35099e+21
38.5348  2.30483e+21
38.6521  2.26548e+21
38.7694  2.23343e+21
38.8867  2.20876e+21
39.004  2.19081e+21
39.1213  2.17881e+21
39.2386  2.17127e+21
39.3559  2.16683e+21
39.4732  2.16357e+21
39.5905  2.15945e+21
39.7078  2.15264e+21
39.8251  2.14165e+21
39.9425  2.12509e+21
40.0598  2.10262e+21
40.1771  2.07456e+21
40.2944  2.04174e+21
40.4117  2.00565e+21
40.529  1.9681e+21
40.6463  1.93089e+21
40.7636  1.8956e+21
40.8809  1.86383e+21
40.9982  1.83642e+21
41.1155  1.81383e+21
41.2328  1.79594e+21
41.3501  1.78239e+21
41.4674  1.77226e+21
41.5847  1.7643e+21
41.702  1.75711e+21
41.8193  1.749e+21
41.9366  1.73823e+21
42.0539  1.72326e+21
42.1712  1.70262e+21
42.2885  1.6753e+21
42.4059  1.64105e+21
42.5232  1.60001e+21
42.6405  1.5535e+21
42.7578  1.50277e+21
42.8751  1.45032e+21
42.9924  1.39834e+21
43.1097  1.34901e+21
43.227  1.30439e+21
43.3443  1.26595e+21
43.4616  1.2347e+21
43.5789  1.21116e+21
43.6962  1.19509e+21
43.8135  1.1861e+21
43.9308  1.1833e+21
44.0481  1.18572e+21
44.1654  1.19214e+21
44.2827  1.201e+21
44.4  1.21078e+21
44.5173  1.21975e+21
44.6347  1.22637e+21
44.752  1.22904e+21
44.8693  1.22698e+21
44.9866  1.21935e+21
45.1039  1.20611e+21
45.2212  1.1877e+21
45.3385  1.16515e+21
45.4558  1.13954e+21
45.5731  1.11241e+21
45.6904  1.08529e+21
45.8077  1.05926e+21
45.925  1.03546e+21
46.0423  1.01452e+21
46.1596  9.96651e+20
46.2769  9.81811e+20
46.3942  9.69523e+20
46.5115  9.593e+20
46.6288  9.50107e+20
46.7461  9.41058e+20
46.8634  9.31184e+20
46.9808  9.1947e+20
47.0981  9.05577e+20
47.2154  8.88932e+20
47.3327  8.69975e+20
47.45  8.48918e+20
47.5673  8.2689e+20
47.6846  8.05069e+20
47.8019  7.84522e+20
47.9192  7.66554e+20
48.0365  7.52138e+20
48.1538  7.41984e+20
48.2711  7.36505e+20
48.3884  7.35492e+20
48.5057  7.38736e+20
48.623  7.45544e+20
48.7403  7.55064e+20
48.8576  7.66256e+20
48.9749  7.77877e+20
49.0922  7.88546e+20
49.2095  7.96877e+20
49.3269  8.01826e+20
49.4442  8.02143e+20
49.5615  7.975e+20
49.6788  7.87402e+20
49.7961  7.72252e+20
49.9134  7.52643e+20
50.0307  7.29814e+20
50.148  7.05011e+20
50.2653  6.79619e+20
50.3826  6.55059e+20
50.4999  6.32432e+20
50.6172  6.12667e+20
50.7345  5.96291e+20
50.8518  5.83635e+20
50.9691  5.74756e+20
