#S 1 spectral density
#N 2
#UFWHM 26.2763
#L  abscissas [um]  spectral density
-58.5938  2.0279e+20
-58.4764  1.96791e+20
-58.3591  1.91505e+20
-58.2418  1.87326e+20
-58.1245  1.84374e+20
-58.0072  1.82827e+20
-57.8899  1.82677e+20
-57.7726  1.83992e+20
-57.6553  1.86879e+20
-57.538  1.9138e+20
-57.4207  1.97527e+20
-57.3034  2.05211e+20
-57.1861  2.14193e+20
-57.0688  2.23984e+20
-56.9515  2.3392e+20
-56.8342  2.43167e+20
-56.7169  2.50933e+20
-56.5996  2.56533e+20
-56.4823  2.59523e+20
-56.365  2.59713e+20
-56.2477  2.574e+20
-56.1303  2.52879e+20
-56.013  2.46929e+20
-55.8957  2.40178e+20
-55.7784  2.33423e+20
-55.6611  2.27257e+20
-55.5438  2.22072e+20
-55.4265  2.18264e+20
-55.3092  2.16007e+20
-55.1919  2.15404e+20
-55.0746  2.1651e+20
-54.9573  2.19301e+20
-54.84  2.23659e+20
-54.7227  2.29511e+20
-54.6054  2.3651e+20
-54.4881  2.44289e+20
-54.3708  2.52349e+20
-54.2535  2.60172e+20
-54.1362  2.67233e+20
-54.0189  2.73054e+20
-53.9016  2.77151e+20
-53.7842  2.79333e+20
-53.6669  2.79341e+20
-53.5496  2.77379e+20
-53.4323  2.73628e+20
-53.315  2.68508e+20
-53.1977  2.62522e+20
-53.0804  2.5615e+20
-52.9631  2.50026e+20
-52.8458  2.44588e+20
-52.7285  2.40211e+20
-52.6112  2.37117e+20
-52.4939  2.35486e+20
-52.3766  2.35339e+20
-52.2593  2.36512e+20
-52.142  2.38976e+20
-52.0247  2.42469e+20
-51.9074  2.46939e+20
-51.7901  2.52155e+20
-51.6728  2.57921e+20
-51.5555  2.64051e+20
-51.4381  2.70093e+20
-51.3208  2.75729e+20
-51.2035  2.80456e+20
-51.0862  2.84033e+20
-50.9689  2.86188e+20
-50.8516  2.86872e+20
-50.7343  2.86203e+20
-50.617  2.84736e+20
-50.4997  2.82933e+20
-50.3824  2.81417e+20
-50.2651  2.80861e+20
-50.1478  2.81628e+20
-50.0305  2.84199e+20
-49.9132  2.88504e+20
-49.7959  2.94507e+20
-49.6786  3.01994e+20
-49.5613  3.10628e+20
-49.444  3.19994e+20
-49.3267  3.29845e+20
-49.2094  3.39534e+20
-49.092  3.48628e+20
-48.9747  3.56444e+20
-48.8574  3.62499e+20
-48.7401  3.6617e+20
-48.6228  3.67026e+20
-48.5055  3.64854e+20
-48.3882  3.59587e+20
-48.2709  3.51698e+20
-48.1536  3.41742e+20
-48.0363  3.30545e+20
-47.919  3.19106e+20
-47.8017  3.08403e+20
-47.6844  2.9928e+20
-47.5671  2.92301e+20
-47.4498  2.87993e+20
-47.3325  2.86402e+20
-47.2152  2.87538e+20
-47.0979  2.91086e+20
-46.9806  2.96663e+20
-46.8633  3.03729e+20
-46.7459  3.11529e+20
-46.6286  3.19376e+20
-46.5113  3.26427e+20
-46.394  3.3212e+20
-46.2767  3.35833e+20
-46.1594  3.37268e+20
-46.0421  3.3626e+20
-45.9248  3.3325e+20
-45.8075  3.28672e+20
-45.6902  3.23261e+20
-45.5729  3.17939e+20
-45.4556  3.13601e+20
-45.3383  3.11116e+20
-45.221  3.11173e+20
-45.1037  3.14306e+20
-44.9864  3.20881e+20
-44.8691  3.31035e+20
-44.7518  3.44616e+20
-44.6345  3.61355e+20
-44.5172  3.80421e+20
-44.3998  4.00818e+20
-44.2825  4.21264e+20
-44.1652  4.40292e+20
-44.0479  4.56279e+20
-43.9306  4.67868e+20
-43.8133  4.74005e+20
-43.696  4.73984e+20
-43.5787  4.67947e+20
-43.4614  4.56531e+20
-43.3441  4.40886e+20
-43.2268  4.22615e+20
-43.1095  4.03438e+20
-42.9922  3.85037e+20
-42.8749  3.68832e+20
-42.7576  3.56011e+20
-42.6403  3.47301e+20
-42.523  3.43106e+20
-42.4057  3.43473e+20
-42.2884  3.48303e+20
-42.171  3.57119e+20
-42.0537  3.69252e+20
-41.9364  3.83794e+20
-41.8191  3.997e+20
-41.7018  4.1576e+20
-41.5845  4.30669e+20
-41.4672  4.43287e+20
-41.3499  4.52483e+20
-41.2326  4.57863e+20
-41.1153  4.5919e+20
-40.998  4.56838e+20
-40.8807  4.51606e+20
-40.7634  4.44658e+20
-40.6461  4.37168e+20
-40.5288  4.30426e+20
-40.4115  4.25494e+20
-40.2942  4.2321e+20
-40.1769  4.24173e+20
-40.0596  4.28746e+20
-39.9423  4.37027e+20
-39.825  4.48894e+20
-39.7076  4.64076e+20
-39.5903  4.8209e+20
-39.473  5.02328e+20
-39.3557  5.23632e+20
-39.2384  5.4501e+20
-39.1211  5.65104e+20
-39.0038  5.82493e+20
-38.8865  5.95994e+20
-38.7692  6.04848e+20
-38.6519  6.08529e+20
-38.5346  6.07175e+20
-38.4173  6.01325e+20
-38.3  5.92041e+20
-38.1827  5.80546e+20
-38.0654  5.68309e+20
-37.9481  5.56664e+20
-37.8308  5.46805e+20
-37.7135  5.39677e+20
-37.5962  5.36056e+20
-37.4789  5.36388e+20
-37.3615  5.40834e+20
-37.2442  5.49342e+20
-37.1269  5.61751e+20
-37.0096  5.77475e+20
-36.8923  5.95898e+20
-36.775  6.16138e+20
-36.6577  6.37019e+20
-36.5404  6.57505e+20
-36.4231  6.76478e+20
-36.3058  6.92975e+20
-36.1885  7.063e+20
-36.0712  7.16019e+20
-35.9539  7.22013e+20
-35.8366  7.24461e+20
-35.7193  7.23743e+20
-35.602  7.20424e+20
-35.4847  7.15137e+20
-35.3674  7.08665e+20
-35.2501  7.01621e+20
-35.1328  6.9466e+20
-35.0154  6.88473e+20
-34.8981  6.83554e+20
-34.7808  6.80527e+20
-34.6635  6.79521e+20
-34.5462  6.80877e+20
-34.4289  6.84523e+20
-34.3116  6.90279e+20
-34.1943  6.97753e+20
-34.077  7.06781e+20
-33.9597  7.16835e+20
-33.8424  7.27649e+20
-33.7251  7.38843e+20
-33.6078  7.5033e+20
-33.4905  7.61666e+20
-33.3732  7.72761e+20
-33.2559  7.83367e+20
-33.1386  7.93136e+20
-33.0213  8.01794e+20
-32.904  8.09051e+20
-32.7867  8.14706e+20
-32.6693  8.18723e+20
-32.552  8.21096e+20
-32.4347  8.22143e+20
-32.3174  8.2204e+20
-32.2001  8.21404e+20
-32.0828  8.2071e+20
-31.9655  8.20289e+20
-31.8482  8.20562e+20
-31.7309  8.21933e+20
-31.6136  8.24614e+20
-31.4963  8.28847e+20
-31.379  8.34777e+20
-31.2617  8.42549e+20
-31.1444  8.5216e+20
-31.0271  8.6358e+20
-30.9098  8.7673e+20
-30.7925  8.91288e+20
-30.6752  9.07028e+20
-30.5579  9.2355e+20
-30.4406  9.40393e+20
-30.3232  9.57307e+20
-30.2059  9.73671e+20
-30.0886  9.8941e+20
-29.9713  1.00402e+21
-29.854  1.0174e+21
-29.7367  1.02923e+21
-29.6194  1.03957e+21
-29.5021  1.04824e+21
-29.3848  1.05563e+21
-29.2675  1.06178e+21
-29.1502  1.06717e+21
-29.0329  1.07203e+21
-28.9156  1.07679e+21
-28.7983  1.08149e+21
-28.681  1.08628e+21
-28.5637  1.09112e+21
-28.4464  1.09594e+21
-28.3291  1.10063e+21
-28.2118  1.10509e+21
-28.0944  1.10948e+21
-27.9771  1.11404e+21
-27.8598  1.11914e+21
-27.7425  1.12517e+21
-27.6252  1.13241e+21
-27.5079  1.14131e+21
-27.3906  1.152e+21
-27.2733  1.16466e+21
-27.156  1.1792e+21
-27.0387  1.19587e+21
-26.9214  1.21468e+21
-26.8041  1.23586e+21
-26.6868  1.2596e+21
-26.5695  1.28619e+21
-26.4522  1.31546e+21
-26.3349  1.34719e+21
-26.2176  1.38097e+21
-26.1003  1.41577e+21
-25.983  1.45072e+21
-25.8657  1.4849e+21
-25.7483  1.51737e+21
-25.631  1.54787e+21
-25.5137  1.5759e+21
-25.3964  1.60193e+21
-25.2791  1.62644e+21
-25.1618  1.65009e+21
-25.0445  1.67368e+21
-24.9272  1.69812e+21
-24.8099  1.72406e+21
-24.6926  1.75235e+21
-24.5753  1.78363e+21
-24.458  1.81874e+21
-24.3407  1.85837e+21
-24.2234  1.90308e+21
-24.1061  1.95341e+21
-23.9888  2.00952e+21
-23.8715  2.07137e+21
-23.7542  2.13855e+21
-23.6369  2.21035e+21
-23.5196  2.28587e+21
-23.4023  2.36428e+21
-23.2849  2.44473e+21
-23.1676  2.52648e+21
-23.0503  2.60889e+21
-22.933  2.69157e+21
-22.8157  2.77408e+21
-22.6984  2.85617e+21
-22.5811  2.9377e+21
-22.4638  3.01838e+21
-22.3465  3.09845e+21
-22.2292  3.17801e+21
-22.1119  3.25755e+21
-21.9946  3.3377e+21
-21.8773  3.4196e+21
-21.76  3.50374e+21
-21.6427  3.59093e+21
-21.5254  3.68169e+21
-21.4081  3.77584e+21
-21.2908  3.87317e+21
-21.1735  3.97347e+21
-21.0561  4.07599e+21
-20.9388  4.18071e+21
-20.8215  4.28731e+21
-20.7042  4.3958e+21
-20.5869  4.50666e+21
-20.4696  4.61973e+21
-20.3523  4.73529e+21
-20.235  4.85313e+21
-20.1177  4.97276e+21
-20.0004  5.0935e+21
-19.8831  5.21489e+21
-19.7658  5.33642e+21
-19.6485  5.45814e+21
-19.5312  5.58009e+21
-19.4139  5.70323e+21
-19.2966  5.82805e+21
-19.1793  5.95566e+21
-19.062  6.08656e+21
-18.9447  6.22093e+21
-18.8274  6.35876e+21
-18.71  6.49995e+21
-18.5927  6.6438e+21
-18.4754  6.78984e+21
-18.3581  6.93786e+21
-18.2408  7.08819e+21
-18.1235  7.24075e+21
-18.0062  7.39633e+21
-17.8889  7.55574e+21
-17.7716  7.71955e+21
-17.6543  7.88839e+21
-17.537  8.06249e+21
-17.4197  8.24179e+21
-17.3024  8.42631e+21
-17.1851  8.61617e+21
-17.0678  8.81083e+21
-16.9505  9.01025e+21
-16.8332  9.21425e+21
-16.7159  9.42192e+21
-16.5986  9.63265e+21
-16.4813  9.84542e+21
-16.364  1.00585e+22
-16.2466  1.02703e+22
-16.1293  1.04795e+22
-16.012  1.06836e+22
-15.8947  1.08819e+22
-15.7774  1.1073e+22
-15.6601  1.12566e+22
-15.5428  1.14328e+22
-15.4255  1.16023e+22
-15.3082  1.17662e+22
-15.1909  1.19264e+22
-15.0736  1.20848e+22
-14.9563  1.2244e+22
-14.839  1.24061e+22
-14.7217  1.25742e+22
-14.6044  1.27501e+22
-14.4871  1.29363e+22
-14.3698  1.31343e+22
-14.2525  1.3345e+22
-14.1352  1.35689e+22
-14.0178  1.38058e+22
-13.9005  1.40545e+22
-13.7832  1.43133e+22
-13.6659  1.458e+22
-13.5486  1.48528e+22
-13.4313  1.51282e+22
-13.314  1.5404e+22
-13.1967  1.56778e+22
-13.0794  1.59471e+22
-12.9621  1.621e+22
-12.8448  1.64652e+22
-12.7275  1.6711e+22
-12.6102  1.69469e+22
-12.4929  1.71731e+22
-12.3756  1.73894e+22
-12.2583  1.75967e+22
-12.141  1.77959e+22
-12.0237  1.79876e+22
-11.9064  1.8173e+22
-11.7891  1.83532e+22
-11.6718  1.85289e+22
-11.5544  1.87009e+22
-11.4371  1.88707e+22
-11.3198  1.90382e+22
-11.2025  1.9205e+22
-11.0852  1.93719e+22
-10.9679  1.95403e+22
-10.8506  1.97114e+22
-10.7333  1.98866e+22
-10.616  2.00669e+22
-10.4987  2.02541e+22
-10.3814  2.04485e+22
-10.2641  2.06513e+22
-10.1468  2.08629e+22
-10.0295  2.1084e+22
-9.91217  2.1314e+22
-9.79487  2.15528e+22
-9.67756  2.17994e+22
-9.56026  2.20522e+22
-9.44295  2.23093e+22
-9.32565  2.25688e+22
-9.20834  2.28276e+22
-9.09104  2.30831e+22
-8.97373  2.33328e+22
-8.85643  2.3575e+22
-8.73913  2.38066e+22
-8.62182  2.40271e+22
-8.50452  2.42354e+22
-8.38721  2.44316e+22
-8.26991  2.46158e+22
-8.1526  2.47892e+22
-8.03529  2.49524e+22
-7.91799  2.51074e+22
-7.80069  2.52559e+22
-7.68338  2.53995e+22
-7.56608  2.55399e+22
-7.44877  2.56788e+22
-7.33146  2.58172e+22
-7.21416  2.59559e+22
-7.09685  2.60954e+22
-6.97955  2.62356e+22
-6.86224  2.6376e+22
-6.74494  2.65168e+22
-6.62763  2.66564e+22
-6.51033  2.67947e+22
-6.39302  2.69313e+22
-6.27572  2.7066e+22
-6.15842  2.71987e+22
-6.04111  2.73298e+22
-5.92381  2.74595e+22
-5.8065  2.75889e+22
-5.68919  2.77181e+22
-5.57189  2.78482e+22
-5.45458  2.79796e+22
-5.33728  2.81133e+22
-5.21997  2.82494e+22
-5.10267  2.83882e+22
-4.98536  2.85291e+22
-4.86806  2.86714e+22
-4.75075  2.88139e+22
-4.63345  2.8955e+22
-4.51614  2.9093e+22
-4.39884  2.9226e+22
-4.28154  2.93527e+22
-4.16423  2.94725e+22
-4.04692  2.95844e+22
-3.92962  2.96885e+22
-3.81231  2.97851e+22
-3.69501  2.98753e+22
-3.5777  2.99593e+22
-3.4604  3.00381e+22
-3.34309  3.01122e+22
-3.22579  3.01826e+22
-3.10849  3.02499e+22
-2.99118  3.03147e+22
-2.87387  3.0378e+22
-2.75657  3.04407e+22
-2.63926  3.05035e+22
-2.52196  3.05668e+22
-2.40465  3.06309e+22
-2.28735  3.06958e+22
-2.17005  3.07604e+22
-2.05274  3.08244e+22
-1.93544  3.08863e+22
-1.81813  3.09456e+22
-1.70083  3.10016e+22
-1.58352  3.1054e+22
-1.46622  3.11024e+22
-1.34891  3.11473e+22
-1.2316  3.11884e+22
-1.1143  3.1226e+22
-0.996995  3.12596e+22
-0.87969  3.12892e+22
-0.762385  3.13144e+22
-0.64508  3.13351e+22
-0.527775  3.13513e+22
-0.41047  3.13636e+22
-0.293165  3.1372e+22
-0.17586  3.13775e+22
-0.058555  3.13805e+22
0.05875  3.13813e+22
0.176055  3.13798e+22
0.29336  3.13761e+22
0.410665  3.13692e+22
0.52797  3.13591e+22
0.645275  3.1345e+22
0.76258  3.13266e+22
0.879885  3.13039e+22
0.99719  3.1277e+22
1.1145  3.12462e+22
1.2318  3.12116e+22
1.3491  3.11732e+22
1.46641  3.11313e+22
1.58371  3.10854e+22
1.70102  3.10355e+22
1.81832  3.09818e+22
1.93563  3.09244e+22
2.05294  3.08643e+22
2.17024  3.08021e+22
2.28754  3.07388e+22
2.40485  3.06758e+22
2.52216  3.0613e+22
2.63946  3.05511e+22
2.75677  3.049e+22
2.87407  3.04291e+22
2.99137  3.03678e+22
3.10868  3.03051e+22
3.22599  3.02402e+22
3.34329  3.01724e+22
3.4606  3.0101e+22
3.5779  3.0025e+22
3.69521  2.99438e+22
3.81251  2.98565e+22
3.92982  2.97625e+22
4.04712  2.96609e+22
4.16443  2.95514e+22
4.28173  2.9434e+22
4.39903  2.9309e+22
4.51634  2.91777e+22
4.63364  2.90414e+22
4.75095  2.89018e+22
4.86825  2.87605e+22
4.98556  2.86196e+22
5.10286  2.848e+22
5.22017  2.83426e+22
5.33748  2.8208e+22
5.45478  2.8076e+22
5.57209  2.79462e+22
5.68939  2.78181e+22
5.8067  2.76908e+22
5.924  2.75635e+22
6.0413  2.74357e+22
6.15861  2.73069e+22
6.27591  2.71761e+22
6.39322  2.70436e+22
6.51052  2.6909e+22
6.62783  2.67723e+22
6.74514  2.66343e+22
6.86244  2.64956e+22
6.97975  2.63564e+22
7.09705  2.62177e+22
7.21436  2.60797e+22
7.33166  2.59422e+22
7.44897  2.58052e+22
7.56627  2.56678e+22
7.68358  2.55289e+22
7.80088  2.53868e+22
7.91819  2.52398e+22
8.03549  2.50864e+22
8.1528  2.49246e+22
8.2701  2.4753e+22
8.38741  2.45702e+22
8.50471  2.43755e+22
8.62202  2.41685e+22
8.73932  2.39491e+22
8.85662  2.37187e+22
8.97393  2.34777e+22
9.09123  2.32287e+22
9.20854  2.29738e+22
9.32584  2.27158e+22
9.44315  2.2457e+22
9.56045  2.22003e+22
9.67776  2.19481e+22
9.79506  2.17023e+22
9.91237  2.14639e+22
10.0297  2.12348e+22
10.147  2.10148e+22
10.2643  2.08042e+22
10.3816  2.06026e+22
10.4989  2.04094e+22
10.6162  2.02235e+22
10.7335  2.00445e+22
10.8508  1.98708e+22
10.9681  1.97007e+22
11.0854  1.95335e+22
11.2027  1.93676e+22
11.32  1.92015e+22
11.4373  1.90345e+22
11.5546  1.88657e+22
11.6719  1.86938e+22
11.7893  1.85182e+22
11.9066  1.83382e+22
12.0239  1.81525e+22
12.1412  1.79606e+22
12.2585  1.77614e+22
12.3758  1.75538e+22
12.4931  1.73371e+22
12.6104  1.71105e+22
12.7277  1.68741e+22
12.845  1.66281e+22
12.9623  1.63726e+22
13.0796  1.61092e+22
13.1969  1.58395e+22
13.3142  1.55653e+22
13.4315  1.52888e+22
13.5488  1.5013e+22
13.6661  1.47398e+22
13.7834  1.44724e+22
13.9007  1.4213e+22
14.018  1.39638e+22
14.1354  1.37263e+22
14.2527  1.35016e+22
14.37  1.32902e+22
14.4873  1.30917e+22
14.6046  1.29048e+22
14.7219  1.27283e+22
14.8392  1.25597e+22
14.9565  1.23971e+22
15.0738  1.22373e+22
15.1911  1.20782e+22
15.3084  1.19172e+22
15.4257  1.17526e+22
15.543  1.15822e+22
15.6603  1.14049e+22
15.7776  1.12202e+22
15.8949  1.10277e+22
16.0122  1.0828e+22
16.1295  1.06221e+22
16.2468  1.04116e+22
16.3641  1.0198e+22
16.4815  9.98314e+21
16.5988  9.76901e+21
16.7161  9.5564e+21
16.8334  9.34706e+21
16.9507  9.1418e+21
17.068  8.9409e+21
17.1853  8.7448e+21
17.3026  8.55365e+21
17.4199  8.36791e+21
17.5372  8.18761e+21
17.6545  8.01235e+21
17.7718  7.84237e+21
17.8891  7.67753e+21
18.0064  7.51682e+21
18.1237  7.35977e+21
18.241  7.20588e+21
18.3583  7.05411e+21
18.4756  6.90438e+21
18.5929  6.75655e+21
18.7102  6.61099e+21
18.8275  6.46793e+21
18.9449  6.32804e+21
19.0622  6.1918e+21
19.1795  6.05917e+21
19.2968  5.92961e+21
19.4141  5.80293e+21
19.5314  5.67811e+21
19.6487  5.55447e+21
19.766  5.43106e+21
19.8833  5.30799e+21
20.0006  5.185e+21
20.1179  5.06284e+21
20.2352  4.94181e+21
20.3525  4.82255e+21
20.4698  4.7056e+21
20.5871  4.59091e+21
20.7044  4.47866e+21
20.8217  4.36841e+21
20.939  4.26024e+21
21.0563  4.15392e+21
21.1736  4.04957e+21
21.291  3.94776e+21
21.4083  3.84853e+21
21.5256  3.75262e+21
21.6429  3.66034e+21
21.7602  3.57142e+21
21.8775  3.48553e+21
21.9948  3.40202e+21
22.1121  3.32015e+21
22.2294  3.23898e+21
22.3467  3.1577e+21
22.464  3.07599e+21
22.5813  2.99363e+21
22.6986  2.91049e+21
22.8159  2.82668e+21
22.9332  2.74256e+21
23.0505  2.65825e+21
23.1678  2.57422e+21
23.2851  2.49092e+21
23.4024  2.40892e+21
23.5198  2.32893e+21
23.6371  2.25195e+21
23.7544  2.17884e+21
23.8717  2.11046e+21
23.989  2.04736e+21
24.1063  1.9901e+21
24.2236  1.93875e+21
24.3409  1.89306e+21
24.4582  1.85239e+21
24.5755  1.81639e+21
24.6928  1.78407e+21
24.8101  1.7549e+21
24.9274  1.72793e+21
25.0447  1.70256e+21
25.162  1.67799e+21
25.2793  1.65326e+21
25.3966  1.6278e+21
25.5139  1.60064e+21
25.6312  1.57146e+21
25.7485  1.54002e+21
25.8658  1.50645e+21
25.9832  1.47136e+21
26.1005  1.43535e+21
26.2178  1.39967e+21
26.3351  1.36521e+21
26.4524  1.33269e+21
26.5697  1.30269e+21
26.687  1.27552e+21
26.8043  1.25112e+21
26.9216  1.22937e+21
27.0389  1.20992e+21
27.1562  1.19277e+21
27.2735  1.17765e+21
27.3908  1.16452e+21
27.5081  1.15333e+21
27.6254  1.14392e+21
27.7427  1.13615e+21
27.86  1.12969e+21
27.9773  1.12418e+21
28.0946  1.11913e+21
28.212  1.11425e+21
28.3293  1.10941e+21
28.4466  1.10437e+21
28.5639  1.09924e+21
28.6812  1.094e+21
28.7985  1.08888e+21
28.9158  1.08392e+21
29.0331  1.07898e+21
29.1504  1.07377e+21
29.2677  1.06821e+21
29.385  1.06172e+21
29.5023  1.05411e+21
29.6196  1.045e+21
29.7369  1.03445e+21
29.8542  1.02234e+21
29.9715  1.0087e+21
30.0888  9.93876e+20
30.2061  9.77914e+20
30.3234  9.61205e+20
30.4407  9.44133e+20
30.558  9.27109e+20
30.6754  9.10503e+20
30.7927  8.9464e+20
30.91  8.80031e+20
31.0273  8.66886e+20
31.1446  8.55458e+20
31.2619  8.45822e+20
31.3792  8.38165e+20
31.4965  8.32271e+20
31.6138  8.28118e+20
31.7311  8.25449e+20
31.8484  8.24197e+20
31.9657  8.23944e+20
32.083  8.24402e+20
32.2003  8.25175e+20
32.3176  8.25776e+20
32.4349  8.25779e+20
32.5522  8.24768e+20
32.6695  8.22358e+20
32.7868  8.18316e+20
32.9042  8.12569e+20
33.0215  8.05312e+20
33.1388  7.96643e+20
33.2561  7.86857e+20
33.3734  7.76257e+20
33.4907  7.65159e+20
33.608  7.53807e+20
33.7253  7.42456e+20
33.8426  7.31247e+20
33.9599  7.20548e+20
34.0772  7.10533e+20
34.1945  7.01577e+20
34.3118  6.94088e+20
34.4291  6.88444e+20
34.5464  6.84961e+20
34.6637  6.83734e+20
34.781  6.84861e+20
34.8983  6.88046e+20
35.0156  6.92969e+20
35.1329  6.99226e+20
35.2503  7.06229e+20
35.3676  7.13371e+20
35.4849  7.19885e+20
35.6022  7.25134e+20
35.7195  7.28392e+20
35.8368  7.29049e+20
35.9541  7.26468e+20
36.0714  7.20409e+20
36.1887  7.10596e+20
36.306  6.97138e+20
36.4233  6.80485e+20
36.5406  6.61478e+20
36.6579  6.40942e+20
36.7752  6.20008e+20
36.8925  5.99818e+20
37.0098  5.81462e+20
37.1271  5.65748e+20
37.2444  5.53492e+20
37.3617  5.45093e+20
37.479  5.40825e+20
37.5964  5.40637e+20
37.7137  5.44415e+20
37.831  5.51681e+20
37.9483  5.6162e+20
38.0656  5.73361e+20
38.1829  5.85616e+20
38.3002  5.97037e+20
38.4175  6.06238e+20
38.5348  6.11931e+20
38.6521  6.13114e+20
38.7694  6.09166e+20
38.8867  6.00047e+20
39.004  5.86247e+20
39.1213  5.68619e+20
39.2386  5.48385e+20
39.3559  5.26863e+20
39.4732  5.05442e+20
39.5905  4.85199e+20
39.7078  4.67081e+20
39.8251  4.51906e+20
39.9425  4.4008e+20
40.0598  4.31912e+20
40.1771  4.27415e+20
40.2944  4.265e+20
40.4117  4.28826e+20
40.529  4.33834e+20
40.6463  4.40578e+20
40.7636  4.48025e+20
40.8809  4.54955e+20
40.9982  4.60006e+20
41.1155  4.62128e+20
41.2328  4.60593e+20
41.3501  4.55031e+20
41.4674  4.45548e+20
41.5847  4.32743e+20
41.702  4.17683e+20
41.8193  4.01457e+20
41.9366  3.85489e+20
42.0539  3.70886e+20
42.1712  3.58812e+20
42.2885  3.50044e+20
42.4059  3.45309e+20
42.5232  3.45073e+20
42.6405  3.49376e+20
42.7578  3.58258e+20
42.8751  3.71203e+20
42.9924  3.87522e+20
43.1097  4.05988e+20
43.227  4.25174e+20
43.3443  4.43401e+20
43.4616  4.58839e+20
43.5789  4.70059e+20
43.6962  4.75844e+20
43.8135  4.75552e+20
43.9308  4.69161e+20
44.0481  4.57257e+20
44.1654  4.41083e+20
44.2827  4.2191e+20
44.4  4.01319e+20
44.5173  3.80879e+20
44.6347  3.61814e+20
44.752  3.4519e+20
44.8693  3.31655e+20
44.9866  3.21582e+20
45.1039  3.15117e+20
45.2212  3.12129e+20
45.3385  3.12167e+20
45.4558  3.14742e+20
45.5731  3.19164e+20
45.6904  3.24481e+20
45.8077  3.29835e+20
45.925  3.34362e+20
46.0423  3.37364e+20
46.1596  3.38201e+20
46.2769  3.36663e+20
46.3942  3.32848e+20
46.5115  3.27078e+20
46.6288  3.19909e+20
46.7461  3.12001e+20
46.8634  3.04208e+20
46.9808  2.97161e+20
47.0981  2.91598e+20
47.2154  2.88147e+20
47.3327  2.87092e+20
47.45  2.88814e+20
47.5673  2.93237e+20
47.6846  3.00356e+20
47.8019  3.09618e+20
47.9192  3.20399e+20
48.0365  3.31904e+20
48.1538  3.43083e+20
48.2711  3.53032e+20
48.3884  3.60913e+20
48.5057  3.66038e+20
48.623  3.68152e+20
48.7403  3.67132e+20
48.8576  3.63399e+20
48.9749  3.57277e+20
49.0922  3.49385e+20
49.2095  3.40243e+20
49.3269  3.30547e+20
49.4442  3.20743e+20
49.5615  3.11347e+20
49.6788  3.02728e+20
49.7961  2.95336e+20
49.9134  2.89403e+20
50.0307  2.85152e+20
50.148  2.82729e+20
50.2653  2.81988e+20
50.3826  2.82615e+20
50.4999  2.84142e+20
50.6172  2.85984e+20
50.7345  2.87509e+20
50.8518  2.88089e+20
