#S 1 spectral density
#N 2
#UFWHM 34.2531
#L  abscissas [um]  spectral density
-58.5938  2.83345e+20
-58.4764  2.746e+20
-58.3591  2.66887e+20
-58.2418  2.60555e+20
-58.1245  2.55977e+20
-58.0072  2.53154e+20
-57.8899  2.52297e+20
-57.7726  2.53389e+20
-57.6553  2.56415e+20
-57.538  2.61317e+20
-57.4207  2.68065e+20
-57.3034  2.76386e+20
-57.1861  2.85928e+20
-57.0688  2.95983e+20
-56.9515  3.05821e+20
-56.8342  3.14639e+20
-56.7169  3.21539e+20
-56.5996  3.25976e+20
-56.4823  3.27499e+20
-56.365  3.26169e+20
-56.2477  3.22191e+20
-56.1303  3.16388e+20
-56.013  3.09456e+20
-55.8957  3.02302e+20
-55.7784  2.95745e+20
-55.6611  2.90453e+20
-55.5438  2.86923e+20
-55.4265  2.85347e+20
-55.3092  2.85928e+20
-55.1919  2.88521e+20
-55.0746  2.92984e+20
-54.9573  2.99116e+20
-54.84  3.06585e+20
-54.7227  3.14997e+20
-54.6054  3.23909e+20
-54.4881  3.32847e+20
-54.3708  3.41342e+20
-54.2535  3.48896e+20
-54.1362  3.54965e+20
-54.0189  3.59179e+20
-53.9016  3.61437e+20
-53.7842  3.61611e+20
-53.6669  3.599e+20
-53.5496  3.565e+20
-53.4323  3.519e+20
-53.315  3.46547e+20
-53.1977  3.41016e+20
-53.0804  3.35886e+20
-52.9631  3.31491e+20
-52.8458  3.2819e+20
-52.7285  3.26184e+20
-52.6112  3.25449e+20
-52.4939  3.2589e+20
-52.3766  3.27206e+20
-52.2593  3.29271e+20
-52.142  3.31849e+20
-52.0247  3.34846e+20
-51.9074  3.38253e+20
-51.7901  3.42072e+20
-51.6728  3.46467e+20
-51.5555  3.5145e+20
-51.4381  3.5714e+20
-51.3208  3.63493e+20
-51.2035  3.70386e+20
-51.0862  3.77694e+20
-50.9689  3.8526e+20
-50.8516  3.93041e+20
-50.7343  4.01042e+20
-50.617  4.09353e+20
-50.4997  4.18039e+20
-50.3824  4.27208e+20
-50.2651  4.36731e+20
-50.1478  4.46632e+20
-50.0305  4.56387e+20
-49.9132  4.65836e+20
-49.7959  4.74387e+20
-49.6786  4.81694e+20
-49.5613  4.87502e+20
-49.444  4.91631e+20
-49.3267  4.93906e+20
-49.2094  4.94627e+20
-49.092  4.93862e+20
-48.9747  4.91839e+20
-48.8574  4.88567e+20
-48.7401  4.8427e+20
-48.6228  4.7899e+20
-48.5055  4.72882e+20
-48.3882  4.66331e+20
-48.2709  4.59488e+20
-48.1536  4.52846e+20
-48.0363  4.46982e+20
-47.919  4.42199e+20
-47.8017  4.38852e+20
-47.6844  4.37134e+20
-47.5671  4.37128e+20
-47.4498  4.38729e+20
-47.3325  4.41719e+20
-47.2152  4.4589e+20
-47.0979  4.50984e+20
-46.9806  4.56761e+20
-46.8633  4.63115e+20
-46.7459  4.69827e+20
-46.6286  4.76766e+20
-46.5113  4.83793e+20
-46.394  4.90726e+20
-46.2767  4.97441e+20
-46.1594  5.03804e+20
-46.0421  5.09938e+20
-45.9248  5.15803e+20
-45.8075  5.21541e+20
-45.6902  5.27377e+20
-45.5729  5.33358e+20
-45.4556  5.39737e+20
-45.3383  5.46329e+20
-45.221  5.53315e+20
-45.1037  5.60529e+20
-44.9864  5.67877e+20
-44.8691  5.75429e+20
-44.7518  5.83164e+20
-44.6345  5.90863e+20
-44.5172  5.98577e+20
-44.3998  6.06176e+20
-44.2825  6.13125e+20
-44.1652  6.19033e+20
-44.0479  6.23353e+20
-43.9306  6.25618e+20
-43.8133  6.2546e+20
-43.696  6.23071e+20
-43.5787  6.18591e+20
-43.4614  6.12858e+20
-43.3441  6.06928e+20
-43.2268  6.01796e+20
-43.1095  5.98552e+20
-42.9922  5.98047e+20
-42.8749  6.0085e+20
-42.7576  6.07123e+20
-42.6403  6.16562e+20
-42.523  6.28898e+20
-42.4057  6.43357e+20
-42.2884  6.5916e+20
-42.171  6.75738e+20
-42.0537  6.9212e+20
-41.9364  7.07622e+20
-41.8191  7.21392e+20
-41.7018  7.32552e+20
-41.5845  7.40405e+20
-41.4672  7.44159e+20
-41.3499  7.43621e+20
-41.2326  7.38564e+20
-41.1153  7.29326e+20
-40.998  7.16713e+20
-40.8807  7.01687e+20
-40.7634  6.85632e+20
-40.6461  6.69756e+20
-40.5288  6.55297e+20
-40.4115  6.4325e+20
-40.2942  6.34311e+20
-40.1769  6.2897e+20
-40.0596  6.27454e+20
-39.9423  6.29769e+20
-39.825  6.35785e+20
-39.7076  6.45518e+20
-39.5903  6.58258e+20
-39.473  6.7368e+20
-39.3557  6.90954e+20
-39.2384  7.09177e+20
-39.1211  7.27082e+20
-39.0038  7.43681e+20
-38.8865  7.57717e+20
-38.7692  7.68382e+20
-38.6519  7.75229e+20
-38.5346  7.78137e+20
-38.4173  7.77482e+20
-38.3  7.73928e+20
-38.1827  7.68358e+20
-38.0654  7.61837e+20
-37.9481  7.55105e+20
-37.8308  7.49203e+20
-37.7135  7.44549e+20
-37.5962  7.41549e+20
-37.4789  7.40676e+20
-37.3615  7.4189e+20
-37.2442  7.45427e+20
-37.1269  7.51134e+20
-37.0096  7.58959e+20
-36.8923  7.68658e+20
-36.775  7.79804e+20
-36.6577  7.9211e+20
-36.5404  8.04942e+20
-36.4231  8.17891e+20
-36.3058  8.30583e+20
-36.1885  8.42761e+20
-36.0712  8.54442e+20
-35.9539  8.65809e+20
-35.8366  8.77029e+20
-35.7193  8.88522e+20
-35.602  9.00738e+20
-35.4847  9.1389e+20
-35.3674  9.28216e+20
-35.2501  9.43912e+20
-35.1328  9.60863e+20
-35.0154  9.7922e+20
-34.8981  9.98472e+20
-34.7808  1.01849e+21
-34.6635  1.03893e+21
-34.5462  1.05935e+21
-34.4289  1.07904e+21
-34.3116  1.09755e+21
-34.1943  1.11435e+21
-34.077  1.12888e+21
-33.9597  1.14093e+21
-33.8424  1.15043e+21
-33.7251  1.15764e+21
-33.6078  1.16288e+21
-33.4905  1.16677e+21
-33.3732  1.17012e+21
-33.2559  1.17344e+21
-33.1386  1.17776e+21
-33.0213  1.1836e+21
-32.904  1.19165e+21
-32.7867  1.20253e+21
-32.6693  1.2167e+21
-32.552  1.23473e+21
-32.4347  1.25675e+21
-32.3174  1.28305e+21
-32.2001  1.31351e+21
-32.0828  1.34778e+21
-31.9655  1.38548e+21
-31.8482  1.42569e+21
-31.7309  1.46758e+21
-31.6136  1.51003e+21
-31.4963  1.55212e+21
-31.379  1.59287e+21
-31.2617  1.63164e+21
-31.1444  1.66776e+21
-31.0271  1.70101e+21
-30.9098  1.73155e+21
-30.7925  1.75948e+21
-30.6752  1.78538e+21
-30.5579  1.81011e+21
-30.4406  1.83445e+21
-30.3232  1.85963e+21
-30.2059  1.88664e+21
-30.0886  1.91642e+21
-29.9713  1.9501e+21
-29.854  1.98819e+21
-29.7367  2.03106e+21
-29.6194  2.07886e+21
-29.5021  2.13147e+21
-29.3848  2.18826e+21
-29.2675  2.24856e+21
-29.1502  2.31141e+21
-29.0329  2.37594e+21
-28.9156  2.44061e+21
-28.7983  2.50449e+21
-28.681  2.56625e+21
-28.5637  2.62477e+21
-28.4464  2.67941e+21
-28.3291  2.72962e+21
-28.2118  2.77557e+21
-28.0944  2.81804e+21
-27.9771  2.85794e+21
-27.8598  2.89696e+21
-27.7425  2.93673e+21
-27.6252  2.97923e+21
-27.5079  3.02581e+21
-27.3906  3.07794e+21
-27.2733  3.13661e+21
-27.156  3.20216e+21
-27.0387  3.27482e+21
-26.9214  3.35421e+21
-26.8041  3.43981e+21
-26.6868  3.53051e+21
-26.5695  3.62522e+21
-26.4522  3.72233e+21
-26.3349  3.82003e+21
-26.2176  3.91662e+21
-26.1003  4.01001e+21
-25.983  4.09869e+21
-25.8657  4.18151e+21
-25.7483  4.25771e+21
-25.631  4.3277e+21
-25.5137  4.39256e+21
-25.3964  4.45357e+21
-25.2791  4.51318e+21
-25.1618  4.57356e+21
-25.0445  4.63696e+21
-24.9272  4.70522e+21
-24.8099  4.77993e+21
-24.6926  4.86167e+21
-24.5753  4.9508e+21
-24.458  5.04665e+21
-24.3407  5.14853e+21
-24.2234  5.25459e+21
-24.1061  5.36322e+21
-23.9888  5.47193e+21
-23.8715  5.57858e+21
-23.7542  5.68074e+21
-23.6369  5.77632e+21
-23.5196  5.86423e+21
-23.4023  5.94388e+21
-23.2849  6.0155e+21
-23.1676  6.08041e+21
-23.0503  6.14093e+21
-22.933  6.20006e+21
-22.8157  6.26054e+21
-22.6984  6.32592e+21
-22.5811  6.39907e+21
-22.4638  6.48244e+21
-22.3465  6.57766e+21
-22.2292  6.68582e+21
-22.1119  6.8067e+21
-21.9946  6.93939e+21
-21.8773  7.08213e+21
-21.76  7.23204e+21
-21.6427  7.38579e+21
-21.5254  7.5395e+21
-21.4081  7.68884e+21
-21.2908  7.82991e+21
-21.1735  7.95941e+21
-21.0561  8.07476e+21
-20.9388  8.17509e+21
-20.8215  8.2615e+21
-20.7042  8.33535e+21
-20.5869  8.40044e+21
-20.4696  8.46096e+21
-20.3523  8.5217e+21
-20.235  8.58715e+21
-20.1177  8.6617e+21
-20.0004  8.74858e+21
-19.8831  8.85076e+21
-19.7658  8.96914e+21
-19.6485  9.10473e+21
-19.5312  9.25668e+21
-19.4139  9.42393e+21
-19.2966  9.60352e+21
-19.1793  9.79261e+21
-19.062  9.98677e+21
-18.9447  1.01815e+22
-18.8274  1.03722e+22
-18.71  1.05546e+22
-18.5927  1.07244e+22
-18.4754  1.08793e+22
-18.3581  1.10181e+22
-18.2408  1.11409e+22
-18.1235  1.12487e+22
-18.0062  1.13446e+22
-17.8889  1.14315e+22
-17.7716  1.15135e+22
-17.6543  1.15934e+22
-17.537  1.1675e+22
-17.4197  1.176e+22
-17.3024  1.18504e+22
-17.1851  1.19473e+22
-17.0678  1.20506e+22
-16.9505  1.21604e+22
-16.8332  1.22761e+22
-16.7159  1.23965e+22
-16.5986  1.25202e+22
-16.4813  1.26464e+22
-16.364  1.27732e+22
-16.2466  1.29001e+22
-16.1293  1.30271e+22
-16.012  1.31533e+22
-15.8947  1.328e+22
-15.7774  1.34079e+22
-15.6601  1.35388e+22
-15.5428  1.36743e+22
-15.4255  1.38157e+22
-15.3082  1.39642e+22
-15.1909  1.41208e+22
-15.0736  1.42845e+22
-14.9563  1.44547e+22
-14.839  1.46297e+22
-14.7217  1.48072e+22
-14.6044  1.49839e+22
-14.4871  1.51574e+22
-14.3698  1.53238e+22
-14.2525  1.54807e+22
-14.1352  1.56254e+22
-14.0178  1.57565e+22
-13.9005  1.58728e+22
-13.7832  1.59743e+22
-13.6659  1.60626e+22
-13.5486  1.61394e+22
-13.4313  1.62076e+22
-13.314  1.62706e+22
-13.1967  1.63323e+22
-13.0794  1.63968e+22
-12.9621  1.64669e+22
-12.8448  1.65464e+22
-12.7275  1.66371e+22
-12.6102  1.67404e+22
-12.4929  1.6857e+22
-12.3756  1.69862e+22
-12.2583  1.71271e+22
-12.141  1.72778e+22
-12.0237  1.74358e+22
-11.9064  1.75981e+22
-11.7891  1.77621e+22
-11.6718  1.79244e+22
-11.5544  1.80825e+22
-11.4371  1.82348e+22
-11.3198  1.83789e+22
-11.2025  1.85143e+22
-11.0852  1.86404e+22
-10.9679  1.87581e+22
-10.8506  1.88675e+22
-10.7333  1.89696e+22
-10.616  1.90654e+22
-10.4987  1.91566e+22
-10.3814  1.92432e+22
-10.2641  1.93262e+22
-10.1468  1.94065e+22
-10.0295  1.94846e+22
-9.91217  1.95605e+22
-9.79487  1.96353e+22
-9.67756  1.97086e+22
-9.56026  1.97811e+22
-9.44295  1.98527e+22
-9.32565  1.99243e+22
-9.20834  1.99958e+22
-9.09104  2.00674e+22
-8.97373  2.01401e+22
-8.85643  2.02142e+22
-8.73913  2.02906e+22
-8.62182  2.03695e+22
-8.50452  2.04516e+22
-8.38721  2.05377e+22
-8.26991  2.06273e+22
-8.1526  2.07207e+22
-8.03529  2.08171e+22
-7.91799  2.09161e+22
-7.80069  2.10168e+22
-7.68338  2.11181e+22
-7.56608  2.12196e+22
-7.44877  2.13202e+22
-7.33146  2.14195e+22
-7.21416  2.15168e+22
-7.09685  2.16118e+22
-6.97955  2.17043e+22
-6.86224  2.17943e+22
-6.74494  2.18824e+22
-6.62763  2.19684e+22
-6.51033  2.20528e+22
-6.39302  2.21362e+22
-6.27572  2.22192e+22
-6.15842  2.2302e+22
-6.04111  2.23843e+22
-5.92381  2.24664e+22
-5.8065  2.25479e+22
-5.68919  2.26281e+22
-5.57189  2.27061e+22
-5.45458  2.27814e+22
-5.33728  2.28533e+22
-5.21997  2.29208e+22
-5.10267  2.29837e+22
-4.98536  2.30417e+22
-4.86806  2.30941e+22
-4.75075  2.31408e+22
-4.63345  2.31821e+22
-4.51614  2.32179e+22
-4.39884  2.32486e+22
-4.28154  2.32756e+22
-4.16423  2.32999e+22
-4.04692  2.3323e+22
-3.92962  2.33467e+22
-3.81231  2.33723e+22
-3.69501  2.34014e+22
-3.5777  2.34344e+22
-3.4604  2.34718e+22
-3.34309  2.35129e+22
-3.22579  2.35573e+22
-3.10849  2.36035e+22
-2.99118  2.36507e+22
-2.87387  2.36978e+22
-2.75657  2.37436e+22
-2.63926  2.37875e+22
-2.52196  2.38287e+22
-2.40465  2.38663e+22
-2.28735  2.38997e+22
-2.17005  2.39281e+22
-2.05274  2.39512e+22
-1.93544  2.39685e+22
-1.81813  2.39796e+22
-1.70083  2.39852e+22
-1.58352  2.39861e+22
-1.46622  2.39831e+22
-1.34891  2.39771e+22
-1.2316  2.39694e+22
-1.1143  2.39609e+22
-0.996995  2.39522e+22
-0.87969  2.39432e+22
-0.762385  2.39344e+22
-0.64508  2.39258e+22
-0.527775  2.39176e+22
-0.41047  2.39102e+22
-0.293165  2.39042e+22
-0.17586  2.39002e+22
-0.058555  2.38986e+22
0.05875  2.38996e+22
0.176055  2.39035e+22
0.29336  2.39095e+22
0.410665  2.39173e+22
0.52797  2.39263e+22
0.645275  2.39359e+22
0.76258  2.39457e+22
0.879885  2.39555e+22
0.99719  2.39654e+22
1.1145  2.3975e+22
1.2318  2.39842e+22
1.3491  2.39923e+22
1.46641  2.39989e+22
1.58371  2.40027e+22
1.70102  2.40027e+22
1.81832  2.39981e+22
1.93563  2.39879e+22
2.05294  2.39721e+22
2.17024  2.39506e+22
2.28754  2.39236e+22
2.40485  2.38919e+22
2.52216  2.3856e+22
2.63946  2.38166e+22
2.75677  2.37746e+22
2.87407  2.37303e+22
2.99137  2.36848e+22
3.10868  2.36389e+22
3.22599  2.35938e+22
3.34329  2.35505e+22
3.4606  2.35103e+22
3.5779  2.34737e+22
3.69521  2.34416e+22
3.81251  2.34134e+22
3.92982  2.33885e+22
4.04712  2.33657e+22
4.16443  2.33436e+22
4.28173  2.33203e+22
4.39903  2.32946e+22
4.51634  2.32651e+22
4.63364  2.32308e+22
4.75095  2.31911e+22
4.86825  2.31459e+22
4.98556  2.30952e+22
5.10286  2.30389e+22
5.22017  2.29774e+22
5.33748  2.29112e+22
5.45478  2.28408e+22
5.57209  2.27669e+22
5.68939  2.26898e+22
5.8067  2.26109e+22
5.924  2.25304e+22
6.0413  2.24491e+22
6.15861  2.23677e+22
6.27591  2.22859e+22
6.39322  2.2204e+22
6.51052  2.21216e+22
6.62783  2.20381e+22
6.74514  2.19533e+22
6.86244  2.18667e+22
6.97975  2.17777e+22
7.09705  2.16867e+22
7.21436  2.15931e+22
7.33166  2.1497e+22
7.44897  2.13992e+22
7.56627  2.12998e+22
7.68358  2.11997e+22
7.80088  2.10993e+22
7.91819  2.09995e+22
8.03549  2.09015e+22
8.1528  2.08059e+22
8.2701  2.07132e+22
8.38741  2.06242e+22
8.50471  2.05391e+22
8.62202  2.04575e+22
8.73932  2.03793e+22
8.85662  2.0304e+22
8.97393  2.02309e+22
9.09123  2.01593e+22
9.20854  2.00888e+22
9.32584  2.0019e+22
9.44315  1.99488e+22
9.56045  1.98783e+22
9.67776  1.98073e+22
9.79506  1.97353e+22
9.91237  1.96619e+22
10.0297  1.9587e+22
10.147  1.951e+22
10.2643  1.94308e+22
10.3816  1.93482e+22
10.4989  1.92622e+22
10.6162  1.91717e+22
10.7335  1.9076e+22
10.8508  1.89741e+22
10.9681  1.88647e+22
11.0854  1.87474e+22
11.2027  1.86211e+22
11.32  1.84858e+22
11.4373  1.83418e+22
11.5546  1.81901e+22
11.6719  1.80321e+22
11.7893  1.78705e+22
11.9066  1.77075e+22
12.0239  1.75458e+22
12.1412  1.73888e+22
12.2585  1.72392e+22
12.3758  1.70994e+22
12.4931  1.69711e+22
12.6104  1.68555e+22
12.7277  1.67533e+22
12.845  1.66638e+22
12.9623  1.65852e+22
13.0796  1.65156e+22
13.1969  1.64521e+22
13.3142  1.63907e+22
13.4315  1.63281e+22
13.5488  1.62604e+22
13.6661  1.6184e+22
13.7834  1.60961e+22
13.9007  1.59948e+22
14.018  1.5879e+22
14.1354  1.57481e+22
14.2527  1.56034e+22
14.37  1.54469e+22
14.4873  1.52805e+22
14.6046  1.51074e+22
14.7219  1.49307e+22
14.8392  1.47535e+22
14.9565  1.45789e+22
15.0738  1.44085e+22
15.1911  1.4245e+22
15.3084  1.40886e+22
15.4257  1.39401e+22
15.543  1.37986e+22
15.6603  1.36631e+22
15.7776  1.35324e+22
15.8949  1.34044e+22
16.0122  1.32779e+22
16.1295  1.31516e+22
16.2468  1.30253e+22
16.3641  1.28984e+22
16.4815  1.27719e+22
16.5988  1.26464e+22
16.7161  1.25229e+22
16.8334  1.24029e+22
16.9507  1.22878e+22
17.068  1.21783e+22
17.1853  1.2075e+22
17.3026  1.19781e+22
17.4199  1.18878e+22
17.5372  1.18027e+22
17.6545  1.17208e+22
17.7718  1.16401e+22
17.8891  1.15577e+22
18.0064  1.14697e+22
18.1237  1.1373e+22
18.241  1.12642e+22
18.3583  1.11405e+22
18.4756  1.10008e+22
18.5929  1.08448e+22
18.7102  1.06742e+22
18.8275  1.04911e+22
18.9449  1.02997e+22
19.0622  1.01045e+22
19.1795  9.91003e+21
19.2968  9.72082e+21
19.4141  9.54104e+21
19.5314  9.37382e+21
19.6487  9.22181e+21
19.766  9.08603e+21
19.8833  8.96737e+21
20.0006  8.86499e+21
20.1179  8.77775e+21
20.2352  8.70271e+21
20.3525  8.63649e+21
20.4698  8.5751e+21
20.5871  8.51362e+21
20.7044  8.44743e+21
20.8217  8.37225e+21
20.939  8.28488e+21
21.0563  8.18311e+21
21.1736  8.06654e+21
21.291  7.93608e+21
21.4083  7.79388e+21
21.5256  7.64348e+21
21.6429  7.48917e+21
21.7602  7.33465e+21
21.8775  7.18408e+21
21.9948  7.0408e+21
22.1121  6.90788e+21
22.2294  6.78679e+21
22.3467  6.67833e+21
22.464  6.58262e+21
22.5813  6.499e+21
22.6986  6.42537e+21
22.8159  6.35945e+21
22.9332  6.2985e+21
23.0505  6.23881e+21
23.1678  6.17747e+21
23.2851  6.11158e+21
23.4024  6.03905e+21
23.5198  5.95841e+21
23.6371  5.86926e+21
23.7544  5.77251e+21
23.8717  5.66925e+21
23.989  5.56153e+21
24.1063  5.45179e+21
24.2236  5.34216e+21
24.3409  5.23506e+21
24.4582  5.1323e+21
24.5755  5.0354e+21
24.6928  4.94537e+21
24.8101  4.86277e+21
24.9274  4.78728e+21
25.0447  4.71805e+21
25.162  4.65382e+21
25.2793  4.59251e+21
25.3966  4.53188e+21
25.5139  4.46967e+21
25.6312  4.40386e+21
25.7485  4.33275e+21
25.8658  4.25527e+21
25.9832  4.17138e+21
26.1005  4.08147e+21
26.2178  3.98683e+21
26.3351  3.8892e+21
26.4524  3.79027e+21
26.5697  3.6921e+21
26.687  3.59627e+21
26.8043  3.50465e+21
26.9216  3.41821e+21
27.0389  3.33786e+21
27.1562  3.2643e+21
27.2735  3.19795e+21
27.3908  3.1385e+21
27.5081  3.08547e+21
27.6254  3.03813e+21
27.7427  2.99487e+21
27.86  2.9541e+21
27.9773  2.91408e+21
28.0946  2.87317e+21
28.212  2.82964e+21
28.3293  2.78244e+21
28.4466  2.73101e+21
28.5639  2.67518e+21
28.6812  2.61542e+21
28.7985  2.55251e+21
28.9158  2.4875e+21
29.0331  2.4216e+21
29.1504  2.35608e+21
29.2677  2.2922e+21
29.385  2.23093e+21
29.5023  2.17333e+21
29.6196  2.11998e+21
29.7369  2.07139e+21
29.8542  2.02787e+21
29.9715  1.98914e+21
30.0888  1.95487e+21
30.2061  1.92434e+21
30.3234  1.89672e+21
30.4407  1.87094e+21
30.558  1.84579e+21
30.6754  1.82033e+21
30.7927  1.79354e+21
30.91  1.7647e+21
31.0273  1.73333e+21
31.1446  1.69901e+21
31.2619  1.66192e+21
31.3792  1.62218e+21
31.4965  1.58047e+21
31.6138  1.53753e+21
31.7311  1.49415e+21
31.8484  1.45151e+21
31.9657  1.41058e+21
32.083  1.37225e+21
32.2003  1.33733e+21
32.3176  1.30636e+21
32.4349  1.27962e+21
32.5522  1.25709e+21
32.6695  1.23865e+21
32.7868  1.22406e+21
32.9042  1.21275e+21
33.0215  1.20426e+21
33.1388  1.19797e+21
33.2561  1.19322e+21
33.3734  1.18936e+21
33.4907  1.18554e+21
33.608  1.18107e+21
33.7253  1.17523e+21
33.8426  1.16742e+21
33.9599  1.15731e+21
34.0772  1.14464e+21
34.1945  1.12949e+21
34.3118  1.11216e+21
34.4291  1.09306e+21
34.5464  1.07291e+21
34.6637  1.05208e+21
34.781  1.03121e+21
34.8983  1.01074e+21
35.0156  9.91094e+20
35.1329  9.72493e+20
35.2503  9.55131e+20
35.3676  9.39107e+20
35.4849  9.24403e+20
35.6022  9.10911e+20
35.7195  8.9839e+20
35.8368  8.86421e+20
35.9541  8.74806e+20
36.0714  8.63091e+20
36.1887  8.50996e+20
36.306  8.38416e+20
36.4233  8.25349e+20
36.5406  8.12096e+20
36.6579  7.98937e+20
36.7752  7.86374e+20
36.8925  7.74982e+20
37.0098  7.65071e+20
37.1271  7.57133e+20
37.2444  7.51264e+20
37.3617  7.47649e+20
37.479  7.46337e+20
37.5964  7.47181e+20
37.7137  7.50087e+20
37.831  7.5468e+20
37.9483  7.60551e+20
38.0656  7.67127e+20
38.1829  7.73523e+20
38.3002  7.78894e+20
38.4175  7.8222e+20
38.5348  7.82576e+20
38.6521  7.79381e+20
38.7694  7.72257e+20
38.8867  7.61224e+20
39.004  7.46867e+20
39.1213  7.30032e+20
39.2386  7.11949e+20
39.3559  6.93668e+20
39.4732  6.76241e+20
39.5905  6.60744e+20
39.7078  6.47963e+20
39.8251  6.38339e+20
39.9425  6.32345e+20
40.0598  6.30114e+20
40.1771  6.31726e+20
40.2944  6.37232e+20
40.4117  6.46271e+20
40.529  6.58399e+20
40.6463  6.7294e+20
40.7636  6.88888e+20
40.8809  7.04965e+20
40.9982  7.19901e+20
41.1155  7.32446e+20
41.2328  7.41555e+20
41.3501  7.46441e+20
41.4674  7.46801e+20
41.5847  7.42854e+20
41.702  7.3486e+20
41.8193  7.23557e+20
41.9366  7.09695e+20
42.0539  6.94124e+20
42.1712  6.77673e+20
42.2885  6.61183e+20
42.4059  6.45369e+20
42.5232  6.30989e+20
42.6405  6.18762e+20
42.7578  6.09429e+20
42.8751  6.03339e+20
42.9924  6.00651e+20
43.1097  6.01289e+20
43.227  6.04598e+20
43.3443  6.09842e+20
43.4616  6.15871e+20
43.5789  6.21546e+20
43.6962  6.25945e+20
43.8135  6.28336e+20
43.9308  6.28475e+20
44.0481  6.26266e+20
44.1654  6.21848e+20
44.2827  6.15891e+20
44.4  6.08926e+20
44.5173  6.01429e+20
44.6347  5.93708e+20
44.752  5.8602e+20
44.8693  5.78351e+20
44.9866  5.70903e+20
45.1039  5.63497e+20
45.2212  5.56308e+20
45.3385  5.49385e+20
45.4558  5.42744e+20
45.5731  5.36427e+20
45.6904  5.30439e+20
45.8077  5.24591e+20
45.925  5.18838e+20
46.0423  5.12923e+20
46.1596  5.0677e+20
46.2769  5.00342e+20
46.3942  4.93629e+20
46.5115  4.86655e+20
46.6288  4.79638e+20
46.7461  4.72688e+20
46.8634  4.6598e+20
46.9808  4.5974e+20
47.0981  4.53965e+20
47.2154  4.48937e+20
47.3327  4.44783e+20
47.45  4.41902e+20
47.5673  4.40396e+20
47.6846  4.40463e+20
47.8019  4.42253e+20
47.9192  4.45679e+20
48.0365  4.50583e+20
48.1538  4.56566e+20
48.2711  4.63169e+20
48.3884  4.69986e+20
48.5057  4.76608e+20
48.623  4.82693e+20
48.7403  4.88006e+20
48.8576  4.92272e+20
48.9749  4.9547e+20
49.0922  4.97441e+20
49.2095  4.98227e+20
49.3269  4.97444e+20
49.4442  4.95066e+20
49.5615  4.90891e+20
49.6788  4.85079e+20
49.7961  4.77647e+20
49.9134  4.69032e+20
50.0307  4.59608e+20
50.148  4.49701e+20
50.2653  4.39838e+20
50.3826  4.30232e+20
50.4999  4.2103e+20
50.6172  4.12335e+20
50.7345  4.03961e+20
