#S 1 spectral density
#N 2
#UFWHM 29.0916
#L  abscissas [um]  spectral density
-58.5938  6.40029e+19
-58.4764  6.3491e+19
-58.3591  6.59302e+19
-58.2418  7.05579e+19
-58.1245  7.63651e+19
-58.0072  8.24277e+19
-57.8899  8.78849e+19
-57.7726  9.23272e+19
-57.6553  9.58142e+19
-57.538  9.88345e+19
-57.4207  1.02138e+20
-57.3034  1.0661e+20
-57.1861  1.12989e+20
-57.0688  1.21613e+20
-56.9515  1.32429e+20
-56.8342  1.44862e+20
-56.7169  1.58046e+20
-56.5996  1.70839e+20
-56.4823  1.82258e+20
-56.365  1.91511e+20
-56.2477  1.98126e+20
-56.1303  2.01908e+20
-56.013  2.03205e+20
-55.8957  2.02338e+20
-55.7784  1.99911e+20
-55.6611  1.96275e+20
-55.5438  1.91868e+20
-55.4265  1.86941e+20
-55.3092  1.81714e+20
-55.1919  1.76268e+20
-55.0746  1.7087e+20
-54.9573  1.65647e+20
-54.84  1.61005e+20
-54.7227  1.57132e+20
-54.6054  1.54401e+20
-54.4881  1.52941e+20
-54.3708  1.52817e+20
-54.2535  1.53959e+20
-54.1362  1.56178e+20
-54.0189  1.59224e+20
-53.9016  1.62746e+20
-53.7842  1.66443e+20
-53.6669  1.70054e+20
-53.5496  1.73483e+20
-53.4323  1.76656e+20
-53.315  1.79683e+20
-53.1977  1.82624e+20
-53.0804  1.85729e+20
-52.9631  1.89139e+20
-52.8458  1.92858e+20
-52.7285  1.96889e+20
-52.6112  2.01072e+20
-52.4939  2.05086e+20
-52.3766  2.08575e+20
-52.2593  2.11194e+20
-52.142  2.12749e+20
-52.0247  2.13001e+20
-51.9074  2.12194e+20
-51.7901  2.1044e+20
-51.6728  2.08355e+20
-51.5555  2.06458e+20
-51.4381  2.05302e+20
-51.3208  2.0543e+20
-51.2035  2.07054e+20
-51.0862  2.10445e+20
-50.9689  2.15383e+20
-50.8516  2.21558e+20
-50.7343  2.28353e+20
-50.617  2.35071e+20
-50.4997  2.40831e+20
-50.3824  2.44724e+20
-50.2651  2.45975e+20
-50.1478  2.44049e+20
-50.0305  2.38712e+20
-49.9132  2.3021e+20
-49.7959  2.19147e+20
-49.6786  2.06735e+20
-49.5613  1.94416e+20
-49.444  1.83819e+20
-49.3267  1.76472e+20
-49.2094  1.73533e+20
-49.092  1.75664e+20
-48.9747  1.82769e+20
-48.8574  1.94188e+20
-48.7401  2.08791e+20
-48.6228  2.24991e+20
-48.5055  2.41271e+20
-48.3882  2.56366e+20
-48.2709  2.69196e+20
-48.1536  2.79197e+20
-48.0363  2.86345e+20
-47.919  2.90878e+20
-47.8017  2.93299e+20
-47.6844  2.94165e+20
-47.5671  2.94082e+20
-47.4498  2.93588e+20
-47.3325  2.9295e+20
-47.2152  2.92524e+20
-47.0979  2.92404e+20
-46.9806  2.92526e+20
-46.8633  2.92812e+20
-46.7459  2.93082e+20
-46.6286  2.92988e+20
-46.5113  2.92167e+20
-46.394  2.90244e+20
-46.2767  2.87025e+20
-46.1594  2.82451e+20
-46.0421  2.76643e+20
-45.9248  2.69926e+20
-45.8075  2.6281e+20
-45.6902  2.55753e+20
-45.5729  2.49309e+20
-45.4556  2.43668e+20
-45.3383  2.39085e+20
-45.221  2.35425e+20
-45.1037  2.32609e+20
-44.9864  2.30581e+20
-44.8691  2.29162e+20
-44.7518  2.28349e+20
-44.6345  2.28236e+20
-44.5172  2.2893e+20
-44.3998  2.30393e+20
-44.2825  2.3255e+20
-44.1652  2.35024e+20
-44.0479  2.37535e+20
-43.9306  2.39718e+20
-43.8133  2.41431e+20
-43.696  2.42946e+20
-43.5787  2.44755e+20
-43.4614  2.47769e+20
-43.3441  2.53228e+20
-43.2268  2.62173e+20
-43.1095  2.75505e+20
-42.9922  2.93525e+20
-42.8749  3.16035e+20
-42.7576  3.4198e+20
-42.6403  3.70037e+20
-42.523  3.98322e+20
-42.4057  4.25053e+20
-42.2884  4.48482e+20
-42.171  4.67406e+20
-42.0537  4.81223e+20
-41.9364  4.89826e+20
-41.8191  4.9366e+20
-41.7018  4.93364e+20
-41.5845  4.90193e+20
-41.4672  4.85226e+20
-41.3499  4.79614e+20
-41.2326  4.7434e+20
-41.1153  4.70186e+20
-40.998  4.67662e+20
-40.8807  4.66918e+20
-40.7634  4.67702e+20
-40.6461  4.69713e+20
-40.5288  4.72134e+20
-40.4115  4.74413e+20
-40.2942  4.76135e+20
-40.1769  4.76812e+20
-40.0596  4.76698e+20
-39.9423  4.76434e+20
-39.825  4.76788e+20
-39.7076  4.78852e+20
-39.5903  4.83669e+20
-39.473  4.91802e+20
-39.3557  5.03344e+20
-39.2384  5.17757e+20
-39.1211  5.33808e+20
-39.0038  5.4984e+20
-38.8865  5.64046e+20
-38.7692  5.74785e+20
-38.6519  5.80953e+20
-38.5346  5.8191e+20
-38.4173  5.77964e+20
-38.3  5.70047e+20
-38.1827  5.5964e+20
-38.0654  5.4862e+20
-37.9481  5.38803e+20
-37.8308  5.31991e+20
-37.7135  5.29466e+20
-37.5962  5.32116e+20
-37.4789  5.40477e+20
-37.3615  5.54259e+20
-37.2442  5.72944e+20
-37.1269  5.95659e+20
-37.0096  6.20863e+20
-36.8923  6.47278e+20
-36.775  6.73134e+20
-36.6577  6.97071e+20
-36.5404  7.17644e+20
-36.4231  7.33889e+20
-36.3058  7.45465e+20
-36.1885  7.52277e+20
-36.0712  7.5488e+20
-35.9539  7.54096e+20
-35.8366  7.51006e+20
-35.7193  7.4687e+20
-35.602  7.42672e+20
-35.4847  7.39028e+20
-35.3674  7.36511e+20
-35.2501  7.34989e+20
-35.1328  7.3402e+20
-35.0154  7.33309e+20
-34.8981  7.32037e+20
-34.7808  7.29574e+20
-34.6635  7.25353e+20
-34.5462  7.19139e+20
-34.4289  7.10676e+20
-34.3116  7.00412e+20
-34.1943  6.88993e+20
-34.077  6.77621e+20
-33.9597  6.67868e+20
-33.8424  6.61318e+20
-33.7251  6.59863e+20
-33.6078  6.65166e+20
-33.4905  6.78332e+20
-33.3732  6.99948e+20
-33.2559  7.29447e+20
-33.1386  7.65791e+20
-33.0213  8.06722e+20
-32.904  8.49449e+20
-32.7867  8.91301e+20
-32.6693  9.29006e+20
-32.552  9.60292e+20
-32.4347  9.83439e+20
-32.3174  9.97452e+20
-32.2001  1.00272e+21
-32.0828  1.00008e+21
-31.9655  9.91458e+20
-31.8482  9.79135e+20
-31.7309  9.65228e+20
-31.6136  9.52218e+20
-31.4963  9.41824e+20
-31.379  9.35305e+20
-31.2617  9.32939e+20
-31.1444  9.34723e+20
-31.0271  9.39826e+20
-30.9098  9.47017e+20
-30.7925  9.55061e+20
-30.6752  9.62682e+20
-30.5579  9.68762e+20
-30.4406  9.7307e+20
-30.3232  9.75855e+20
-30.2059  9.77935e+20
-30.0886  9.80349e+20
-29.9713  9.84683e+20
-29.854  9.92387e+20
-29.7367  1.00462e+21
-29.6194  1.02227e+21
-29.5021  1.04543e+21
-29.3848  1.07374e+21
-29.2675  1.10634e+21
-29.1502  1.14167e+21
-29.0329  1.17813e+21
-28.9156  1.21404e+21
-28.7983  1.2477e+21
-28.681  1.27795e+21
-28.5637  1.30395e+21
-28.4464  1.32578e+21
-28.3291  1.34385e+21
-28.2118  1.35934e+21
-28.0944  1.37397e+21
-27.9771  1.38954e+21
-27.8598  1.40794e+21
-27.7425  1.43077e+21
-27.6252  1.45893e+21
-27.5079  1.49285e+21
-27.3906  1.53195e+21
-27.2733  1.57527e+21
-27.156  1.62147e+21
-27.0387  1.6687e+21
-26.9214  1.71562e+21
-26.8041  1.76096e+21
-26.6868  1.80387e+21
-26.5695  1.84383e+21
-26.4522  1.88082e+21
-26.3349  1.91544e+21
-26.2176  1.94829e+21
-26.1003  1.98073e+21
-25.983  2.01383e+21
-25.8657  2.04935e+21
-25.7483  2.08927e+21
-25.631  2.1351e+21
-25.5137  2.1887e+21
-25.3964  2.25099e+21
-25.2791  2.32235e+21
-25.1618  2.40232e+21
-25.0445  2.48964e+21
-24.9272  2.58207e+21
-24.8099  2.67697e+21
-24.6926  2.77185e+21
-24.5753  2.86447e+21
-24.458  2.95304e+21
-24.3407  3.03686e+21
-24.2234  3.11639e+21
-24.1061  3.1923e+21
-23.9888  3.26611e+21
-23.8715  3.33948e+21
-23.7542  3.41388e+21
-23.6369  3.49029e+21
-23.5196  3.56939e+21
-23.4023  3.65124e+21
-23.2849  3.73542e+21
-23.1676  3.82116e+21
-23.0503  3.90748e+21
-22.933  3.99376e+21
-22.8157  4.07893e+21
-22.6984  4.16258e+21
-22.5811  4.24438e+21
-22.4638  4.32524e+21
-22.3465  4.40607e+21
-22.2292  4.48897e+21
-22.1119  4.57592e+21
-21.9946  4.66945e+21
-21.8773  4.77163e+21
-21.76  4.88345e+21
-21.6427  5.00499e+21
-21.5254  5.13451e+21
-21.4081  5.26935e+21
-21.2908  5.405e+21
-21.1735  5.53684e+21
-21.0561  5.66026e+21
-20.9388  5.77101e+21
-20.8215  5.86684e+21
-20.7042  5.947e+21
-20.5869  6.01262e+21
-20.4696  6.06701e+21
-20.3523  6.11493e+21
-20.235  6.16163e+21
-20.1177  6.21304e+21
-20.0004  6.27509e+21
-19.8831  6.35289e+21
-19.7658  6.45039e+21
-19.6485  6.57037e+21
-19.5312  6.71443e+21
-19.4139  6.88192e+21
-19.2966  7.07058e+21
-19.1793  7.27711e+21
-19.062  7.49575e+21
-18.9447  7.7201e+21
-18.8274  7.94313e+21
-18.71  8.15799e+21
-18.5927  8.3584e+21
-18.4754  8.53967e+21
-18.3581  8.69887e+21
-18.2408  8.83657e+21
-18.1235  8.95373e+21
-18.0062  9.0547e+21
-17.8889  9.14466e+21
-17.7716  9.23014e+21
-17.6543  9.31724e+21
-17.537  9.41223e+21
-17.4197  9.51945e+21
-17.3024  9.64285e+21
-17.1851  9.78442e+21
-17.0678  9.9442e+21
-16.9505  1.01213e+22
-16.8332  1.03131e+22
-16.7159  1.05164e+22
-16.5986  1.07273e+22
-16.4813  1.09421e+22
-16.364  1.11572e+22
-16.2466  1.13703e+22
-16.1293  1.158e+22
-16.012  1.17863e+22
-15.8947  1.199e+22
-15.7774  1.21935e+22
-15.6601  1.23995e+22
-15.5428  1.26105e+22
-15.4255  1.28287e+22
-15.3082  1.30549e+22
-15.1909  1.32891e+22
-15.0736  1.35292e+22
-14.9563  1.37719e+22
-14.839  1.40133e+22
-14.7217  1.42481e+22
-14.6044  1.44708e+22
-14.4871  1.46774e+22
-14.3698  1.48632e+22
-14.2525  1.50261e+22
-14.1352  1.5165e+22
-14.0178  1.52809e+22
-13.9005  1.53763e+22
-13.7832  1.54552e+22
-13.6659  1.55226e+22
-13.5486  1.55851e+22
-13.4313  1.56478e+22
-13.314  1.5717e+22
-13.1967  1.57974e+22
-13.0794  1.58929e+22
-12.9621  1.60054e+22
-12.8448  1.61361e+22
-12.7275  1.62841e+22
-12.6102  1.64483e+22
-12.4929  1.66264e+22
-12.3756  1.68156e+22
-12.2583  1.70138e+22
-12.141  1.72189e+22
-12.0237  1.74293e+22
-11.9064  1.76441e+22
-11.7891  1.78638e+22
-11.6718  1.80889e+22
-11.5544  1.8321e+22
-11.4371  1.85623e+22
-11.3198  1.88138e+22
-11.2025  1.90773e+22
-11.0852  1.93536e+22
-10.9679  1.9642e+22
-10.8506  1.99409e+22
-10.7333  2.0247e+22
-10.616  2.05553e+22
-10.4987  2.08604e+22
-10.3814  2.11557e+22
-10.2641  2.14343e+22
-10.1468  2.16906e+22
-10.0295  2.19199e+22
-9.91217  2.21187e+22
-9.79487  2.22869e+22
-9.67756  2.24251e+22
-9.56026  2.25372e+22
-9.44295  2.26281e+22
-9.32565  2.27047e+22
-9.20834  2.2774e+22
-9.09104  2.28428e+22
-8.97373  2.29177e+22
-8.85643  2.30041e+22
-8.73913  2.31046e+22
-8.62182  2.32214e+22
-8.50452  2.33539e+22
-8.38721  2.35003e+22
-8.26991  2.36568e+22
-8.1526  2.38193e+22
-8.03529  2.39827e+22
-7.91799  2.41431e+22
-7.80069  2.42972e+22
-7.68338  2.44425e+22
-7.56608  2.45787e+22
-7.44877  2.47067e+22
-7.33146  2.48284e+22
-7.21416  2.49466e+22
-7.09685  2.50645e+22
-6.97955  2.5185e+22
-6.86224  2.53107e+22
-6.74494  2.54432e+22
-6.62763  2.55819e+22
-6.51033  2.57262e+22
-6.39302  2.58733e+22
-6.27572  2.60197e+22
-6.15842  2.61614e+22
-6.04111  2.62941e+22
-5.92381  2.64134e+22
-5.8065  2.65168e+22
-5.68919  2.66021e+22
-5.57189  2.66692e+22
-5.45458  2.67195e+22
-5.33728  2.67569e+22
-5.21997  2.67862e+22
-5.10267  2.68135e+22
-4.98536  2.68456e+22
-4.86806  2.68888e+22
-4.75075  2.69491e+22
-4.63345  2.70306e+22
-4.51614  2.71361e+22
-4.39884  2.72653e+22
-4.28154  2.74174e+22
-4.16423  2.75878e+22
-4.04692  2.77706e+22
-3.92962  2.79589e+22
-3.81231  2.81447e+22
-3.69501  2.83193e+22
-3.5777  2.8475e+22
-3.4604  2.86048e+22
-3.34309  2.87038e+22
-3.22579  2.87691e+22
-3.10849  2.88015e+22
-2.99118  2.88033e+22
-2.87387  2.87801e+22
-2.75657  2.8739e+22
-2.63926  2.86877e+22
-2.52196  2.86343e+22
-2.40465  2.85856e+22
-2.28735  2.85464e+22
-2.17005  2.85198e+22
-2.05274  2.85071e+22
-1.93544  2.8506e+22
-1.81813  2.85145e+22
-1.70083  2.85283e+22
-1.58352  2.8543e+22
-1.46622  2.85546e+22
-1.34891  2.8559e+22
-1.2316  2.85532e+22
-1.1143  2.85355e+22
-0.996995  2.8505e+22
-0.87969  2.84629e+22
-0.762385  2.84102e+22
-0.64508  2.83515e+22
-0.527775  2.82907e+22
-0.41047  2.82328e+22
-0.293165  2.81836e+22
-0.17586  2.81474e+22
-0.058555  2.81282e+22
0.05875  2.81276e+22
0.176055  2.81457e+22
0.29336  2.81805e+22
0.410665  2.82289e+22
0.52797  2.82852e+22
0.645275  2.83449e+22
0.76258  2.84024e+22
0.879885  2.84537e+22
0.99719  2.84947e+22
1.1145  2.85238e+22
1.2318  2.85403e+22
1.3491  2.85448e+22
1.46641  2.85388e+22
1.58371  2.85258e+22
1.70102  2.85094e+22
1.81832  2.84938e+22
1.93563  2.84833e+22
2.05294  2.84819e+22
2.17024  2.84927e+22
2.28754  2.8517e+22
2.40485  2.85535e+22
2.52216  2.85995e+22
2.63946  2.86502e+22
2.75677  2.86983e+22
2.87407  2.87364e+22
2.99137  2.87563e+22
3.10868  2.87512e+22
3.22599  2.87159e+22
3.34329  2.86476e+22
3.4606  2.85462e+22
3.5779  2.8414e+22
3.69521  2.82562e+22
3.81251  2.80802e+22
3.92982  2.78927e+22
4.04712  2.77031e+22
4.16443  2.75194e+22
4.28173  2.73481e+22
4.39903  2.71954e+22
4.51634  2.7065e+22
4.63364  2.69589e+22
4.75095  2.68762e+22
4.86825  2.68146e+22
4.98556  2.67698e+22
5.10286  2.67362e+22
5.22017  2.67068e+22
5.33748  2.66757e+22
5.45478  2.66362e+22
5.57209  2.65839e+22
5.68939  2.65146e+22
5.8067  2.64274e+22
5.924  2.63221e+22
6.0413  2.6201e+22
6.15861  2.60668e+22
6.27591  2.59238e+22
6.39322  2.57764e+22
6.51052  2.56285e+22
6.62783  2.54833e+22
6.74514  2.53437e+22
6.86244  2.52109e+22
6.97975  2.50846e+22
7.09705  2.49633e+22
7.21436  2.48447e+22
7.33166  2.47254e+22
7.44897  2.46028e+22
7.56627  2.44736e+22
7.68358  2.43359e+22
7.80088  2.41888e+22
7.91819  2.4033e+22
8.03549  2.38707e+22
8.1528  2.37057e+22
8.2701  2.35414e+22
8.38741  2.3383e+22
8.50471  2.3235e+22
8.62202  2.31007e+22
8.73932  2.29819e+22
8.85662  2.28797e+22
8.97393  2.27918e+22
9.09123  2.2715e+22
9.20854  2.26444e+22
9.32584  2.25734e+22
9.44315  2.24947e+22
9.56045  2.24016e+22
9.67776  2.22875e+22
9.79506  2.21471e+22
9.91237  2.19769e+22
10.0297  2.1776e+22
10.147  2.1545e+22
10.2643  2.12871e+22
10.3816  2.10068e+22
10.4989  2.07103e+22
10.6162  2.0404e+22
10.7335  2.00947e+22
10.8508  1.97882e+22
10.9681  1.94886e+22
11.0854  1.92e+22
11.2027  1.89236e+22
11.32  1.866e+22
11.4373  1.84085e+22
11.5546  1.81681e+22
11.6719  1.79361e+22
11.7893  1.77116e+22
11.9066  1.74928e+22
12.0239  1.72785e+22
12.1412  1.7069e+22
12.2585  1.68649e+22
12.3758  1.66677e+22
12.4931  1.64791e+22
12.6104  1.63018e+22
12.7277  1.61383e+22
12.845  1.5991e+22
12.9623  1.58607e+22
13.0796  1.57486e+22
13.1969  1.56534e+22
13.3142  1.55733e+22
13.4315  1.55038e+22
13.5488  1.5441e+22
13.6661  1.53786e+22
13.7834  1.53107e+22
13.9007  1.52317e+22
14.018  1.51361e+22
14.1354  1.50199e+22
14.2527  1.48806e+22
14.37  1.47176e+22
14.4873  1.45315e+22
14.6046  1.43248e+22
14.7219  1.41019e+22
14.8392  1.38672e+22
14.9565  1.36258e+22
15.0738  1.33831e+22
15.1911  1.3143e+22
15.3084  1.29089e+22
15.4257  1.26826e+22
15.543  1.24647e+22
15.6603  1.22536e+22
15.7776  1.20478e+22
15.8949  1.18443e+22
16.0122  1.16408e+22
16.1295  1.14351e+22
16.2468  1.1226e+22
16.3641  1.10135e+22
16.4815  1.07995e+22
16.5988  1.05862e+22
16.7161  1.03765e+22
16.8334  1.01748e+22
16.9507  9.98482e+21
17.068  9.80953e+21
17.1853  9.65145e+21
17.3026  9.51159e+21
17.4199  9.38968e+21
17.5372  9.28366e+21
17.6545  9.18991e+21
17.7718  9.10371e+21
17.8891  9.0189e+21
18.0064  8.92957e+21
18.1237  8.82908e+21
18.241  8.71228e+21
18.3583  8.57534e+21
18.4756  8.4164e+21
18.5929  8.23597e+21
18.7102  8.03656e+21
18.8275  7.82303e+21
18.9449  7.6013e+21
19.0622  7.37877e+21
19.1795  7.16199e+21
19.2968  6.95752e+21
19.4141  6.77082e+21
19.5314  6.60552e+21
19.6487  6.46345e+21
19.766  6.34544e+21
19.8833  6.2496e+21
20.0006  6.17334e+21
20.1179  6.11256e+21
20.2352  6.06226e+21
20.3525  6.01644e+21
20.4698  5.96935e+21
20.5871  5.91545e+21
20.7044  5.85025e+21
20.8217  5.77061e+21
20.939  5.67524e+21
21.0563  5.56484e+21
21.1736  5.4423e+21
21.291  5.31126e+21
21.4083  5.17654e+21
21.5256  5.04307e+21
21.6429  4.91484e+21
21.7602  4.79483e+21
21.8775  4.68461e+21
21.9948  4.58409e+21
22.1121  4.49215e+21
22.2294  4.40653e+21
22.3467  4.32529e+21
22.464  4.2459e+21
22.5813  4.16645e+21
22.6986  4.086e+21
22.8159  4.00395e+21
22.9332  3.92016e+21
23.0505  3.8354e+21
23.1678  3.75036e+21
23.2851  3.66608e+21
23.4024  3.5833e+21
23.5198  3.50284e+21
23.6371  3.42508e+21
23.7544  3.34997e+21
23.8717  3.27691e+21
23.989  3.20473e+21
24.1063  3.13211e+21
24.2236  3.05744e+21
24.3409  2.97913e+21
24.4582  2.89648e+21
24.5755  2.8091e+21
24.6928  2.71787e+21
24.8101  2.62438e+21
24.9274  2.53096e+21
25.0447  2.44014e+21
25.162  2.3545e+21
25.2793  2.27615e+21
25.3966  2.20637e+21
25.5139  2.14568e+21
25.6312  2.09358e+21
25.7485  2.04899e+21
25.8658  2.01049e+21
25.9832  1.9759e+21
26.1005  1.94387e+21
26.2178  1.91259e+21
26.3351  1.88057e+21
26.4524  1.84692e+21
26.5697  1.81087e+21
26.687  1.77179e+21
26.8043  1.72998e+21
26.9216  1.68564e+21
27.0389  1.63973e+21
27.1562  1.59352e+21
27.2735  1.54842e+21
27.3908  1.50619e+21
27.5081  1.4682e+21
27.6254  1.43532e+21
27.7427  1.40816e+21
27.86  1.38625e+21
27.9773  1.36867e+21
28.0946  1.35389e+21
28.212  1.33997e+21
28.3293  1.3251e+21
28.4466  1.30755e+21
28.5639  1.28629e+21
28.6812  1.26082e+21
28.7985  1.23107e+21
28.9158  1.19798e+21
29.0331  1.16271e+21
29.1504  1.12684e+21
29.2677  1.09216e+21
29.385  1.0603e+21
29.5023  1.03266e+21
29.6196  1.01014e+21
29.7369  9.93213e+20
29.8542  9.81583e+20
29.9715  9.74528e+20
30.0888  9.70625e+20
30.2061  9.68594e+20
30.3234  9.66941e+20
30.4407  9.64515e+20
30.558  9.60539e+20
30.6754  9.54686e+20
30.7927  9.47515e+20
30.91  9.39929e+20
31.0273  9.33088e+20
31.1446  9.28383e+20
31.2619  9.26997e+20
31.3792  9.2965e+20
31.4965  9.36694e+20
31.6138  9.47476e+20
31.7311  9.60657e+20
31.8484  9.74624e+20
31.9657  9.87082e+20
32.083  9.95603e+20
32.2003  9.98126e+20
32.3176  9.92822e+20
32.4349  9.78625e+20
32.5522  9.55418e+20
32.6695  9.24017e+20
32.7868  8.86342e+20
32.9042  8.4472e+20
33.0215  8.02101e+20
33.1388  7.6151e+20
33.2561  7.25467e+20
33.3734  6.96368e+20
33.4907  6.75144e+20
33.608  6.62248e+20
33.7253  6.57266e+20
33.8426  6.58813e+20
33.9599  6.65517e+20
34.0772  6.75366e+20
34.1945  6.86711e+20
34.3118  6.98012e+20
34.4291  7.0815e+20
34.5464  7.16597e+20
34.6637  7.22903e+20
34.781  7.27042e+20
34.8983  7.29457e+20
35.0156  7.30726e+20
35.1329  7.31486e+20
35.2503  7.32401e+20
35.3676  7.34065e+20
35.4849  7.36683e+20
35.6022  7.40296e+20
35.7195  7.44574e+20
35.8368  7.48635e+20
35.9541  7.51555e+20
36.0714  7.5226e+20
36.1887  7.49605e+20
36.306  7.42659e+20
36.4233  7.30947e+20
36.5406  7.14535e+20
36.6579  6.93858e+20
36.7752  6.69829e+20
36.8925  6.43915e+20
37.0098  6.17546e+20
37.1271  5.92326e+20
37.2444  5.69798e+20
37.3617  5.51178e+20
37.479  5.37567e+20
37.5964  5.29313e+20
37.7137  5.2678e+20
37.831  5.29402e+20
37.9483  5.36309e+20
38.0656  5.46128e+20
38.1829  5.57121e+20
38.3002  5.67434e+20
38.4175  5.75263e+20
38.5348  5.78988e+20
38.6521  5.77885e+20
38.7694  5.71562e+20
38.8867  5.60693e+20
39.004  5.4634e+20
39.1213  5.30264e+20
39.2386  5.14264e+20
39.3559  4.99936e+20
39.4732  4.885e+20
39.5905  4.80432e+20
39.7078  4.75678e+20
39.8251  4.73629e+20
39.9425  4.73264e+20
40.0598  4.73552e+20
40.1771  4.73581e+20
40.2944  4.72822e+20
40.4117  4.71183e+20
40.529  4.68829e+20
40.6463  4.66357e+20
40.7636  4.64472e+20
40.8809  4.63666e+20
40.9982  4.64555e+20
41.1155  4.6712e+20
41.2328  4.71304e+20
41.3501  4.76563e+20
41.4674  4.82155e+20
41.5847  4.87056e+20
41.702  4.90105e+20
41.8193  4.90244e+20
41.9366  4.8629e+20
42.0539  4.77546e+20
42.1712  4.63617e+20
42.2885  4.44535e+20
42.4059  4.21078e+20
42.5232  3.944e+20
42.6405  3.66264e+20
42.7578  3.38352e+20
42.8751  3.12586e+20
42.9924  2.90383e+20
43.1097  2.72655e+20
43.227  2.59567e+20
43.3443  2.50857e+20
43.4616  2.45592e+20
43.5789  2.42683e+20
43.6962  2.40933e+20
43.8135  2.39517e+20
43.9308  2.37802e+20
44.0481  2.3565e+20
44.1654  2.33186e+20
44.2827  2.30735e+20
44.4  2.28683e+20
44.5173  2.27316e+20
44.6347  2.26734e+20
44.752  2.26899e+20
44.8693  2.27732e+20
44.9866  2.29255e+20
45.1039  2.31378e+20
45.2212  2.34219e+20
45.3385  2.37917e+20
45.4558  2.42584e+20
45.5731  2.48219e+20
45.6904  2.54776e+20
45.8077  2.61804e+20
45.925  2.68949e+20
46.0423  2.75641e+20
46.1596  2.81449e+20
46.2769  2.85987e+20
46.3942  2.89158e+20
46.5115  2.91053e+20
46.6288  2.91836e+20
46.7461  2.91914e+20
46.8634  2.91653e+20
46.9808  2.9135e+20
47.0981  2.91229e+20
47.2154  2.91387e+20
47.3327  2.91835e+20
47.45  2.92427e+20
47.5673  2.92954e+20
47.6846  2.93042e+20
47.8019  2.92162e+20
47.9192  2.89725e+20
48.0365  2.85163e+20
48.1538  2.7798e+20
48.2711  2.679e+20
48.3884  2.55045e+20
48.5057  2.39984e+20
48.623  2.23713e+20
48.7403  2.07588e+20
48.8576  1.93045e+20
48.9749  1.81741e+20
49.0922  1.74829e+20
49.2095  1.72916e+20
49.3269  1.75994e+20
49.4442  1.83499e+20
49.5615  1.94137e+20
49.6788  2.06501e+20
49.7961  2.18891e+20
49.9134  2.29869e+20
50.0307  2.38321e+20
50.148  2.43512e+20
50.2653  2.45332e+20
50.3826  2.43948e+20
50.4999  2.39966e+20
50.6172  2.34165e+20
50.7345  2.27458e+20
50.8518  2.20668e+20
