#S 1 spectral density
#N 2
#UFWHM 31.6724
#L  abscissas [um]  spectral density
-58.5938  2.00827e+20
-58.4764  1.98293e+20
-58.3591  1.96834e+20
-58.2418  1.97149e+20
-58.1245  1.99544e+20
-58.0072  2.04128e+20
-57.8899  2.10515e+20
-57.7726  2.18273e+20
-57.6553  2.26736e+20
-57.538  2.35188e+20
-57.4207  2.43089e+20
-57.3034  2.49905e+20
-57.1861  2.5528e+20
-57.0688  2.58862e+20
-56.9515  2.60744e+20
-56.8342  2.60983e+20
-56.7169  2.5989e+20
-56.5996  2.58107e+20
-56.4823  2.56274e+20
-56.365  2.55257e+20
-56.2477  2.55753e+20
-56.1303  2.5822e+20
-56.013  2.62833e+20
-55.8957  2.69154e+20
-55.7784  2.76501e+20
-55.6611  2.83507e+20
-55.5438  2.88795e+20
-55.4265  2.91027e+20
-55.3092  2.89125e+20
-55.1919  2.82379e+20
-55.0746  2.7089e+20
-54.9573  2.55116e+20
-54.84  2.36402e+20
-54.7227  2.16136e+20
-54.6054  1.96052e+20
-54.4881  1.77593e+20
-54.3708  1.62023e+20
-54.2535  1.50189e+20
-54.1362  1.4232e+20
-54.0189  1.38312e+20
-53.9016  1.37603e+20
-53.7842  1.39445e+20
-53.6669  1.42933e+20
-53.5496  1.47234e+20
-53.4323  1.51763e+20
-53.315  1.56038e+20
-53.1977  1.60007e+20
-53.0804  1.63881e+20
-52.9631  1.67963e+20
-52.8458  1.72687e+20
-52.7285  1.78621e+20
-52.6112  1.86125e+20
-52.4939  1.95436e+20
-52.3766  2.06607e+20
-52.2593  2.19482e+20
-52.142  2.33777e+20
-52.0247  2.48901e+20
-51.9074  2.64302e+20
-51.7901  2.79152e+20
-51.6728  2.92706e+20
-51.5555  3.04124e+20
-51.4381  3.12762e+20
-51.3208  3.17977e+20
-51.2035  3.19395e+20
-51.0862  3.17065e+20
-50.9689  3.11328e+20
-50.8516  3.03018e+20
-50.7343  2.93226e+20
-50.617  2.83341e+20
-50.4997  2.74711e+20
-50.3824  2.68474e+20
-50.2651  2.65502e+20
-50.1478  2.66025e+20
-50.0305  2.69841e+20
-49.9132  2.76249e+20
-49.7959  2.84114e+20
-49.6786  2.92336e+20
-49.5613  2.9964e+20
-49.444  3.05137e+20
-49.3267  3.08237e+20
-49.2094  3.08868e+20
-49.092  3.07254e+20
-48.9747  3.04121e+20
-48.8574  3.00291e+20
-48.7401  2.96928e+20
-48.6228  2.95171e+20
-48.5055  2.96116e+20
-48.3882  3.00769e+20
-48.2709  3.09648e+20
-48.1536  3.23081e+20
-48.0363  3.40841e+20
-47.919  3.62245e+20
-47.8017  3.86159e+20
-47.6844  4.1124e+20
-47.5671  4.35869e+20
-47.4498  4.58693e+20
-47.3325  4.78626e+20
-47.2152  4.94929e+20
-47.0979  5.07506e+20
-46.9806  5.16544e+20
-46.8633  5.22543e+20
-46.7459  5.26386e+20
-46.6286  5.28488e+20
-46.5113  5.29458e+20
-46.394  5.2908e+20
-46.2767  5.27489e+20
-46.1594  5.24296e+20
-46.0421  5.1897e+20
-45.9248  5.11291e+20
-45.8075  5.01203e+20
-45.6902  4.88822e+20
-45.5729  4.74893e+20
-45.4556  4.60063e+20
-45.3383  4.45724e+20
-45.221  4.33042e+20
-45.1037  4.23574e+20
-44.9864  4.18907e+20
-44.8691  4.20154e+20
-44.7518  4.28326e+20
-44.6345  4.43903e+20
-44.5172  4.66648e+20
-44.3998  4.95678e+20
-44.2825  5.29198e+20
-44.1652  5.64913e+20
-44.0479  6.00143e+20
-43.9306  6.31967e+20
-43.8133  6.57856e+20
-43.696  6.75733e+20
-43.5787  6.84493e+20
-43.4614  6.8394e+20
-43.3441  6.74783e+20
-43.2268  6.5845e+20
-43.1095  6.37163e+20
-42.9922  6.13106e+20
-42.8749  5.88601e+20
-42.7576  5.65629e+20
-42.6403  5.45975e+20
-42.523  5.30853e+20
-42.4057  5.21085e+20
-42.2884  5.16841e+20
-42.171  5.18202e+20
-42.0537  5.24489e+20
-41.9364  5.34834e+20
-41.8191  5.481e+20
-41.7018  5.62799e+20
-41.5845  5.77763e+20
-41.4672  5.91709e+20
-41.3499  6.03975e+20
-41.2326  6.143e+20
-41.1153  6.22948e+20
-40.998  6.30808e+20
-40.8807  6.38854e+20
-40.7634  6.4807e+20
-40.6461  6.59349e+20
-40.5288  6.72786e+20
-40.4115  6.88125e+20
-40.2942  7.0447e+20
-40.1769  7.20256e+20
-40.0596  7.33912e+20
-39.9423  7.43874e+20
-39.825  7.48744e+20
-39.7076  7.48206e+20
-39.5903  7.41995e+20
-39.473  7.30994e+20
-39.3557  7.1674e+20
-39.2384  7.00957e+20
-39.1211  6.8569e+20
-39.0038  6.73051e+20
-38.8865  6.64946e+20
-38.7692  6.62773e+20
-38.6519  6.67652e+20
-38.5346  6.79545e+20
-38.4173  6.98296e+20
-38.3  7.22561e+20
-38.1827  7.50505e+20
-38.0654  7.79835e+20
-37.9481  8.07888e+20
-37.8308  8.3236e+20
-37.7135  8.51075e+20
-37.5962  8.62674e+20
-37.4789  8.67018e+20
-37.3615  8.64339e+20
-37.2442  8.56384e+20
-37.1269  8.45144e+20
-37.0096  8.32868e+20
-36.8923  8.21978e+20
-36.775  8.14091e+20
-36.6577  8.10588e+20
-36.5404  8.11642e+20
-36.4231  8.16673e+20
-36.3058  8.24808e+20
-36.1885  8.34239e+20
-36.0712  8.43456e+20
-35.9539  8.50545e+20
-35.8366  8.54325e+20
-35.7193  8.53885e+20
-35.602  8.48896e+20
-35.4847  8.39508e+20
-35.3674  8.26514e+20
-35.2501  8.10837e+20
-35.1328  7.94051e+20
-35.0154  7.77812e+20
-34.8981  7.63622e+20
-34.7808  7.52768e+20
-34.6635  7.46335e+20
-34.5462  7.44821e+20
-34.4289  7.47975e+20
-34.3116  7.55383e+20
-34.1943  7.65878e+20
-34.077  7.78201e+20
-33.9597  7.91202e+20
-33.8424  8.03504e+20
-33.7251  8.14444e+20
-33.6078  8.23687e+20
-33.4905  8.3145e+20
-33.3732  8.3845e+20
-33.2559  8.4571e+20
-33.1386  8.54722e+20
-33.0213  8.66822e+20
-32.904  8.83462e+20
-32.7867  9.05913e+20
-32.6693  9.34988e+20
-32.552  9.71054e+20
-32.4347  1.01409e+21
-32.3174  1.06309e+21
-32.2001  1.11689e+21
-32.0828  1.17353e+21
-31.9655  1.23099e+21
-31.8482  1.28692e+21
-31.7309  1.33918e+21
-31.6136  1.38631e+21
-31.4963  1.42713e+21
-31.379  1.46145e+21
-31.2617  1.48948e+21
-31.1444  1.51244e+21
-31.0271  1.532e+21
-30.9098  1.54982e+21
-30.7925  1.56776e+21
-30.6752  1.58707e+21
-30.5579  1.60859e+21
-30.4406  1.63276e+21
-30.3232  1.65899e+21
-30.2059  1.68657e+21
-30.0886  1.71392e+21
-29.9713  1.73945e+21
-29.854  1.76168e+21
-29.7367  1.77931e+21
-29.6194  1.79162e+21
-29.5021  1.79831e+21
-29.3848  1.80028e+21
-29.2675  1.7986e+21
-29.1502  1.79505e+21
-29.0329  1.79149e+21
-28.9156  1.79009e+21
-28.7983  1.79234e+21
-28.681  1.79951e+21
-28.5637  1.81232e+21
-28.4464  1.8309e+21
-28.3291  1.85492e+21
-28.2118  1.88368e+21
-28.0944  1.91651e+21
-27.9771  1.95275e+21
-27.8598  1.99178e+21
-27.7425  2.03354e+21
-27.6252  2.07798e+21
-27.5079  2.12529e+21
-27.3906  2.176e+21
-27.2733  2.23067e+21
-27.156  2.29026e+21
-27.0387  2.35554e+21
-26.9214  2.42744e+21
-26.8041  2.50673e+21
-26.6868  2.59377e+21
-26.5695  2.68837e+21
-26.4522  2.78942e+21
-26.3349  2.89543e+21
-26.2176  3.00351e+21
-26.1003  3.11092e+21
-25.983  3.2139e+21
-25.8657  3.30926e+21
-25.7483  3.39438e+21
-25.631  3.46715e+21
-25.5137  3.52693e+21
-25.3964  3.5743e+21
-25.2791  3.61031e+21
-25.1618  3.63774e+21
-25.0445  3.65983e+21
-24.9272  3.67981e+21
-24.8099  3.70123e+21
-24.6926  3.72783e+21
-24.5753  3.76243e+21
-24.458  3.80764e+21
-24.3407  3.86492e+21
-24.2234  3.93541e+21
-24.1061  4.01853e+21
-23.9888  4.11312e+21
-23.8715  4.21732e+21
-23.7542  4.32836e+21
-23.6369  4.44344e+21
-23.5196  4.55987e+21
-23.4023  4.67574e+21
-23.2849  4.78984e+21
-23.1676  4.90178e+21
-23.0503  5.01235e+21
-22.933  5.12315e+21
-22.8157  5.23556e+21
-22.6984  5.35143e+21
-22.5811  5.47158e+21
-22.4638  5.59741e+21
-22.3465  5.72859e+21
-22.2292  5.86482e+21
-22.1119  6.00504e+21
-21.9946  6.14832e+21
-21.8773  6.29331e+21
-21.76  6.43822e+21
-21.6427  6.58189e+21
-21.5254  6.72253e+21
-21.4081  6.85958e+21
-21.2908  6.99158e+21
-21.1735  7.11841e+21
-21.0561  7.2403e+21
-20.9388  7.35774e+21
-20.8215  7.47219e+21
-20.7042  7.58506e+21
-20.5869  7.69747e+21
-20.4696  7.81075e+21
-20.3523  7.92553e+21
-20.235  8.04109e+21
-20.1177  8.15615e+21
-20.0004  8.26913e+21
-19.8831  8.37822e+21
-19.7658  8.48147e+21
-19.6485  8.57766e+21
-19.5312  8.6669e+21
-19.4139  8.74982e+21
-19.2966  8.82823e+21
-19.1793  8.90506e+21
-19.062  8.98304e+21
-18.9447  9.06548e+21
-18.8274  9.15539e+21
-18.71  9.25583e+21
-18.5927  9.36881e+21
-18.4754  9.49606e+21
-18.3581  9.63852e+21
-18.2408  9.79693e+21
-18.1235  9.97023e+21
-18.0062  1.0157e+22
-17.8889  1.03543e+22
-17.7716  1.05594e+22
-17.6543  1.07676e+22
-17.537  1.09748e+22
-17.4197  1.11764e+22
-17.3024  1.13694e+22
-17.1851  1.15515e+22
-17.0678  1.17218e+22
-16.9505  1.18813e+22
-16.8332  1.20321e+22
-16.7159  1.2178e+22
-16.5986  1.23228e+22
-16.4813  1.24708e+22
-16.364  1.26256e+22
-16.2466  1.279e+22
-16.1293  1.29655e+22
-16.012  1.31517e+22
-15.8947  1.33472e+22
-15.7774  1.35492e+22
-15.6601  1.37539e+22
-15.5428  1.39568e+22
-15.4255  1.41533e+22
-15.3082  1.43389e+22
-15.1909  1.45109e+22
-15.0736  1.46665e+22
-14.9563  1.48051e+22
-14.839  1.49276e+22
-14.7217  1.50363e+22
-14.6044  1.51344e+22
-14.4871  1.52267e+22
-14.3698  1.53173e+22
-14.2525  1.54109e+22
-14.1352  1.55111e+22
-14.0178  1.56211e+22
-13.9005  1.5742e+22
-13.7832  1.58744e+22
-13.6659  1.60173e+22
-13.5486  1.61693e+22
-13.4313  1.63272e+22
-13.314  1.64883e+22
-13.1967  1.66497e+22
-13.0794  1.68089e+22
-12.9621  1.6963e+22
-12.8448  1.71111e+22
-12.7275  1.72517e+22
-12.6102  1.73851e+22
-12.4929  1.75123e+22
-12.3756  1.76342e+22
-12.2583  1.7753e+22
-12.141  1.78706e+22
-12.0237  1.79885e+22
-11.9064  1.81082e+22
-11.7891  1.82307e+22
-11.6718  1.83561e+22
-11.5544  1.84845e+22
-11.4371  1.86157e+22
-11.3198  1.87483e+22
-11.2025  1.88822e+22
-11.0852  1.90167e+22
-10.9679  1.9152e+22
-10.8506  1.92886e+22
-10.7333  1.94274e+22
-10.616  1.95694e+22
-10.4987  1.9717e+22
-10.3814  1.9871e+22
-10.2641  2.00331e+22
-10.1468  2.02039e+22
-10.0295  2.03844e+22
-9.91217  2.05728e+22
-9.79487  2.07681e+22
-9.67756  2.09671e+22
-9.56026  2.11656e+22
-9.44295  2.13589e+22
-9.32565  2.15424e+22
-9.20834  2.17104e+22
-9.09104  2.18587e+22
-8.97373  2.19841e+22
-8.85643  2.20847e+22
-8.73913  2.21601e+22
-8.62182  2.22124e+22
-8.50452  2.22452e+22
-8.38721  2.22633e+22
-8.26991  2.22721e+22
-8.1526  2.22781e+22
-8.03529  2.22863e+22
-7.91799  2.23018e+22
-7.80069  2.23284e+22
-7.68338  2.23676e+22
-7.56608  2.242e+22
-7.44877  2.24849e+22
-7.33146  2.25586e+22
-7.21416  2.26379e+22
-7.09685  2.27186e+22
-6.97955  2.27958e+22
-6.86224  2.28657e+22
-6.74494  2.29266e+22
-6.62763  2.29756e+22
-6.51033  2.30142e+22
-6.39302  2.30442e+22
-6.27572  2.30693e+22
-6.15842  2.30948e+22
-6.04111  2.31263e+22
-5.92381  2.31692e+22
-5.8065  2.32298e+22
-5.68919  2.33119e+22
-5.57189  2.34187e+22
-5.45458  2.35507e+22
-5.33728  2.37077e+22
-5.21997  2.38859e+22
-5.10267  2.40804e+22
-4.98536  2.42844e+22
-4.86806  2.449e+22
-4.75075  2.46888e+22
-4.63345  2.48733e+22
-4.51614  2.50366e+22
-4.39884  2.51739e+22
-4.28154  2.52833e+22
-4.16423  2.5365e+22
-4.04692  2.54218e+22
-3.92962  2.54595e+22
-3.81231  2.54852e+22
-3.69501  2.55059e+22
-3.5777  2.55297e+22
-3.4604  2.55627e+22
-3.34309  2.56097e+22
-3.22579  2.56729e+22
-3.10849  2.57529e+22
-2.99118  2.58474e+22
-2.87387  2.59526e+22
-2.75657  2.60632e+22
-2.63926  2.61723e+22
-2.52196  2.6273e+22
-2.40465  2.63588e+22
-2.28735  2.6423e+22
-2.17005  2.64611e+22
-2.05274  2.64711e+22
-1.93544  2.64513e+22
-1.81813  2.64044e+22
-1.70083  2.6334e+22
-1.58352  2.62459e+22
-1.46622  2.61468e+22
-1.34891  2.6044e+22
-1.2316  2.59437e+22
-1.1143  2.58515e+22
-0.996995  2.57708e+22
-0.87969  2.57042e+22
-0.762385  2.56511e+22
-0.64508  2.56115e+22
-0.527775  2.55831e+22
-0.41047  2.55637e+22
-0.293165  2.55512e+22
-0.17586  2.55439e+22
-0.058555  2.55407e+22
0.05875  2.55406e+22
0.176055  2.55438e+22
0.29336  2.55505e+22
0.410665  2.55628e+22
0.52797  2.55815e+22
0.645275  2.56092e+22
0.76258  2.5648e+22
0.879885  2.56998e+22
0.99719  2.5765e+22
1.1145  2.5844e+22
1.2318  2.59342e+22
1.3491  2.60328e+22
1.46641  2.61335e+22
1.58371  2.62303e+22
1.70102  2.6316e+22
1.81832  2.6384e+22
1.93563  2.64285e+22
2.05294  2.64457e+22
2.17024  2.64341e+22
2.28754  2.63939e+22
2.40485  2.63278e+22
2.52216  2.62406e+22
2.63946  2.61385e+22
2.75677  2.60279e+22
2.87407  2.59163e+22
2.99137  2.58097e+22
3.10868  2.57138e+22
3.22599  2.56324e+22
3.34329  2.55677e+22
3.4606  2.55194e+22
3.5779  2.54845e+22
3.69521  2.54585e+22
3.81251  2.54356e+22
3.92982  2.54074e+22
4.04712  2.53672e+22
4.16443  2.53078e+22
4.28173  2.52236e+22
4.39903  2.51118e+22
4.51634  2.49722e+22
4.63364  2.48072e+22
4.75095  2.4621e+22
4.86825  2.44208e+22
4.98556  2.42142e+22
5.10286  2.40097e+22
5.22017  2.38148e+22
5.33748  2.36364e+22
5.45478  2.34795e+22
5.57209  2.33473e+22
5.68939  2.32403e+22
5.8067  2.31581e+22
5.924  2.30972e+22
6.0413  2.30537e+22
6.15861  2.30216e+22
6.27591  2.29952e+22
6.39322  2.2969e+22
6.51052  2.29378e+22
6.62783  2.28977e+22
6.74514  2.2847e+22
6.86244  2.27854e+22
6.97975  2.27137e+22
7.09705  2.26352e+22
7.21436  2.25537e+22
7.33166  2.24731e+22
7.44897  2.23982e+22
7.56627  2.23329e+22
7.68358  2.22795e+22
7.80088  2.22392e+22
7.91819  2.22117e+22
8.03549  2.21952e+22
8.1528  2.2186e+22
8.2701  2.21788e+22
8.38741  2.21682e+22
8.50471  2.21486e+22
8.62202  2.21138e+22
8.73932  2.20592e+22
8.85662  2.19818e+22
8.97393  2.1879e+22
9.09123  2.17515e+22
9.20854  2.1601e+22
9.32584  2.14312e+22
9.44315  2.12459e+22
9.56045  2.10507e+22
9.67776  2.08509e+22
9.79506  2.06508e+22
9.91237  2.04544e+22
10.0297  2.02651e+22
10.147  2.00844e+22
10.2643  1.99131e+22
10.3816  1.97506e+22
10.4989  1.95965e+22
10.6162  1.9449e+22
10.7335  1.93068e+22
10.8508  1.91681e+22
10.9681  1.90313e+22
11.0854  1.88961e+22
11.2027  1.87615e+22
11.32  1.86272e+22
11.4373  1.84942e+22
11.5546  1.83629e+22
11.6719  1.82339e+22
11.7893  1.81079e+22
11.9066  1.79852e+22
12.0239  1.78645e+22
12.1412  1.7746e+22
12.2585  1.7628e+22
12.3758  1.75086e+22
12.4931  1.73859e+22
12.6104  1.72581e+22
12.7277  1.7124e+22
12.845  1.69831e+22
12.9623  1.68345e+22
13.0796  1.66799e+22
13.1969  1.65206e+22
13.3142  1.63589e+22
13.4315  1.6197e+22
13.5488  1.60391e+22
13.6661  1.58869e+22
13.7834  1.57436e+22
13.9007  1.56107e+22
14.018  1.54893e+22
14.1354  1.53789e+22
14.2527  1.52777e+22
14.37  1.51836e+22
14.4873  1.5092e+22
14.6046  1.49988e+22
14.7219  1.48999e+22
14.8392  1.47904e+22
14.9565  1.46673e+22
15.0738  1.4528e+22
15.1911  1.4372e+22
15.3084  1.41998e+22
15.4257  1.40137e+22
15.543  1.38174e+22
15.6603  1.36146e+22
15.7776  1.34104e+22
15.8949  1.32088e+22
16.0122  1.30136e+22
16.1295  1.28278e+22
16.2468  1.26529e+22
16.3641  1.24888e+22
16.4815  1.23343e+22
16.5988  1.21867e+22
16.7161  1.20417e+22
16.8334  1.1896e+22
16.9507  1.17451e+22
17.068  1.15859e+22
17.1853  1.14156e+22
17.3026  1.12338e+22
17.4199  1.10412e+22
17.5372  1.084e+22
17.6545  1.06336e+22
17.7718  1.04264e+22
17.8891  1.02225e+22
18.0064  1.00264e+22
18.1237  9.84084e+21
18.241  9.66911e+21
18.3583  9.5121e+21
18.4756  9.37076e+21
18.5929  9.24477e+21
18.7102  9.13305e+21
18.8275  9.03374e+21
18.9449  8.94457e+21
19.0622  8.86317e+21
19.1795  8.78584e+21
19.2968  8.70969e+21
19.4141  8.63175e+21
19.5314  8.54927e+21
19.6487  8.46059e+21
19.766  8.36479e+21
19.8833  8.26212e+21
20.0006  8.15357e+21
20.1179  8.04098e+21
20.2352  7.9267e+21
20.3525  7.81184e+21
20.4698  7.69812e+21
20.5871  7.58566e+21
20.7044  7.47403e+21
20.8217  7.36225e+21
20.939  7.24882e+21
21.0563  7.13215e+21
21.1736  7.01146e+21
21.291  6.88568e+21
21.4083  6.75464e+21
21.5256  6.619e+21
21.6429  6.47932e+21
21.7602  6.33709e+21
21.8775  6.19332e+21
21.9948  6.04977e+21
22.1121  5.90775e+21
22.2294  5.76857e+21
22.3467  5.63352e+21
22.464  5.50368e+21
22.5813  5.37912e+21
22.6986  5.26005e+21
22.8159  5.14545e+21
22.9332  5.03415e+21
23.0505  4.92451e+21
23.1678  4.81493e+21
23.2851  4.70416e+21
23.4024  4.59127e+21
23.5198  4.47659e+21
23.6371  4.36141e+21
23.7544  4.24772e+21
23.8717  4.1381e+21
23.989  4.03533e+21
24.1063  3.94208e+21
24.2236  3.86047e+21
24.3409  3.79145e+21
24.4582  3.73545e+21
24.5755  3.69149e+21
24.6928  3.65791e+21
24.8101  3.63233e+21
24.9274  3.61176e+21
25.0447  3.5926e+21
25.162  3.57136e+21
25.2793  3.54455e+21
25.3966  3.5091e+21
25.5139  3.46269e+21
25.6312  3.40363e+21
25.7485  3.33152e+21
25.8658  3.24748e+21
25.9832  3.15304e+21
26.1005  3.05122e+21
26.2178  2.94525e+21
26.3351  2.83839e+21
26.4524  2.73389e+21
26.5697  2.63421e+21
26.687  2.54111e+21
26.8043  2.45548e+21
26.9216  2.37752e+21
27.0389  2.30687e+21
27.1562  2.24287e+21
27.2735  2.18444e+21
27.3908  2.13091e+21
27.5081  2.08132e+21
27.6254  2.03501e+21
27.7427  1.99165e+21
27.86  1.95088e+21
27.9773  1.91281e+21
28.0946  1.87758e+21
28.212  1.84566e+21
28.3293  1.81786e+21
28.4466  1.79472e+21
28.5639  1.77702e+21
28.6812  1.7649e+21
28.7985  1.75842e+21
28.9158  1.7569e+21
29.0331  1.75891e+21
29.1504  1.76306e+21
29.2677  1.76709e+21
29.385  1.76925e+21
29.5023  1.76778e+21
29.6196  1.76151e+21
29.7369  1.74976e+21
29.8542  1.73268e+21
29.9715  1.71115e+21
30.0888  1.68622e+21
30.2061  1.65965e+21
30.3234  1.63289e+21
30.4407  1.60738e+21
30.558  1.58408e+21
30.6754  1.56315e+21
30.7927  1.54466e+21
30.91  1.5275e+21
31.0273  1.51019e+21
31.1446  1.49118e+21
31.2619  1.46869e+21
31.3792  1.44101e+21
31.4965  1.40725e+21
31.6138  1.36696e+21
31.7311  1.32041e+21
31.8484  1.26869e+21
31.9657  1.21339e+21
32.083  1.15672e+21
32.2003  1.10083e+21
32.3176  1.04787e+21
32.4349  9.99674e+20
32.5522  9.57503e+20
32.6695  9.22172e+20
32.7868  8.9388e+20
32.9042  8.7214e+20
33.0215  8.56078e+20
33.1388  8.44474e+20
33.2561  8.35905e+20
33.3734  8.2905e+20
33.4907  8.22432e+20
33.608  8.14975e+20
33.7253  8.05966e+20
33.8426  7.95348e+20
33.9599  7.83343e+20
34.0772  7.70788e+20
34.1945  7.58775e+20
34.3118  7.48649e+20
34.4291  7.41653e+20
34.5464  7.38911e+20
34.6637  7.40966e+20
34.781  7.47715e+20
34.8983  7.5879e+20
35.0156  7.73216e+20
35.1329  7.89681e+20
35.2503  8.06562e+20
35.3676  8.2222e+20
35.4849  8.35293e+20
35.6022  8.44697e+20
35.7195  8.49677e+20
35.8368  8.50038e+20
35.9541  8.46315e+20
36.0714  8.39207e+20
36.1887  8.30237e+20
36.306  8.20995e+20
36.4233  8.13145e+20
36.5406  8.08317e+20
36.6579  8.07533e+20
36.7752  8.11258e+20
36.8925  8.19327e+20
37.0098  8.30382e+20
37.1271  8.42696e+20
37.2444  8.53928e+20
37.3617  8.61742e+20
37.479  8.64178e+20
37.5964  8.59732e+20
37.7137  8.47841e+20
37.831  8.28972e+20
37.9483  8.04363e+20
38.0656  7.76355e+20
38.1829  7.47092e+20
38.3002  7.19237e+20
38.4175  6.95207e+20
38.5348  6.76647e+20
38.6521  6.64964e+20
38.7694  6.60414e+20
38.8867  6.62738e+20
39.004  6.70964e+20
39.1213  6.83647e+20
39.2386  6.99018e+20
39.3559  7.14775e+20
39.4732  7.28948e+20
39.5905  7.39686e+20
39.7078  7.45667e+20
39.8251  7.46045e+20
39.9425  7.40918e+20
40.0598  7.30868e+20
40.1771  7.17069e+20
40.2944  7.01167e+20
40.4117  6.849e+20
40.529  6.69441e+20
40.6463  6.55972e+20
40.7636  6.44783e+20
40.8809  6.35573e+20
40.9982  6.27605e+20
41.1155  6.1966e+20
41.2328  6.10905e+20
41.3501  6.0052e+20
41.4674  5.88168e+20
41.5847  5.74207e+20
41.702  5.59232e+20
41.8193  5.44594e+20
41.9366  5.31457e+20
42.0539  5.21236e+20
42.1712  5.15175e+20
42.2885  5.13962e+20
42.4059  5.18321e+20
42.5232  5.28314e+20
42.6405  5.43574e+20
42.7578  5.63327e+20
42.8751  5.86261e+20
42.9924  6.1074e+20
43.1097  6.34757e+20
43.227  6.55813e+20
43.3443  6.71918e+20
43.4616  6.80802e+20
43.5789  6.81089e+20
43.6962  6.71972e+20
43.8135  6.53822e+20
43.9308  6.27772e+20
44.0481  5.9577e+20
44.1654  5.60576e+20
44.2827  5.24881e+20
44.4  4.91459e+20
44.5173  4.62659e+20
44.6347  4.40135e+20
44.752  4.24794e+20
44.8693  4.16833e+20
44.9866  4.15768e+20
45.1039  4.20674e+20
45.2212  4.30178e+20
45.3385  4.42884e+20
45.4558  4.57291e+20
45.5731  4.72062e+20
45.6904  4.8607e+20
45.8077  4.98273e+20
45.925  5.08317e+20
46.0423  5.15888e+20
46.1596  5.21194e+20
46.2769  5.24353e+20
46.3942  5.25881e+20
46.5115  5.26145e+20
46.6288  5.25218e+20
46.7461  5.23033e+20
46.8634  5.19244e+20
46.9808  5.13088e+20
47.0981  5.04015e+20
47.2154  4.91399e+20
47.3327  4.75077e+20
47.45  4.55076e+20
47.5673  4.32252e+20
47.6846  4.07701e+20
47.8019  3.82803e+20
47.9192  3.59003e+20
48.0365  3.37833e+20
48.1538  3.20272e+20
48.2711  3.0708e+20
48.3884  2.9835e+20
48.5057  2.93952e+20
48.623  2.93097e+20
48.7403  2.94923e+20
48.8576  2.98322e+20
48.9749  3.02114e+20
49.0922  3.05242e+20
49.2095  3.06817e+20
49.3269  3.06158e+20
49.4442  3.02987e+20
49.5615  2.97412e+20
49.6788  2.90171e+20
49.7961  2.82024e+20
49.9134  2.74239e+20
50.0307  2.67986e+20
50.148  2.64281e+20
50.2653  2.6389e+20
50.3826  2.6707e+20
50.4999  2.73377e+20
50.6172  2.82103e+20
50.7345  2.92042e+20
50.8518  3.01818e+20
