#S 1 spectral density
#N 2
#UFWHM 36.5992
#L  abscissas [um]  spectral density
-58.5938  2.73541e+20
-58.4764  2.72477e+20
-58.3591  2.69577e+20
-58.2418  2.65368e+20
-58.1245  2.60661e+20
-58.0072  2.56265e+20
-57.8899  2.53114e+20
-57.7726  2.52192e+20
-57.6553  2.54208e+20
-57.538  2.59869e+20
-57.4207  2.69544e+20
-57.3034  2.83217e+20
-57.1861  3.00497e+20
-57.0688  3.2052e+20
-56.9515  3.42018e+20
-56.8342  3.63624e+20
-56.7169  3.83882e+20
-56.5996  4.01514e+20
-56.4823  4.15728e+20
-56.365  4.26184e+20
-56.2477  4.33014e+20
-56.1303  4.3706e+20
-56.013  4.39262e+20
-55.8957  4.40849e+20
-55.7784  4.42788e+20
-55.6611  4.45996e+20
-55.5438  4.51027e+20
-55.4265  4.57792e+20
-55.3092  4.66141e+20
-55.1919  4.75349e+20
-55.0746  4.84664e+20
-54.9573  4.93141e+20
-54.84  4.99785e+20
-54.7227  5.03881e+20
-54.6054  5.0478e+20
-54.4881  5.02235e+20
-54.3708  4.96474e+20
-54.2535  4.87764e+20
-54.1362  4.76948e+20
-54.0189  4.65214e+20
-53.9016  4.53697e+20
-53.7842  4.43624e+20
-53.6669  4.36186e+20
-53.5496  4.32093e+20
-53.4323  4.31763e+20
-53.315  4.35127e+20
-53.1977  4.41629e+20
-53.0804  4.50339e+20
-52.9631  4.60145e+20
-52.8458  4.69792e+20
-52.7285  4.78154e+20
-52.6112  4.84401e+20
-52.4939  4.88204e+20
-52.3766  4.89566e+20
-52.2593  4.8904e+20
-52.142  4.87677e+20
-52.0247  4.86604e+20
-51.9074  4.87249e+20
-51.7901  4.90541e+20
-51.6728  4.97229e+20
-51.5555  5.07514e+20
-51.4381  5.20793e+20
-51.3208  5.36009e+20
-51.2035  5.51609e+20
-51.0862  5.65927e+20
-50.9689  5.77387e+20
-50.8516  5.84664e+20
-50.7343  5.87056e+20
-50.617  5.84558e+20
-50.4997  5.77674e+20
-50.3824  5.67556e+20
-50.2651  5.55609e+20
-50.1478  5.43335e+20
-50.0305  5.32317e+20
-49.9132  5.23633e+20
-49.7959  5.1818e+20
-49.6786  5.16506e+20
-49.5613  5.18624e+20
-49.444  5.24178e+20
-49.3267  5.32554e+20
-49.2094  5.4268e+20
-49.092  5.53481e+20
-48.9747  5.63361e+20
-48.8574  5.71126e+20
-48.7401  5.7573e+20
-48.6228  5.76243e+20
-48.5055  5.72332e+20
-48.3882  5.64232e+20
-48.2709  5.52681e+20
-48.1536  5.38744e+20
-48.0363  5.23903e+20
-47.919  5.09555e+20
-47.8017  4.97116e+20
-47.6844  4.87525e+20
-47.5671  4.81355e+20
-47.4498  4.78821e+20
-47.3325  4.79576e+20
-47.2152  4.83334e+20
-47.0979  4.89272e+20
-46.9806  4.96677e+20
-46.8633  5.0517e+20
-46.7459  5.14125e+20
-46.6286  5.23377e+20
-46.5113  5.32775e+20
-46.394  5.42604e+20
-46.2767  5.53253e+20
-46.1594  5.65133e+20
-46.0421  5.78942e+20
-45.9248  5.95138e+20
-45.8075  6.14028e+20
-45.6902  6.35548e+20
-45.5729  6.59249e+20
-45.4556  6.84131e+20
-45.3383  7.0887e+20
-45.221  7.31741e+20
-45.1037  7.51178e+20
-44.9864  7.65779e+20
-44.8691  7.74534e+20
-44.7518  7.77051e+20
-44.6345  7.73465e+20
-44.5172  7.64543e+20
-44.3998  7.517e+20
-44.2825  7.35984e+20
-44.1652  7.18832e+20
-44.0479  7.01696e+20
-43.9306  6.85355e+20
-43.8133  6.70552e+20
-43.696  6.57816e+20
-43.5787  6.47278e+20
-43.4614  6.38852e+20
-43.3441  6.32414e+20
-43.2268  6.27383e+20
-43.1095  6.23314e+20
-42.9922  6.19396e+20
-42.8749  6.14866e+20
-42.7576  6.09057e+20
-42.6403  6.0145e+20
-42.523  5.92022e+20
-42.4057  5.81068e+20
-42.2884  5.69233e+20
-42.171  5.57684e+20
-42.0537  5.47601e+20
-41.9364  5.40303e+20
-41.8191  5.36672e+20
-41.7018  5.37192e+20
-41.5845  5.42021e+20
-41.4672  5.50689e+20
-41.3499  5.62644e+20
-41.2326  5.76769e+20
-41.1153  5.92155e+20
-40.998  6.0793e+20
-40.8807  6.23315e+20
-40.7634  6.37731e+20
-40.6461  6.50705e+20
-40.5288  6.61957e+20
-40.4115  6.71566e+20
-40.2942  6.79678e+20
-40.1769  6.8668e+20
-40.0596  6.9327e+20
-39.9423  7.00262e+20
-39.825  7.08798e+20
-39.7076  7.19959e+20
-39.5903  7.34495e+20
-39.473  7.52568e+20
-39.3557  7.74034e+20
-39.2384  7.97877e+20
-39.1211  8.22305e+20
-39.0038  8.45441e+20
-38.8865  8.64991e+20
-38.7692  8.7901e+20
-38.6519  8.8628e+20
-38.5346  8.86127e+20
-38.4173  8.79196e+20
-38.3  8.66791e+20
-38.1827  8.51183e+20
-38.0654  8.3501e+20
-37.9481  8.21238e+20
-37.8308  8.12466e+20
-37.7135  8.11095e+20
-37.5962  8.18521e+20
-37.4789  8.35555e+20
-37.3615  8.62075e+20
-37.2442  8.97094e+20
-37.1269  9.38841e+20
-37.0096  9.84782e+20
-36.8923  1.03219e+21
-36.775  1.07811e+21
-36.6577  1.11982e+21
-36.5404  1.15491e+21
-36.4231  1.18172e+21
-36.3058  1.19977e+21
-36.1885  1.20909e+21
-36.0712  1.21092e+21
-35.9539  1.20699e+21
-35.8366  1.19955e+21
-35.7193  1.1911e+21
-35.602  1.18384e+21
-35.4847  1.17955e+21
-35.3674  1.17932e+21
-35.2501  1.18374e+21
-35.1328  1.19281e+21
-35.0154  1.20585e+21
-34.8981  1.22214e+21
-34.7808  1.24051e+21
-34.6635  1.25992e+21
-34.5462  1.27959e+21
-34.4289  1.29868e+21
-34.3116  1.31697e+21
-34.1943  1.33454e+21
-34.077  1.35191e+21
-33.9597  1.37e+21
-33.8424  1.38991e+21
-33.7251  1.41297e+21
-33.6078  1.44051e+21
-33.4905  1.47353e+21
-33.3732  1.51261e+21
-33.2559  1.55806e+21
-33.1386  1.6092e+21
-33.0213  1.66511e+21
-32.904  1.72406e+21
-32.7867  1.78433e+21
-32.6693  1.84404e+21
-32.552  1.90136e+21
-32.4347  1.95502e+21
-32.3174  2.00411e+21
-32.2001  2.04835e+21
-32.0828  2.08811e+21
-31.9655  2.12422e+21
-31.8482  2.15806e+21
-31.7309  2.1912e+21
-31.6136  2.22549e+21
-31.4963  2.26251e+21
-31.379  2.30375e+21
-31.2617  2.35013e+21
-31.1444  2.40202e+21
-31.0271  2.45937e+21
-30.9098  2.52122e+21
-30.7925  2.58634e+21
-30.6752  2.65292e+21
-30.5579  2.71921e+21
-30.4406  2.78344e+21
-30.3232  2.84404e+21
-30.2059  2.90006e+21
-30.0886  2.95112e+21
-29.9713  2.99694e+21
-29.854  3.03847e+21
-29.7367  3.07647e+21
-29.6194  3.11223e+21
-29.5021  3.1471e+21
-29.3848  3.18271e+21
-29.2675  3.22028e+21
-29.1502  3.26091e+21
-29.0329  3.30503e+21
-28.9156  3.35338e+21
-28.7983  3.4055e+21
-28.681  3.46109e+21
-28.5637  3.51964e+21
-28.4464  3.58045e+21
-28.3291  3.64288e+21
-28.2118  3.70668e+21
-28.0944  3.77186e+21
-27.9771  3.83859e+21
-27.8598  3.90702e+21
-27.7425  3.97769e+21
-27.6252  4.05069e+21
-27.5079  4.12584e+21
-27.3906  4.20262e+21
-27.2733  4.28008e+21
-27.156  4.35747e+21
-27.0387  4.43348e+21
-26.9214  4.50737e+21
-26.8041  4.57838e+21
-26.6868  4.64657e+21
-26.5695  4.7121e+21
-26.4522  4.77548e+21
-26.3349  4.8379e+21
-26.2176  4.90016e+21
-26.1003  4.96389e+21
-25.983  5.03051e+21
-25.8657  5.10155e+21
-25.7483  5.17862e+21
-25.631  5.26332e+21
-25.5137  5.35679e+21
-25.3964  5.45992e+21
-25.2791  5.57217e+21
-25.1618  5.69311e+21
-25.0445  5.82045e+21
-24.9272  5.95147e+21
-24.8099  6.08239e+21
-24.6926  6.20999e+21
-24.5753  6.3309e+21
-24.458  6.44255e+21
-24.3407  6.54318e+21
-24.2234  6.63328e+21
-24.1061  6.71359e+21
-23.9888  6.78674e+21
-23.8715  6.8561e+21
-23.7542  6.92548e+21
-23.6369  6.99875e+21
-23.5196  7.07938e+21
-23.4023  7.17053e+21
-23.2849  7.27347e+21
-23.1676  7.38826e+21
-23.0503  7.51369e+21
-22.933  7.64679e+21
-22.8157  7.78283e+21
-22.6984  7.91638e+21
-22.5811  8.0411e+21
-22.4638  8.15174e+21
-22.3465  8.24264e+21
-22.2292  8.31087e+21
-22.1119  8.35488e+21
-21.9946  8.3764e+21
-21.8773  8.37878e+21
-21.76  8.36767e+21
-21.6427  8.35046e+21
-21.5254  8.33483e+21
-21.4081  8.32902e+21
-21.2908  8.34041e+21
-21.1735  8.37507e+21
-21.0561  8.43776e+21
-20.9388  8.53115e+21
-20.8215  8.65601e+21
-20.7042  8.81062e+21
-20.5869  8.99094e+21
-20.4696  9.19162e+21
-20.3523  9.4052e+21
-20.235  9.62325e+21
-20.1177  9.83639e+21
-20.0004  1.00363e+22
-19.8831  1.02162e+22
-19.7658  1.03702e+22
-19.6485  1.04957e+22
-19.5312  1.05932e+22
-19.4139  1.06656e+22
-19.2966  1.07181e+22
-19.1793  1.07579e+22
-19.062  1.07927e+22
-18.9447  1.08303e+22
-18.8274  1.08775e+22
-18.71  1.09405e+22
-18.5927  1.10224e+22
-18.4754  1.11252e+22
-18.3581  1.12489e+22
-18.2408  1.13917e+22
-18.1235  1.15499e+22
-18.0062  1.1719e+22
-17.8889  1.18935e+22
-17.7716  1.20687e+22
-17.6543  1.22383e+22
-17.537  1.23983e+22
-17.4197  1.2545e+22
-17.3024  1.2677e+22
-17.1851  1.27938e+22
-17.0678  1.2897e+22
-16.9505  1.2989e+22
-16.8332  1.30735e+22
-16.7159  1.31539e+22
-16.5986  1.32332e+22
-16.4813  1.3314e+22
-16.364  1.33976e+22
-16.2466  1.34839e+22
-16.1293  1.35724e+22
-16.012  1.36607e+22
-15.8947  1.37468e+22
-15.7774  1.38287e+22
-15.6601  1.3905e+22
-15.5428  1.39747e+22
-15.4255  1.40376e+22
-15.3082  1.4095e+22
-15.1909  1.415e+22
-15.0736  1.42047e+22
-14.9563  1.42633e+22
-14.839  1.43297e+22
-14.7217  1.44083e+22
-14.6044  1.45022e+22
-14.4871  1.46144e+22
-14.3698  1.47467e+22
-14.2525  1.48988e+22
-14.1352  1.50698e+22
-14.0178  1.52575e+22
-13.9005  1.54575e+22
-13.7832  1.56655e+22
-13.6659  1.58764e+22
-13.5486  1.6085e+22
-13.4313  1.62865e+22
-13.314  1.64767e+22
-13.1967  1.66524e+22
-13.0794  1.68124e+22
-12.9621  1.69549e+22
-12.8448  1.7081e+22
-12.7275  1.71914e+22
-12.6102  1.72881e+22
-12.4929  1.73736e+22
-12.3756  1.74499e+22
-12.2583  1.75192e+22
-12.141  1.75832e+22
-12.0237  1.76422e+22
-11.9064  1.76962e+22
-11.7891  1.77446e+22
-11.6718  1.77858e+22
-11.5544  1.78185e+22
-11.4371  1.78423e+22
-11.3198  1.78555e+22
-11.2025  1.78595e+22
-11.0852  1.78556e+22
-10.9679  1.78469e+22
-10.8506  1.78373e+22
-10.7333  1.78315e+22
-10.616  1.78342e+22
-10.4987  1.78517e+22
-10.3814  1.78871e+22
-10.2641  1.79448e+22
-10.1468  1.80266e+22
-10.0295  1.81337e+22
-9.91217  1.82645e+22
-9.79487  1.84167e+22
-9.67756  1.8586e+22
-9.56026  1.87668e+22
-9.44295  1.89527e+22
-9.32565  1.91374e+22
-9.20834  1.93141e+22
-9.09104  1.94772e+22
-8.97373  1.96228e+22
-8.85643  1.97474e+22
-8.73913  1.985e+22
-8.62182  1.99309e+22
-8.50452  1.99927e+22
-8.38721  2.00385e+22
-8.26991  2.0072e+22
-8.1526  2.00981e+22
-8.03529  2.01205e+22
-7.91799  2.01431e+22
-7.80069  2.01683e+22
-7.68338  2.01975e+22
-7.56608  2.02316e+22
-7.44877  2.02697e+22
-7.33146  2.03098e+22
-7.21416  2.03496e+22
-7.09685  2.03864e+22
-6.97955  2.04171e+22
-6.86224  2.04399e+22
-6.74494  2.04541e+22
-6.62763  2.0459e+22
-6.51033  2.04568e+22
-6.39302  2.04501e+22
-6.27572  2.04432e+22
-6.15842  2.04407e+22
-6.04111  2.04478e+22
-5.92381  2.04686e+22
-5.8065  2.05077e+22
-5.68919  2.05664e+22
-5.57189  2.06463e+22
-5.45458  2.07461e+22
-5.33728  2.08635e+22
-5.21997  2.09937e+22
-5.10267  2.11315e+22
-4.98536  2.12705e+22
-4.86806  2.14042e+22
-4.75075  2.15259e+22
-4.63345  2.16306e+22
-4.51614  2.1714e+22
-4.39884  2.17739e+22
-4.28154  2.18109e+22
-4.16423  2.18266e+22
-4.04692  2.18251e+22
-3.92962  2.18117e+22
-3.81231  2.1793e+22
-3.69501  2.1775e+22
-3.5777  2.17631e+22
-3.4604  2.17623e+22
-3.34309  2.17754e+22
-3.22579  2.18035e+22
-3.10849  2.18465e+22
-2.99118  2.19023e+22
-2.87387  2.19686e+22
-2.75657  2.20411e+22
-2.63926  2.21157e+22
-2.52196  2.21877e+22
-2.40465  2.22524e+22
-2.28735  2.23055e+22
-2.17005  2.23436e+22
-2.05274  2.23652e+22
-1.93544  2.23687e+22
-1.81813  2.23557e+22
-1.70083  2.23284e+22
-1.58352  2.22907e+22
-1.46622  2.22476e+22
-1.34891  2.22042e+22
-1.2316  2.21648e+22
-1.1143  2.21333e+22
-0.996995  2.21113e+22
-0.87969  2.21003e+22
-0.762385  2.20987e+22
-0.64508  2.21053e+22
-0.527775  2.21169e+22
-0.41047  2.21306e+22
-0.293165  2.21435e+22
-0.17586  2.21534e+22
-0.058555  2.21586e+22
0.05875  2.21581e+22
0.176055  2.21518e+22
0.29336  2.21407e+22
0.410665  2.21268e+22
0.52797  2.2112e+22
0.645275  2.20992e+22
0.76258  2.20916e+22
0.879885  2.20919e+22
0.99719  2.21017e+22
1.1145  2.21222e+22
1.2318  2.21526e+22
1.3491  2.21909e+22
1.46641  2.2233e+22
1.58371  2.22748e+22
1.70102  2.2311e+22
1.81832  2.2337e+22
1.93563  2.23488e+22
2.05294  2.23442e+22
2.17024  2.2322e+22
2.28754  2.22829e+22
2.40485  2.22291e+22
2.52216  2.21638e+22
2.63946  2.20917e+22
2.75677  2.20165e+22
2.87407  2.19437e+22
2.99137  2.1877e+22
3.10868  2.18205e+22
3.22599  2.17768e+22
3.34329  2.17479e+22
3.4606  2.17342e+22
3.5779  2.17339e+22
3.69521  2.17441e+22
3.81251  2.17608e+22
3.92982  2.17777e+22
4.04712  2.1789e+22
4.16443  2.17888e+22
4.28173  2.17712e+22
4.39903  2.17324e+22
4.51634  2.16703e+22
4.63364  2.15854e+22
4.75095  2.14792e+22
4.86825  2.1356e+22
4.98556  2.12213e+22
5.10286  2.10815e+22
5.22017  2.0943e+22
5.33748  2.08123e+22
5.45478  2.06948e+22
5.57209  2.05948e+22
5.68939  2.05145e+22
5.8067  2.04553e+22
5.924  2.04161e+22
6.0413  2.03947e+22
6.15861  2.0387e+22
6.27591  2.03885e+22
6.39322  2.03943e+22
6.51052  2.03997e+22
6.62783  2.04005e+22
6.74514  2.03939e+22
6.86244  2.03786e+22
6.97975  2.03542e+22
7.09705  2.0322e+22
7.21436  2.02841e+22
7.33166  2.0243e+22
7.44897  2.02016e+22
7.56627  2.01627e+22
7.68358  2.01277e+22
7.80088  2.00975e+22
7.91819  2.00713e+22
8.03549  2.00481e+22
8.1528  2.00251e+22
8.2701  1.99982e+22
8.38741  1.99636e+22
8.50471  1.99172e+22
8.62202  1.98544e+22
8.73932  1.97722e+22
8.85662  1.96689e+22
8.97393  1.95433e+22
9.09123  1.9397e+22
9.20854  1.92327e+22
9.32584  1.90554e+22
9.44315  1.88701e+22
9.56045  1.86834e+22
9.67776  1.85023e+22
9.79506  1.83326e+22
9.91237  1.81801e+22
10.0297  1.8049e+22
10.147  1.79418e+22
10.2643  1.78599e+22
10.3816  1.78017e+22
10.4989  1.7766e+22
10.6162  1.77483e+22
10.7335  1.77447e+22
10.8508  1.77498e+22
10.9681  1.77585e+22
11.0854  1.77663e+22
11.2027  1.7769e+22
11.32  1.77637e+22
11.4373  1.77488e+22
11.5546  1.77241e+22
11.6719  1.76898e+22
11.7893  1.76473e+22
11.9066  1.75978e+22
12.0239  1.75423e+22
12.1412  1.74821e+22
12.2585  1.74172e+22
12.3758  1.73468e+22
12.4931  1.72695e+22
12.6104  1.71829e+22
12.7277  1.70854e+22
12.845  1.69745e+22
12.9623  1.68477e+22
13.0796  1.67045e+22
13.1969  1.65444e+22
13.3142  1.6368e+22
13.4315  1.61774e+22
13.5488  1.59759e+22
13.6661  1.57671e+22
13.7834  1.55561e+22
13.9007  1.53479e+22
14.018  1.5148e+22
14.1354  1.49604e+22
14.2527  1.47892e+22
14.37  1.4637e+22
14.4873  1.45047e+22
14.6046  1.43925e+22
14.7219  1.42984e+22
14.8392  1.42199e+22
14.9565  1.41535e+22
15.0738  1.40946e+22
15.1911  1.404e+22
15.3084  1.39851e+22
15.4257  1.39272e+22
15.543  1.38639e+22
15.6603  1.37942e+22
15.7776  1.37179e+22
15.8949  1.36356e+22
16.0122  1.35489e+22
16.1295  1.34601e+22
16.2468  1.33713e+22
16.3641  1.32841e+22
16.4815  1.32e+22
16.5988  1.31186e+22
16.7161  1.30381e+22
16.8334  1.2957e+22
16.9507  1.28718e+22
17.068  1.27789e+22
17.1853  1.26749e+22
17.3026  1.25573e+22
17.4199  1.24249e+22
17.5372  1.22781e+22
17.6545  1.21179e+22
17.7718  1.19486e+22
17.8891  1.17743e+22
18.0064  1.16002e+22
18.1237  1.14318e+22
18.241  1.12747e+22
18.3583  1.11328e+22
18.4756  1.10098e+22
18.5929  1.09076e+22
18.7102  1.08263e+22
18.8275  1.07638e+22
18.9449  1.07164e+22
19.0622  1.06788e+22
19.1795  1.06434e+22
19.2968  1.0603e+22
19.4141  1.05498e+22
19.5314  1.04768e+22
19.6487  1.03789e+22
19.766  1.02529e+22
19.8833  1.00989e+22
20.0006  9.91937e+21
20.1179  9.71975e+21
20.2352  9.50755e+21
20.3525  9.29093e+21
20.4698  9.07924e+21
20.5871  8.88045e+21
20.7044  8.70182e+21
20.8217  8.5493e+21
20.939  8.42644e+21
21.0563  8.33462e+21
21.1736  8.27347e+21
21.291  8.24012e+21
21.4083  8.22943e+21
21.5256  8.23599e+21
21.6429  8.25175e+21
21.7602  8.26902e+21
21.8775  8.27958e+21
21.9948  8.27664e+21
22.1121  8.25451e+21
22.2294  8.20958e+21
22.3467  8.14051e+21
22.464  8.04904e+21
22.5813  7.93815e+21
22.6986  7.81309e+21
22.8159  7.6794e+21
22.9332  7.54372e+21
23.0505  7.41098e+21
23.1678  7.28609e+21
23.2851  7.17191e+21
23.4024  7.06986e+21
23.5198  6.97945e+21
23.6371  6.89935e+21
23.7544  6.8268e+21
23.8717  6.75784e+21
23.989  6.68888e+21
24.1063  6.6161e+21
24.2236  6.53607e+21
24.3409  6.44639e+21
24.4582  6.34593e+21
24.5755  6.23475e+21
24.6928  6.11428e+21
24.8101  5.98714e+21
24.9274  5.85683e+21
25.0447  5.72661e+21
25.162  5.60038e+21
25.2793  5.48068e+21
25.3966  5.36935e+21
25.5139  5.2676e+21
25.6312  5.17535e+21
25.7485  5.09185e+21
25.8658  5.01607e+21
25.9832  4.94637e+21
26.1005  4.88093e+21
26.2178  4.81852e+21
26.3351  4.75736e+21
26.4524  4.6962e+21
26.5697  4.6338e+21
26.687  4.56937e+21
26.8043  4.50214e+21
26.9216  4.4319e+21
27.0389  4.35882e+21
27.1562  4.2837e+21
27.2735  4.20709e+21
27.3908  4.13032e+21
27.5081  4.05429e+21
27.6254  3.97997e+21
27.7427  3.90773e+21
27.86  3.83794e+21
27.9773  3.77035e+21
28.0946  3.70458e+21
28.212  3.6402e+21
28.3293  3.57732e+21
28.4466  3.51578e+21
28.5639  3.45589e+21
28.6812  3.39815e+21
28.7985  3.34342e+21
28.9158  3.29214e+21
29.0331  3.24464e+21
29.1504  3.20115e+21
29.2677  3.16123e+21
29.385  3.12421e+21
29.5023  3.08911e+21
29.6196  3.05467e+21
29.7369  3.01927e+21
29.8542  2.98174e+21
29.9715  2.94078e+21
30.0888  2.89533e+21
30.2061  2.84496e+21
30.3234  2.78953e+21
30.4407  2.72952e+21
30.558  2.66618e+21
30.6754  2.60075e+21
30.7927  2.53519e+21
30.91  2.4712e+21
31.0273  2.41041e+21
31.1446  2.35422e+21
31.2619  2.30336e+21
31.3792  2.25806e+21
31.4965  2.21778e+21
31.6138  2.18167e+21
31.7311  2.14827e+21
31.8484  2.11596e+21
31.9657  2.08279e+21
32.083  2.04747e+21
32.2003  2.00844e+21
32.3176  1.96485e+21
32.4349  1.91654e+21
32.5522  1.86367e+21
32.6695  1.80726e+21
32.7868  1.74852e+21
32.9042  1.68915e+21
33.0215  1.63125e+21
33.1388  1.57638e+21
33.2561  1.52629e+21
33.3734  1.4818e+21
33.4907  1.44361e+21
33.608  1.41151e+21
33.7253  1.38474e+21
33.8426  1.36241e+21
33.9599  1.34316e+21
34.0772  1.32566e+21
34.1945  1.30884e+21
34.3118  1.29178e+21
34.4291  1.27399e+21
34.5464  1.25538e+21
34.6637  1.23637e+21
34.781  1.2175e+21
34.8983  1.19974e+21
35.0156  1.18405e+21
35.1329  1.17152e+21
35.2503  1.16311e+21
35.3676  1.15911e+21
35.4849  1.15989e+21
35.6022  1.16471e+21
35.7195  1.17231e+21
35.8368  1.18099e+21
35.9541  1.18864e+21
36.0714  1.19272e+21
36.1887  1.19099e+21
36.306  1.18175e+21
36.4233  1.16391e+21
36.5406  1.13723e+21
36.6579  1.10234e+21
36.7752  1.06109e+21
36.8925  1.01564e+21
37.0098  9.6875e+20
37.1271  9.23517e+20
37.2444  8.82506e+20
37.3617  8.48307e+20
37.479  8.22575e+20
37.5964  8.06276e+20
37.7137  7.99551e+20
37.831  8.01529e+20
37.9483  8.10778e+20
38.0656  8.24946e+20
38.1829  8.41359e+20
38.3002  8.57091e+20
38.4175  8.69512e+20
38.5348  8.76474e+20
38.6521  8.7658e+20
38.7694  8.69424e+20
38.8867  8.55459e+20
39.004  8.36083e+20
39.1213  8.13252e+20
39.2386  7.89145e+20
39.3559  7.65831e+20
39.4732  7.44752e+20
39.5905  7.27067e+20
39.7078  7.12971e+20
39.8251  7.02215e+20
39.9425  6.94021e+20
40.0598  6.8717e+20
40.1771  6.80813e+20
40.2944  6.73984e+20
40.4117  6.6601e+20
40.529  6.56423e+20
40.6463  6.45283e+20
40.7636  6.32419e+20
40.8809  6.18205e+20
40.9982  6.0302e+20
41.1155  5.87463e+20
41.2328  5.72301e+20
41.3501  5.58371e+20
41.4674  5.46737e+20
41.5847  5.3834e+20
41.702  5.33768e+20
41.8193  5.3355e+20
41.9366  5.37402e+20
42.0539  5.44892e+20
42.1712  5.55054e+20
42.2885  5.66725e+20
42.4059  5.78524e+20
42.5232  5.89472e+20
42.6405  5.98826e+20
42.7578  6.06386e+20
42.8751  6.12182e+20
42.9924  6.16645e+20
43.1097  6.20587e+20
43.227  6.24678e+20
43.3443  6.2974e+20
43.4616  6.3634e+20
43.5789  6.44837e+20
43.6962  6.55479e+20
43.8135  6.68347e+20
43.9308  6.83306e+20
44.0481  6.9976e+20
44.1654  7.16963e+20
44.2827  7.34033e+20
44.4  7.49713e+20
44.5173  7.62588e+20
44.6347  7.71381e+20
44.752  7.74799e+20
44.8693  7.72098e+20
44.9866  7.63174e+20
45.1039  7.48463e+20
45.2212  7.28804e+20
45.3385  7.05822e+20
45.4558  6.81059e+20
45.5731  6.56221e+20
45.6904  6.32603e+20
45.8077  6.11138e+20
45.925  5.92357e+20
46.0423  5.76257e+20
46.1596  5.62513e+20
46.2769  5.50728e+20
46.3942  5.4016e+20
46.5115  5.30422e+20
46.6288  5.21012e+20
46.7461  5.11799e+20
46.8634  5.02902e+20
46.9808  4.94473e+20
47.0981  4.87032e+20
47.2154  4.8116e+20
47.3327  4.7748e+20
47.45  4.76774e+20
47.5673  4.79329e+20
47.6846  4.85547e+20
47.8019  4.95171e+20
47.9192  5.07579e+20
48.0365  5.2187e+20
48.1538  5.36642e+20
48.2711  5.50468e+20
48.3884  5.61889e+20
48.5057  5.69866e+20
48.623  5.73627e+20
48.7403  5.72998e+20
48.8576  5.68345e+20
48.9749  5.60449e+20
49.0922  5.50561e+20
49.2095  5.39855e+20
49.3269  5.29775e+20
49.4442  5.21503e+20
49.5615  5.16008e+20
49.6788  5.14009e+20
49.7961  5.15838e+20
49.9134  5.2127e+20
50.0307  5.29997e+20
50.148  5.41076e+20
50.2653  5.53308e+20
50.3826  5.65206e+20
50.4999  5.75175e+20
50.6172  5.81902e+20
50.7345  5.84252e+20
50.8518  5.81673e+20
