#S 1 spectral density
#N 2
#UFWHM 11.144
#L  abscissas [um]  spectral density
-58.5938  4.83549e+19
-58.4764  5.234e+19
-58.3591  5.6432e+19
-58.2418  6.04354e+19
-58.1245  6.42033e+19
-58.0072  6.75941e+19
-57.8899  7.06041e+19
-57.7726  7.33368e+19
-57.6553  7.59703e+19
-57.538  7.87785e+19
-57.4207  8.20898e+19
-57.3034  8.60622e+19
-57.1861  9.07269e+19
-57.0688  9.59111e+19
-56.9515  1.01278e+20
-56.8342  1.0634e+20
-56.7169  1.10499e+20
-56.5996  1.13235e+20
-56.4823  1.14223e+20
-56.365  1.13333e+20
-56.2477  1.10646e+20
-56.1303  1.06443e+20
-56.013  1.01147e+20
-55.8957  9.52218e+19
-55.7784  8.90901e+19
-55.6611  8.30452e+19
-55.5438  7.73523e+19
-55.4265  7.21516e+19
-55.3092  6.74751e+19
-55.1919  6.33867e+19
-55.0746  5.99417e+19
-54.9573  5.7153e+19
-54.84  5.507e+19
-54.7227  5.36333e+19
-54.6054  5.2802e+19
-54.4881  5.24135e+19
-54.3708  5.22324e+19
-54.2535  5.1934e+19
-54.1362  5.12241e+19
-54.0189  4.9775e+19
-53.9016  4.73661e+19
-53.7842  4.38568e+19
-53.6669  3.93295e+19
-53.5496  3.39273e+19
-53.4323  2.79835e+19
-53.315  2.1956e+19
-53.1977  1.62732e+19
-53.0804  1.14547e+19
-52.9631  7.90528e+18
-52.8458  5.89939e+18
-52.7285  5.52227e+18
-52.6112  6.69092e+18
-52.4939  9.12964e+18
-52.3766  1.24408e+19
-52.2593  1.61535e+19
-52.142  1.9809e+19
-52.0247  2.30603e+19
-51.9074  2.56736e+19
-51.7901  2.75803e+19
-51.6728  2.88737e+19
-51.5555  2.9733e+19
-51.4381  3.04954e+19
-51.3208  3.14735e+19
-51.2035  3.30439e+19
-51.0862  3.55432e+19
-50.9689  3.93682e+19
-50.8516  4.48394e+19
-50.7343  5.22166e+19
-50.617  6.16966e+19
-50.4997  7.33196e+19
-50.3824  8.68377e+19
-50.2651  1.01912e+20
-50.1478  1.1778e+20
-50.0305  1.33672e+20
-49.9132  1.48551e+20
-49.7959  1.61503e+20
-49.6786  1.71716e+20
-49.5613  1.78726e+20
-49.444  1.82291e+20
-49.3267  1.82539e+20
-49.2094  1.79949e+20
-49.092  1.75133e+20
-48.9747  1.68859e+20
-48.8574  1.61872e+20
-48.7401  1.54807e+20
-48.6228  1.48239e+20
-48.5055  1.42661e+20
-48.3882  1.38299e+20
-48.2709  1.35365e+20
-48.1536  1.33858e+20
-48.0363  1.3355e+20
-47.919  1.34273e+20
-47.8017  1.35494e+20
-47.6844  1.36712e+20
-47.5671  1.37306e+20
-47.4498  1.36628e+20
-47.3325  1.34267e+20
-47.2152  1.29967e+20
-47.0979  1.23656e+20
-46.9806  1.15541e+20
-46.8633  1.06103e+20
-46.7459  9.59632e+19
-46.6286  8.57648e+19
-46.5113  7.61658e+19
-46.394  6.78065e+19
-46.2767  6.1085e+19
-46.1594  5.6407e+19
-46.0421  5.38651e+19
-45.9248  5.3473e+19
-45.8075  5.50886e+19
-45.6902  5.83361e+19
-45.5729  6.27481e+19
-45.4556  6.77367e+19
-45.3383  7.26155e+19
-45.221  7.66932e+19
-45.1037  7.94276e+19
-44.9864  8.03855e+19
-44.8691  7.95443e+19
-44.7518  7.69663e+19
-44.6345  7.3079e+19
-44.5172  6.84884e+19
-44.3998  6.38022e+19
-44.2825  5.96809e+19
-44.1652  5.65721e+19
-44.0479  5.49186e+19
-43.9306  5.49719e+19
-43.8133  5.68625e+19
-43.696  6.06875e+19
-43.5787  6.6504e+19
-43.4614  7.42665e+19
-43.3441  8.3929e+19
-43.2268  9.5255e+19
-43.1095  1.07862e+20
-42.9922  1.21039e+20
-42.8749  1.33961e+20
-42.7576  1.45701e+20
-42.6403  1.55304e+20
-42.523  1.61954e+20
-42.4057  1.65169e+20
-42.2884  1.648e+20
-42.171  1.61065e+20
-42.0537  1.54611e+20
-41.9364  1.46187e+20
-41.8191  1.36724e+20
-41.7018  1.27063e+20
-41.5845  1.17917e+20
-41.4672  1.09817e+20
-41.3499  1.03113e+20
-41.2326  9.80349e+19
-41.1153  9.46225e+19
-40.998  9.29044e+19
-40.8807  9.27505e+19
-40.7634  9.39755e+19
-40.6461  9.62716e+19
-40.5288  9.92213e+19
-40.4115  1.0232e+20
-40.2942  1.05074e+20
-40.1769  1.07027e+20
-40.0596  1.07861e+20
-39.9423  1.07514e+20
-39.825  1.06187e+20
-39.7076  1.04299e+20
-39.5903  1.02374e+20
-39.473  1.01004e+20
-39.3557  1.00705e+20
-39.2384  1.0172e+20
-39.1211  1.04107e+20
-39.0038  1.07716e+20
-38.8865  1.12231e+20
-38.7692  1.17253e+20
-38.6519  1.22458e+20
-38.5346  1.2751e+20
-38.4173  1.32334e+20
-38.3  1.3683e+20
-38.1827  1.40976e+20
-38.0654  1.44782e+20
-37.9481  1.48163e+20
-37.8308  1.50983e+20
-37.7135  1.53121e+20
-37.5962  1.54438e+20
-37.4789  1.54903e+20
-37.3615  1.54515e+20
-37.2442  1.53568e+20
-37.1269  1.52296e+20
-37.0096  1.51111e+20
-36.8923  1.50438e+20
-36.775  1.50515e+20
-36.6577  1.51487e+20
-36.5404  1.53499e+20
-36.4231  1.56398e+20
-36.3058  1.59999e+20
-36.1885  1.6407e+20
-36.0712  1.68239e+20
-35.9539  1.7229e+20
-35.8366  1.75868e+20
-35.7193  1.78597e+20
-35.602  1.8023e+20
-35.4847  1.80391e+20
-35.3674  1.78928e+20
-35.2501  1.75676e+20
-35.1328  1.70648e+20
-35.0154  1.64047e+20
-34.8981  1.5612e+20
-34.7808  1.47351e+20
-34.6635  1.38304e+20
-34.5462  1.29355e+20
-34.4289  1.21006e+20
-34.3116  1.13528e+20
-34.1943  1.07186e+20
-34.077  1.01993e+20
-33.9597  9.79232e+19
-33.8424  9.48524e+19
-33.7251  9.26588e+19
-33.6078  9.11688e+19
-33.4905  9.01275e+19
-33.3732  8.93244e+19
-33.2559  8.85141e+19
-33.1386  8.74311e+19
-33.0213  8.59037e+19
-32.904  8.3824e+19
-32.7867  8.1262e+19
-32.6693  7.83688e+19
-32.552  7.55199e+19
-32.4347  7.30837e+19
-32.3174  7.16307e+19
-32.2001  7.16131e+19
-32.0828  7.33335e+19
-31.9655  7.70116e+19
-31.8482  8.26856e+19
-31.7309  9.01157e+19
-31.6136  9.90364e+19
-31.4963  1.0895e+20
-31.379  1.19405e+20
-31.2617  1.29865e+20
-31.1444  1.39923e+20
-31.0271  1.4919e+20
-30.9098  1.57397e+20
-30.7925  1.64437e+20
-30.6752  1.70322e+20
-30.5579  1.75176e+20
-30.4406  1.79406e+20
-30.3232  1.83495e+20
-30.2059  1.87949e+20
-30.0886  1.93358e+20
-29.9713  2.00302e+20
-29.854  2.0923e+20
-29.7367  2.20373e+20
-29.6194  2.33848e+20
-29.5021  2.49653e+20
-29.3848  2.67485e+20
-29.2675  2.86847e+20
-29.1502  3.07229e+20
-29.0329  3.2791e+20
-28.9156  3.48063e+20
-28.7983  3.66776e+20
-28.681  3.83185e+20
-28.5637  3.9656e+20
-28.4464  4.06106e+20
-28.3291  4.11672e+20
-28.2118  4.13149e+20
-28.0944  4.1086e+20
-27.9771  4.0567e+20
-27.8598  3.98517e+20
-27.7425  3.90457e+20
-27.6252  3.82671e+20
-27.5079  3.75956e+20
-27.3906  3.71003e+20
-27.2733  3.68372e+20
-27.156  3.68024e+20
-27.0387  3.69914e+20
-26.9214  3.73858e+20
-26.8041  3.79437e+20
-26.6868  3.86374e+20
-26.5695  3.94139e+20
-26.4522  4.02296e+20
-26.3349  4.10133e+20
-26.2176  4.16977e+20
-26.1003  4.22078e+20
-25.983  4.24763e+20
-25.8657  4.24545e+20
-25.7483  4.21256e+20
-25.631  4.14982e+20
-25.5137  4.06247e+20
-25.3964  3.95743e+20
-25.2791  3.84352e+20
-25.1618  3.72996e+20
-25.0445  3.62406e+20
-24.9272  3.53091e+20
-24.8099  3.45526e+20
-24.6926  3.39803e+20
-24.5753  3.35969e+20
-24.458  3.34027e+20
-24.3407  3.33913e+20
-24.2234  3.35523e+20
-24.1061  3.38765e+20
-23.9888  3.43415e+20
-23.8715  3.49186e+20
-23.7542  3.55416e+20
-23.6369  3.61736e+20
-23.5196  3.67477e+20
-23.4023  3.72056e+20
-23.2849  3.75231e+20
-23.1676  3.76757e+20
-23.0503  3.76736e+20
-22.933  3.75373e+20
-22.8157  3.72986e+20
-22.6984  3.70039e+20
-22.5811  3.67003e+20
-22.4638  3.64341e+20
-22.3465  3.62582e+20
-22.2292  3.62291e+20
-22.1119  3.64013e+20
-21.9946  3.68353e+20
-21.8773  3.75796e+20
-21.76  3.86488e+20
-21.6427  4.00214e+20
-21.5254  4.165e+20
-21.4081  4.34124e+20
-21.2908  4.51848e+20
-21.1735  4.68206e+20
-21.0561  4.81879e+20
-20.9388  4.91806e+20
-20.8215  4.97812e+20
-20.7042  4.99725e+20
-20.5869  4.98213e+20
-20.4696  4.94376e+20
-20.3523  4.89271e+20
-20.235  4.83998e+20
-20.1177  4.7968e+20
-20.0004  4.76977e+20
-19.8831  4.76808e+20
-19.7658  4.79472e+20
-19.6485  4.85359e+20
-19.5312  4.94798e+20
-19.4139  5.07884e+20
-19.2966  5.24448e+20
-19.1793  5.44146e+20
-19.062  5.65968e+20
-18.9447  5.88803e+20
-18.8274  6.11064e+20
-18.71  6.31257e+20
-18.5927  6.47954e+20
-18.4754  6.60031e+20
-18.3581  6.67353e+20
-18.2408  6.69779e+20
-18.1235  6.68485e+20
-18.0062  6.64688e+20
-17.8889  6.60192e+20
-17.7716  6.56809e+20
-17.6543  6.55965e+20
-17.537  6.59193e+20
-17.4197  6.67427e+20
-17.3024  6.81405e+20
-17.1851  7.01467e+20
-17.0678  7.27827e+20
-16.9505  7.6035e+20
-16.8332  7.98939e+20
-16.7159  8.42846e+20
-16.5986  8.9157e+20
-16.4813  9.44088e+20
-16.364  9.9924e+20
-16.2466  1.05584e+21
-16.1293  1.11297e+21
-16.012  1.16941e+21
-15.8947  1.22464e+21
-15.7774  1.27831e+21
-15.6601  1.33031e+21
-15.5428  1.38108e+21
-15.4255  1.43137e+21
-15.3082  1.48177e+21
-15.1909  1.53347e+21
-15.0736  1.58707e+21
-14.9563  1.64375e+21
-14.839  1.70396e+21
-14.7217  1.7686e+21
-14.6044  1.83811e+21
-14.4871  1.91259e+21
-14.3698  1.99231e+21
-14.2525  2.07724e+21
-14.1352  2.167e+21
-14.0178  2.26126e+21
-13.9005  2.35961e+21
-13.7832  2.46156e+21
-13.6659  2.56685e+21
-13.5486  2.67483e+21
-13.4313  2.78576e+21
-13.314  2.89912e+21
-13.1967  3.01497e+21
-13.0794  3.13301e+21
-12.9621  3.25313e+21
-12.8448  3.37487e+21
-12.7275  3.49825e+21
-12.6102  3.62242e+21
-12.4929  3.74722e+21
-12.3756  3.87242e+21
-12.2583  3.99748e+21
-12.141  4.12278e+21
-12.0237  4.24813e+21
-11.9064  4.37427e+21
-11.7891  4.50152e+21
-11.6718  4.63138e+21
-11.5544  4.76453e+21
-11.4371  4.90249e+21
-11.3198  5.04685e+21
-11.2025  5.19904e+21
-11.0852  5.36041e+21
-10.9679  5.5324e+21
-10.8506  5.71571e+21
-10.7333  5.91092e+21
-10.616  6.11806e+21
-10.4987  6.3368e+21
-10.3814  6.56636e+21
-10.2641  6.80606e+21
-10.1468  7.05602e+21
-10.0295  7.31531e+21
-9.91217  7.58477e+21
-9.79487  7.86496e+21
-9.67756  8.15755e+21
-9.56026  8.46447e+21
-9.44295  8.78814e+21
-9.32565  9.13137e+21
-9.20834  9.49662e+21
-9.09104  9.88632e+21
-8.97373  1.03028e+22
-8.85643  1.07469e+22
-8.73913  1.122e+22
-8.62182  1.17211e+22
-8.50452  1.2249e+22
-8.38721  1.28018e+22
-8.26991  1.33765e+22
-8.1526  1.39702e+22
-8.03529  1.45801e+22
-7.91799  1.52032e+22
-7.80069  1.58382e+22
-7.68338  1.6484e+22
-7.56608  1.71414e+22
-7.44877  1.78129e+22
-7.33146  1.85012e+22
-7.21416  1.9211e+22
-7.09685  1.99469e+22
-6.97955  2.0714e+22
-6.86224  2.15164e+22
-6.74494  2.23574e+22
-6.62763  2.32392e+22
-6.51033  2.41616e+22
-6.39302  2.51225e+22
-6.27572  2.6118e+22
-6.15842  2.71422e+22
-6.04111  2.81875e+22
-5.92381  2.92464e+22
-5.8065  3.03101e+22
-5.68919  3.13702e+22
-5.57189  3.24212e+22
-5.45458  3.34574e+22
-5.33728  3.44771e+22
-5.21997  3.54802e+22
-5.10267  3.64692e+22
-4.98536  3.74489e+22
-4.86806  3.84248e+22
-4.75075  3.94035e+22
-4.63345  4.03916e+22
-4.51614  4.13946e+22
-4.39884  4.24163e+22
-4.28154  4.34578e+22
-4.16423  4.45199e+22
-4.04692  4.55976e+22
-3.92962  4.66856e+22
-3.81231  4.77758e+22
-3.69501  4.88577e+22
-3.5777  4.99215e+22
-3.4604  5.0956e+22
-3.34309  5.19512e+22
-3.22579  5.28989e+22
-3.10849  5.37944e+22
-2.99118  5.46338e+22
-2.87387  5.54185e+22
-2.75657  5.61517e+22
-2.63926  5.68386e+22
-2.52196  5.74859e+22
-2.40465  5.81013e+22
-2.28735  5.86914e+22
-2.17005  5.92617e+22
-2.05274  5.98162e+22
-1.93544  6.03557e+22
-1.81813  6.08801e+22
-1.70083  6.13866e+22
-1.58352  6.18719e+22
-1.46622  6.23301e+22
-1.34891  6.27557e+22
-1.2316  6.31441e+22
-1.1143  6.34906e+22
-0.996995  6.37926e+22
-0.87969  6.40487e+22
-0.762385  6.42591e+22
-0.64508  6.44269e+22
-0.527775  6.45558e+22
-0.41047  6.46509e+22
-0.293165  6.47172e+22
-0.17586  6.47602e+22
-0.058555  6.47835e+22
0.05875  6.47889e+22
0.176055  6.4776e+22
0.29336  6.47439e+22
0.410665  6.46875e+22
0.52797  6.46021e+22
0.645275  6.44823e+22
0.76258  6.43237e+22
0.879885  6.41215e+22
0.99719  6.38738e+22
1.1145  6.358e+22
1.2318  6.32414e+22
1.3491  6.2861e+22
1.46641  6.24438e+22
1.58371  6.19942e+22
1.70102  6.15179e+22
1.81832  6.10205e+22
1.93563  6.05054e+22
2.05294  5.99753e+22
2.17024  5.94309e+22
2.28754  5.88704e+22
2.40485  5.82896e+22
2.52216  5.76836e+22
2.63946  5.70446e+22
2.75677  5.63659e+22
2.87407  5.56404e+22
2.99137  5.48627e+22
3.10868  5.4029e+22
3.22599  5.31397e+22
3.34329  5.21973e+22
3.4606  5.1207e+22
3.5779  5.01774e+22
3.69521  4.91186e+22
3.81251  4.80411e+22
3.92982  4.69554e+22
4.04712  4.58723e+22
4.16443  4.47986e+22
4.28173  4.37411e+22
4.39903  4.27028e+22
4.51634  4.16846e+22
4.63364  4.06842e+22
4.75095  3.96983e+22
4.86825  3.87208e+22
4.98556  3.77455e+22
5.10286  3.67659e+22
5.22017  3.57753e+22
5.33748  3.47701e+22
5.45478  3.37477e+22
5.57209  3.27079e+22
5.68939  3.16535e+22
5.8067  3.05885e+22
5.924  2.95203e+22
6.0413  2.84568e+22
6.15861  2.74066e+22
6.27591  2.63772e+22
6.39322  2.53771e+22
6.51052  2.44113e+22
6.62783  2.3484e+22
6.74514  2.2597e+22
6.86244  2.17505e+22
6.97975  2.09425e+22
7.09705  2.01698e+22
7.21436  1.94276e+22
7.33166  1.87112e+22
7.44897  1.80162e+22
7.56627  1.73378e+22
7.68358  1.6673e+22
7.80088  1.60197e+22
7.91819  1.53774e+22
8.03549  1.4747e+22
8.1528  1.41298e+22
8.2701  1.35287e+22
8.38741  1.29471e+22
8.50471  1.23873e+22
8.62202  1.18535e+22
8.73932  1.13463e+22
8.85662  1.08675e+22
8.97393  1.04175e+22
9.09123  9.9962e+21
9.20854  9.60123e+21
9.32584  9.23098e+21
9.44315  8.88323e+21
9.56045  8.55491e+21
9.67776  8.24336e+21
9.79506  7.94649e+21
9.91237  7.66218e+21
10.0297  7.3889e+21
10.147  7.1257e+21
10.2643  6.87231e+21
10.3816  6.62916e+21
10.4989  6.39644e+21
10.6162  6.17508e+21
10.7335  5.96556e+21
10.8508  5.76808e+21
10.9681  5.58275e+21
11.0854  5.4089e+21
11.2027  5.24583e+21
11.32  5.09188e+21
11.4373  4.94606e+21
11.5546  4.80653e+21
11.6719  4.67197e+21
11.7893  4.54084e+21
11.9066  4.41208e+21
12.0239  4.28471e+21
12.1412  4.15809e+21
12.2585  4.03171e+21
12.3758  3.90538e+21
12.4931  3.77912e+21
12.6104  3.65329e+21
12.7277  3.52809e+21
12.845  3.40396e+21
12.9623  3.28124e+21
13.0796  3.16028e+21
13.1969  3.04146e+21
13.3142  2.9249e+21
13.4315  2.81083e+21
13.5488  2.6992e+21
13.6661  2.5904e+21
13.7834  2.48454e+21
13.9007  2.38187e+21
14.018  2.28285e+21
14.1354  2.18798e+21
14.2527  2.09772e+21
14.37  2.01223e+21
14.4873  1.93196e+21
14.6046  1.85713e+21
14.7219  1.78725e+21
14.8392  1.72218e+21
14.9565  1.66158e+21
15.0738  1.60461e+21
15.1911  1.55054e+21
15.3084  1.49853e+21
15.4257  1.44768e+21
15.543  1.39687e+21
15.6603  1.34546e+21
15.7776  1.29285e+21
15.8949  1.2386e+21
16.0122  1.18257e+21
16.1295  1.12542e+21
16.2468  1.06765e+21
16.3641  1.01033e+21
16.4815  9.54526e+20
16.5988  9.01444e+20
16.7161  8.5224e+20
16.8334  8.07805e+20
16.9507  7.68885e+20
17.068  7.35925e+20
17.1853  7.09212e+20
17.3026  6.88799e+20
17.4199  6.74526e+20
17.5372  6.66114e+20
17.6545  6.62526e+20
17.7718  6.62978e+20
17.8891  6.66155e+20
18.0064  6.7021e+20
18.1237  6.73428e+20
18.241  6.74311e+20
18.3583  6.71305e+20
18.4756  6.63597e+20
18.5929  6.50955e+20
18.7102  6.33962e+20
18.8275  6.13308e+20
18.9449  5.90764e+20
19.0622  5.67696e+20
19.1795  5.45658e+20
19.2968  5.26009e+20
19.4141  5.09391e+20
19.5314  4.96343e+20
19.6487  4.8701e+20
19.766  4.81174e+20
19.8833  4.78659e+20
20.0006  4.78976e+20
20.1179  4.81679e+20
20.2352  4.86069e+20
20.3525  4.91358e+20
20.4698  4.96559e+20
20.5871  5.00425e+20
20.7044  5.01737e+20
20.8217  4.99784e+20
20.939  4.93783e+20
21.0563  4.83622e+20
21.1736  4.69902e+20
21.291  4.53588e+20
21.4083  4.3587e+20
21.5256  4.18341e+20
21.6429  4.02264e+20
21.7602  3.88659e+20
21.8775  3.78161e+20
21.9948  3.70901e+20
22.1121  3.66692e+20
22.2294  3.65135e+20
22.3467  3.65548e+20
22.464  3.67381e+20
22.5813  3.70136e+20
22.6986  3.73223e+20
22.8159  3.76075e+20
22.9332  3.78445e+20
23.0505  3.7976e+20
23.1678  3.79693e+20
23.2851  3.78096e+20
23.4024  3.74814e+20
23.5198  3.70081e+20
23.6371  3.64271e+20
23.7544  3.5788e+20
23.8717  3.51501e+20
23.989  3.45708e+20
24.1063  3.41063e+20
24.2236  3.3777e+20
24.3409  3.36102e+20
24.4582  3.36279e+20
24.5755  3.38178e+20
24.6928  3.42011e+20
24.8101  3.4772e+20
24.9274  3.55273e+20
25.0447  3.64493e+20
25.162  3.75046e+20
25.2793  3.86346e+20
25.3966  3.97583e+20
25.5139  4.08008e+20
25.6312  4.16636e+20
25.7485  4.22689e+20
25.8658  4.25795e+20
25.9832  4.25824e+20
26.1005  4.22985e+20
26.2178  4.17723e+20
26.3351  4.10816e+20
26.4524  4.02917e+20
26.5697  3.94754e+20
26.687  3.86905e+20
26.8043  3.79972e+20
26.9216  3.74414e+20
27.0389  3.70581e+20
27.1562  3.68692e+20
27.2735  3.69128e+20
27.3908  3.71919e+20
27.5081  3.76829e+20
27.6254  3.83579e+20
27.7427  3.91528e+20
27.86  3.99531e+20
27.9773  4.06743e+20
28.0946  4.11863e+20
28.212  4.13976e+20
28.3293  4.1244e+20
28.4466  4.06795e+20
28.5639  3.97041e+20
28.6812  3.83595e+20
28.7985  3.67096e+20
28.9158  3.48218e+20
29.0331  3.27964e+20
29.1504  3.07298e+20
29.2677  2.86832e+20
29.385  2.6749e+20
29.5023  2.49711e+20
29.6196  2.33977e+20
29.7369  2.2052e+20
29.8542  2.09432e+20
29.9715  2.00608e+20
30.0888  1.93724e+20
30.2061  1.88338e+20
30.3234  1.8391e+20
30.4407  1.7983e+20
30.558  1.75579e+20
30.6754  1.70652e+20
30.7927  1.64767e+20
30.91  1.57674e+20
31.0273  1.4943e+20
31.1446  1.40121e+20
31.2619  1.30049e+20
31.3792  1.19535e+20
31.4965  1.09112e+20
31.6138  9.92361e+19
31.7311  9.03859e+19
31.8484  8.30042e+19
31.9657  7.74363e+19
32.083  7.38418e+19
32.2003  7.21918e+19
32.3176  7.23054e+19
32.4349  7.38196e+19
32.5522  7.62556e+19
32.6695  7.91206e+19
32.7868  8.1998e+19
32.9042  8.45391e+19
33.0215  8.65543e+19
33.1388  8.80382e+19
33.2561  8.90766e+19
33.3734  8.98811e+19
33.4907  9.06431e+19
33.608  9.16404e+19
33.7253  9.31682e+19
33.8426  9.53342e+19
33.9599  9.84128e+19
34.0772  1.02517e+20
34.1945  1.07744e+20
34.3118  1.1413e+20
34.4291  1.21588e+20
34.5464  1.29946e+20
34.6637  1.38832e+20
34.781  1.47928e+20
34.8983  1.56577e+20
35.0156  1.64399e+20
35.1329  1.70946e+20
35.2503  1.75869e+20
35.3676  1.79036e+20
35.4849  1.80388e+20
35.6022  1.80109e+20
35.7195  1.78454e+20
35.8368  1.75666e+20
35.9541  1.72095e+20
36.0714  1.68048e+20
36.1887  1.63846e+20
36.306  1.59818e+20
36.4233  1.56257e+20
36.5406  1.53425e+20
36.6579  1.51489e+20
36.7752  1.50525e+20
36.8925  1.50541e+20
37.0098  1.51285e+20
37.1271  1.52473e+20
37.2444  1.53733e+20
37.3617  1.54674e+20
37.479  1.55035e+20
37.5964  1.54588e+20
37.7137  1.53216e+20
37.831  1.51064e+20
37.9483  1.48232e+20
38.0656  1.44832e+20
38.1829  1.41027e+20
38.3002  1.36868e+20
38.4175  1.32401e+20
38.5348  1.27589e+20
38.6521  1.22527e+20
38.7694  1.17389e+20
38.8867  1.12407e+20
39.004  1.07959e+20
39.1213  1.04413e+20
39.2386  1.02099e+20
39.3559  1.01164e+20
39.4732  1.01586e+20
39.5905  1.02996e+20
39.7078  1.04935e+20
39.8251  1.06875e+20
39.9425  1.08167e+20
40.0598  1.08451e+20
40.1771  1.07583e+20
40.2944  1.05613e+20
40.4117  1.02806e+20
40.529  9.96902e+19
40.6463  9.67379e+19
40.7636  9.44597e+19
40.8809  9.32544e+19
40.9982  9.34578e+19
41.1155  9.52241e+19
41.2328  9.86996e+19
41.3501  1.03844e+20
41.4674  1.10581e+20
41.5847  1.18738e+20
41.702  1.27922e+20
41.8193  1.37608e+20
41.9366  1.47049e+20
42.0539  1.55394e+20
42.1712  1.61766e+20
42.2885  1.6535e+20
42.4059  1.65577e+20
42.5232  1.62197e+20
42.6405  1.55415e+20
42.7578  1.45698e+20
42.8751  1.3384e+20
42.9924  1.20844e+20
43.1097  1.07627e+20
43.227  9.50469e+19
43.3443  8.37485e+19
43.4616  7.41176e+19
43.5789  6.63889e+19
43.6962  6.06584e+19
43.8135  5.6909e+19
43.9308  5.50733e+19
44.0481  5.51044e+19
44.1654  5.67967e+19
44.2827  5.99442e+19
44.4  6.41323e+19
44.5173  6.88288e+19
44.6347  7.34215e+19
44.752  7.72439e+19
44.8693  7.97607e+19
44.9866  8.05739e+19
45.1039  7.94766e+19
45.2212  7.66758e+19
45.3385  7.25524e+19
45.4558  6.7652e+19
45.5731  6.26591e+19
45.6904  5.82498e+19
45.8077  5.50276e+19
45.925  5.3493e+19
46.0423  5.39504e+19
46.1596  5.65943e+19
46.2769  6.13751e+19
46.3942  6.81633e+19
46.5115  7.66035e+19
46.6288  8.62572e+19
46.7461  9.65074e+19
46.8634  1.0667e+20
46.9808  1.16067e+20
47.0981  1.24157e+20
47.2154  1.30401e+20
47.3327  1.34648e+20
47.45  1.36954e+20
47.5673  1.37533e+20
47.6846  1.36933e+20
47.8019  1.35704e+20
47.9192  1.3443e+20
48.0365  1.33753e+20
48.1538  1.34038e+20
48.2711  1.35616e+20
48.3884  1.38594e+20
48.5057  1.4302e+20
48.623  1.48641e+20
48.7403  1.55189e+20
48.8576  1.62229e+20
48.9749  1.69254e+20
49.0922  1.75491e+20
49.2095  1.80202e+20
49.3269  1.82721e+20
49.4442  1.8233e+20
49.5615  1.78636e+20
49.6788  1.71494e+20
49.7961  1.61159e+20
49.9134  1.4811e+20
50.0307  1.33168e+20
50.148  1.17253e+20
50.2653  1.01357e+20
50.3826  8.63523e+19
50.4999  7.28403e+19
50.6172  6.12974e+19
50.7345  5.18912e+19
50.8518  4.45901e+19
