#S 1 spectral density
#N 2
#UFWHM 23.6956
#L  abscissas [um]  spectral density
-58.5938  1.88299e+20
-58.4764  1.97165e+20
-58.3591  2.05826e+20
-58.2418  2.13738e+20
-58.1245  2.20278e+20
-58.0072  2.25074e+20
-57.8899  2.2764e+20
-57.7726  2.27854e+20
-57.6553  2.25924e+20
-57.538  2.22311e+20
-57.4207  2.17566e+20
-57.3034  2.12415e+20
-57.1861  2.07491e+20
-57.0688  2.03407e+20
-56.9515  2.00392e+20
-56.8342  1.98577e+20
-56.7169  1.98008e+20
-56.5996  1.98401e+20
-56.4823  1.99678e+20
-56.365  2.01653e+20
-56.2477  2.04174e+20
-56.1303  2.07107e+20
-56.013  2.10373e+20
-55.8957  2.13778e+20
-55.7784  2.16957e+20
-55.6611  2.19652e+20
-55.5438  2.21475e+20
-55.4265  2.2203e+20
-55.3092  2.21056e+20
-55.1919  2.18548e+20
-55.0746  2.14618e+20
-54.9573  2.09613e+20
-54.84  2.03979e+20
-54.7227  1.98375e+20
-54.6054  1.93304e+20
-54.4881  1.89306e+20
-54.3708  1.86794e+20
-54.2535  1.8587e+20
-54.1362  1.86633e+20
-54.0189  1.88933e+20
-53.9016  1.92463e+20
-53.7842  1.96859e+20
-53.6669  2.01845e+20
-53.5496  2.0702e+20
-53.4323  2.12085e+20
-53.315  2.1692e+20
-53.1977  2.21368e+20
-53.0804  2.25322e+20
-52.9631  2.28958e+20
-52.8458  2.32368e+20
-52.7285  2.35576e+20
-52.6112  2.38683e+20
-52.4939  2.41778e+20
-52.3766  2.44897e+20
-52.2593  2.47965e+20
-52.142  2.50978e+20
-52.0247  2.54051e+20
-51.9074  2.57043e+20
-51.7901  2.60041e+20
-51.6728  2.62867e+20
-51.5555  2.65353e+20
-51.4381  2.67282e+20
-51.3208  2.68286e+20
-51.2035  2.68013e+20
-51.0862  2.66087e+20
-50.9689  2.62443e+20
-50.8516  2.57094e+20
-50.7343  2.50212e+20
-50.617  2.42292e+20
-50.4997  2.33987e+20
-50.3824  2.25948e+20
-50.2651  2.18891e+20
-50.1478  2.13165e+20
-50.0305  2.09304e+20
-49.9132  2.0729e+20
-49.7959  2.07156e+20
-49.6786  2.08833e+20
-49.5613  2.12091e+20
-49.444  2.1676e+20
-49.3267  2.22722e+20
-49.2094  2.29785e+20
-49.092  2.37679e+20
-48.9747  2.46266e+20
-48.8574  2.55182e+20
-48.7401  2.64121e+20
-48.6228  2.72746e+20
-48.5055  2.80864e+20
-48.3882  2.88221e+20
-48.2709  2.94923e+20
-48.1536  3.01071e+20
-48.0363  3.06776e+20
-47.919  3.12267e+20
-47.8017  3.17693e+20
-47.6844  3.23059e+20
-47.5671  3.28191e+20
-47.4498  3.32942e+20
-47.3325  3.37114e+20
-47.2152  3.40432e+20
-47.0979  3.4281e+20
-46.9806  3.44222e+20
-46.8633  3.44665e+20
-46.7459  3.44433e+20
-46.6286  3.43577e+20
-46.5113  3.42397e+20
-46.394  3.41018e+20
-46.2767  3.39692e+20
-46.1594  3.38611e+20
-46.0421  3.37689e+20
-45.9248  3.37234e+20
-45.8075  3.37183e+20
-45.6902  3.37489e+20
-45.5729  3.38154e+20
-45.4556  3.38776e+20
-45.3383  3.39271e+20
-45.221  3.39208e+20
-45.1037  3.38405e+20
-44.9864  3.36813e+20
-44.8691  3.34486e+20
-44.7518  3.31658e+20
-44.6345  3.2885e+20
-44.5172  3.26488e+20
-44.3998  3.24949e+20
-44.2825  3.2469e+20
-44.1652  3.25789e+20
-44.0479  3.28176e+20
-43.9306  3.31586e+20
-43.8133  3.359e+20
-43.696  3.40712e+20
-43.5787  3.45841e+20
-43.4614  3.51179e+20
-43.3441  3.56606e+20
-43.2268  3.62039e+20
-43.1095  3.67232e+20
-42.9922  3.7189e+20
-42.8749  3.75451e+20
-42.7576  3.77436e+20
-42.6403  3.77334e+20
-42.523  3.7471e+20
-42.4057  3.69549e+20
-42.2884  3.62172e+20
-42.171  3.53107e+20
-42.0537  3.43352e+20
-41.9364  3.33809e+20
-41.8191  3.25618e+20
-41.7018  3.19661e+20
-41.5845  3.16604e+20
-41.4672  3.16956e+20
-41.3499  3.20673e+20
-41.2326  3.27909e+20
-41.1153  3.3833e+20
-40.998  3.51532e+20
-40.8807  3.67018e+20
-40.7634  3.84045e+20
-40.6461  4.0176e+20
-40.5288  4.19128e+20
-40.4115  4.35037e+20
-40.2942  4.4828e+20
-40.1769  4.57964e+20
-40.0596  4.63309e+20
-39.9423  4.64044e+20
-39.825  4.60322e+20
-39.7076  4.52699e+20
-39.5903  4.42298e+20
-39.473  4.30269e+20
-39.3557  4.17812e+20
-39.2384  4.06068e+20
-39.1211  3.96165e+20
-39.0038  3.88677e+20
-38.8865  3.84018e+20
-38.7692  3.82541e+20
-38.6519  3.84267e+20
-38.5346  3.89207e+20
-38.4173  3.97146e+20
-38.3  4.07904e+20
-38.1827  4.20995e+20
-38.0654  4.35852e+20
-37.9481  4.51729e+20
-37.8308  4.67623e+20
-37.7135  4.82671e+20
-37.5962  4.96014e+20
-37.4789  5.06887e+20
-37.3615  5.14894e+20
-37.2442  5.19808e+20
-37.1269  5.2192e+20
-37.0096  5.21556e+20
-36.8923  5.19315e+20
-36.775  5.15862e+20
-36.6577  5.11759e+20
-36.5404  5.07737e+20
-36.4231  5.04227e+20
-36.3058  5.01703e+20
-36.1885  5.00501e+20
-36.0712  5.01009e+20
-35.9539  5.03363e+20
-35.8366  5.07712e+20
-35.7193  5.14043e+20
-35.602  5.22082e+20
-35.4847  5.31644e+20
-35.3674  5.42271e+20
-35.2501  5.53495e+20
-35.1328  5.64884e+20
-35.0154  5.76011e+20
-34.8981  5.86647e+20
-34.7808  5.96676e+20
-34.6635  6.0585e+20
-34.5462  6.14299e+20
-34.4289  6.22093e+20
-34.3116  6.29299e+20
-34.1943  6.35903e+20
-34.077  6.42302e+20
-33.9597  6.48578e+20
-33.8424  6.55081e+20
-33.7251  6.62017e+20
-33.6078  6.69795e+20
-33.4905  6.78594e+20
-33.3732  6.88567e+20
-33.2559  6.99735e+20
-33.1386  7.11932e+20
-33.0213  7.24892e+20
-32.904  7.38254e+20
-32.7867  7.51667e+20
-32.6693  7.64768e+20
-32.552  7.77218e+20
-32.4347  7.89007e+20
-32.3174  7.99888e+20
-32.2001  8.09984e+20
-32.0828  8.19225e+20
-31.9655  8.27651e+20
-31.8482  8.35204e+20
-31.7309  8.41968e+20
-31.6136  8.47876e+20
-31.4963  8.52911e+20
-31.379  8.57263e+20
-31.2617  8.60991e+20
-31.1444  8.64316e+20
-31.0271  8.67375e+20
-30.9098  8.70288e+20
-30.7925  8.73201e+20
-30.6752  8.762e+20
-30.5579  8.79227e+20
-30.4406  8.82245e+20
-30.3232  8.8519e+20
-30.2059  8.87753e+20
-30.0886  8.89996e+20
-29.9713  8.91459e+20
-29.854  8.92115e+20
-29.7367  8.91726e+20
-29.6194  8.90317e+20
-29.5021  8.87751e+20
-29.3848  8.84593e+20
-29.2675  8.81072e+20
-29.1502  8.78013e+20
-29.0329  8.75947e+20
-28.9156  8.75838e+20
-28.7983  8.78225e+20
-28.681  8.83754e+20
-28.5637  8.92829e+20
-28.4464  9.05613e+20
-28.3291  9.22075e+20
-28.2118  9.41987e+20
-28.0944  9.64985e+20
-27.9771  9.90561e+20
-27.8598  1.01786e+21
-27.7425  1.04608e+21
-27.6252  1.07389e+21
-27.5079  1.10017e+21
-27.3906  1.12346e+21
-27.2733  1.14248e+21
-27.156  1.15599e+21
-27.0387  1.16352e+21
-26.9214  1.1648e+21
-26.8041  1.16029e+21
-26.6868  1.15098e+21
-26.5695  1.13848e+21
-26.4522  1.12452e+21
-26.3349  1.1109e+21
-26.2176  1.09943e+21
-26.1003  1.09152e+21
-25.983  1.08844e+21
-25.8657  1.09108e+21
-25.7483  1.09994e+21
-25.631  1.11544e+21
-25.5137  1.13727e+21
-25.3964  1.16543e+21
-25.2791  1.19907e+21
-25.1618  1.23726e+21
-25.0445  1.27857e+21
-24.9272  1.32147e+21
-24.8099  1.36409e+21
-24.6926  1.40499e+21
-24.5753  1.44261e+21
-24.458  1.47619e+21
-24.3407  1.50513e+21
-24.2234  1.5297e+21
-24.1061  1.55028e+21
-23.9888  1.56787e+21
-23.8715  1.5836e+21
-23.7542  1.59863e+21
-23.6369  1.61408e+21
-23.5196  1.63103e+21
-23.4023  1.65045e+21
-23.2849  1.6732e+21
-23.1676  1.69977e+21
-23.0503  1.73054e+21
-22.933  1.76563e+21
-22.8157  1.8047e+21
-22.6984  1.84723e+21
-22.5811  1.8924e+21
-22.4638  1.93914e+21
-22.3465  1.98687e+21
-22.2292  2.03471e+21
-22.1119  2.08252e+21
-21.9946  2.13033e+21
-21.8773  2.17899e+21
-21.76  2.22916e+21
-21.6427  2.28184e+21
-21.5254  2.3381e+21
-21.4081  2.39851e+21
-21.2908  2.46375e+21
-21.1735  2.53445e+21
-21.0561  2.61067e+21
-20.9388  2.69293e+21
-20.8215  2.78128e+21
-20.7042  2.87597e+21
-20.5869  2.97701e+21
-20.4696  3.08407e+21
-20.3523  3.19646e+21
-20.235  3.31309e+21
-20.1177  3.43239e+21
-20.0004  3.55282e+21
-19.8831  3.67272e+21
-19.7658  3.79097e+21
-19.6485  3.90691e+21
-19.5312  4.02048e+21
-19.4139  4.1325e+21
-19.2966  4.24402e+21
-19.1793  4.35666e+21
-19.062  4.47191e+21
-18.9447  4.59105e+21
-18.8274  4.71517e+21
-18.71  4.84509e+21
-18.5927  4.98114e+21
-18.4754  5.12345e+21
-18.3581  5.27206e+21
-18.2408  5.42717e+21
-18.1235  5.58807e+21
-18.0062  5.7547e+21
-17.8889  5.92627e+21
-17.7716  6.10167e+21
-17.6543  6.27983e+21
-17.537  6.45887e+21
-17.4197  6.63723e+21
-17.3024  6.81331e+21
-17.1851  6.98641e+21
-17.0678  7.15555e+21
-16.9505  7.32112e+21
-16.8332  7.48399e+21
-16.7159  7.64509e+21
-16.5986  7.80629e+21
-16.4813  7.96991e+21
-16.364  8.13738e+21
-16.2466  8.31114e+21
-16.1293  8.49296e+21
-16.012  8.68408e+21
-15.8947  8.88584e+21
-15.7774  9.09907e+21
-15.6601  9.32388e+21
-15.5428  9.56017e+21
-15.4255  9.8069e+21
-15.3082  1.00626e+22
-15.1909  1.03255e+22
-15.0736  1.05928e+22
-14.9563  1.08622e+22
-14.839  1.11305e+22
-14.7217  1.13957e+22
-14.6044  1.16549e+22
-14.4871  1.19068e+22
-14.3698  1.21498e+22
-14.2525  1.23832e+22
-14.1352  1.2607e+22
-14.0178  1.2822e+22
-13.9005  1.30293e+22
-13.7832  1.32304e+22
-13.6659  1.34273e+22
-13.5486  1.36228e+22
-13.4313  1.38184e+22
-13.314  1.40172e+22
-13.1967  1.4221e+22
-13.0794  1.44317e+22
-12.9621  1.46509e+22
-12.8448  1.48794e+22
-12.7275  1.51177e+22
-12.6102  1.53658e+22
-12.4929  1.56241e+22
-12.3756  1.58915e+22
-12.2583  1.61678e+22
-12.141  1.64525e+22
-12.0237  1.67443e+22
-11.9064  1.70427e+22
-11.7891  1.73468e+22
-11.6718  1.76552e+22
-11.5544  1.79671e+22
-11.4371  1.82815e+22
-11.3198  1.85968e+22
-11.2025  1.89118e+22
-11.0852  1.92254e+22
-10.9679  1.95359e+22
-10.8506  1.98418e+22
-10.7333  2.01415e+22
-10.616  2.04332e+22
-10.4987  2.07153e+22
-10.3814  2.09864e+22
-10.2641  2.12455e+22
-10.1468  2.14917e+22
-10.0295  2.17256e+22
-9.91217  2.19473e+22
-9.79487  2.21588e+22
-9.67756  2.23617e+22
-9.56026  2.25584e+22
-9.44295  2.27517e+22
-9.32565  2.29445e+22
-9.20834  2.31394e+22
-9.09104  2.33387e+22
-8.97373  2.35445e+22
-8.85643  2.37587e+22
-8.73913  2.39815e+22
-8.62182  2.42137e+22
-8.50452  2.44549e+22
-8.38721  2.47039e+22
-8.26991  2.49594e+22
-8.1526  2.52195e+22
-8.03529  2.54815e+22
-7.91799  2.57436e+22
-7.80069  2.60041e+22
-7.68338  2.62607e+22
-7.56608  2.65127e+22
-7.44877  2.67596e+22
-7.33146  2.70011e+22
-7.21416  2.72375e+22
-7.09685  2.74699e+22
-6.97955  2.76988e+22
-6.86224  2.79249e+22
-6.74494  2.81498e+22
-6.62763  2.83732e+22
-6.51033  2.85961e+22
-6.39302  2.88181e+22
-6.27572  2.90389e+22
-6.15842  2.92575e+22
-6.04111  2.94731e+22
-5.92381  2.96837e+22
-5.8065  2.98882e+22
-5.68919  3.00848e+22
-5.57189  3.02723e+22
-5.45458  3.045e+22
-5.33728  3.06176e+22
-5.21997  3.0775e+22
-5.10267  3.09236e+22
-4.98536  3.10641e+22
-4.86806  3.1198e+22
-4.75075  3.13269e+22
-4.63345  3.14524e+22
-4.51614  3.15758e+22
-4.39884  3.16987e+22
-4.28154  3.1822e+22
-4.16423  3.19474e+22
-4.04692  3.20747e+22
-3.92962  3.22048e+22
-3.81231  3.23376e+22
-3.69501  3.24727e+22
-3.5777  3.26086e+22
-3.4604  3.27443e+22
-3.34309  3.28776e+22
-3.22579  3.30066e+22
-3.10849  3.313e+22
-2.99118  3.32461e+22
-2.87387  3.33543e+22
-2.75657  3.34547e+22
-2.63926  3.35471e+22
-2.52196  3.36323e+22
-2.40465  3.3711e+22
-2.28735  3.37838e+22
-2.17005  3.38509e+22
-2.05274  3.39131e+22
-1.93544  3.397e+22
-1.81813  3.40222e+22
-1.70083  3.40697e+22
-1.58352  3.41131e+22
-1.46622  3.41522e+22
-1.34891  3.41879e+22
-1.2316  3.42201e+22
-1.1143  3.4249e+22
-0.996995  3.42741e+22
-0.87969  3.42959e+22
-0.762385  3.43136e+22
-0.64508  3.43275e+22
-0.527775  3.43376e+22
-0.41047  3.43449e+22
-0.293165  3.43496e+22
-0.17586  3.43528e+22
-0.058555  3.43552e+22
0.05875  3.4357e+22
0.176055  3.43581e+22
0.29336  3.43583e+22
0.410665  3.43566e+22
0.52797  3.43526e+22
0.645275  3.43451e+22
0.76258  3.43337e+22
0.879885  3.43182e+22
0.99719  3.42987e+22
1.1145  3.42753e+22
1.2318  3.42483e+22
1.3491  3.42181e+22
1.46641  3.41844e+22
1.58371  3.41472e+22
1.70102  3.41063e+22
1.81832  3.40611e+22
1.93563  3.40116e+22
2.05294  3.39575e+22
2.17024  3.38986e+22
2.28754  3.38345e+22
2.40485  3.37651e+22
2.52216  3.36898e+22
2.63946  3.36078e+22
2.75677  3.35184e+22
2.87407  3.34211e+22
2.99137  3.33154e+22
3.10868  3.32017e+22
3.22599  3.30805e+22
3.34329  3.29536e+22
3.4606  3.28222e+22
3.5779  3.26885e+22
3.69521  3.25541e+22
3.81251  3.24209e+22
3.92982  3.229e+22
4.04712  3.21618e+22
4.16443  3.20367e+22
4.28173  3.19139e+22
4.39903  3.1793e+22
4.51634  3.16728e+22
4.63364  3.15522e+22
4.75095  3.14297e+22
4.86825  3.13036e+22
4.98556  3.11726e+22
5.10286  3.1035e+22
5.22017  3.08891e+22
5.33748  3.07341e+22
5.45478  3.05691e+22
5.57209  3.03935e+22
5.68939  3.0208e+22
5.8067  3.00132e+22
5.924  2.98104e+22
6.0413  2.96015e+22
6.15861  2.93877e+22
6.27591  2.91705e+22
6.39322  2.89516e+22
6.51052  2.87314e+22
6.62783  2.85103e+22
6.74514  2.82887e+22
6.86244  2.80664e+22
6.97975  2.7842e+22
7.09705  2.76153e+22
7.21436  2.73852e+22
7.33166  2.71505e+22
7.44897  2.69109e+22
7.56627  2.6666e+22
7.68358  2.64154e+22
7.80088  2.61602e+22
7.91819  2.59011e+22
8.03549  2.56401e+22
8.1528  2.53791e+22
8.2701  2.51202e+22
8.38741  2.48657e+22
8.50471  2.46176e+22
8.62202  2.43776e+22
8.73932  2.41463e+22
8.85662  2.39249e+22
8.97393  2.37122e+22
9.09123  2.35077e+22
9.20854  2.33099e+22
9.32584  2.31167e+22
9.44315  2.29252e+22
9.56045  2.27332e+22
9.67776  2.25377e+22
9.79506  2.23361e+22
9.91237  2.21252e+22
10.0297  2.19042e+22
10.147  2.1671e+22
10.2643  2.14248e+22
10.3816  2.11658e+22
10.4989  2.08944e+22
10.6162  2.06117e+22
10.7335  2.03197e+22
10.8508  2.00195e+22
10.9681  1.97128e+22
11.0854  1.94018e+22
11.2027  1.90877e+22
11.32  1.87721e+22
11.4373  1.84564e+22
11.5546  1.81421e+22
11.6719  1.78299e+22
11.7893  1.75213e+22
11.9066  1.72174e+22
12.0239  1.69187e+22
12.1412  1.66268e+22
12.2585  1.63423e+22
12.3758  1.60658e+22
12.4931  1.5798e+22
12.6104  1.55395e+22
12.7277  1.52909e+22
12.845  1.50522e+22
12.9623  1.48231e+22
13.0796  1.46033e+22
13.1969  1.43919e+22
13.3142  1.41873e+22
13.4315  1.39877e+22
13.5488  1.37913e+22
13.6661  1.35951e+22
13.7834  1.33972e+22
13.9007  1.31951e+22
14.018  1.29869e+22
14.1354  1.27707e+22
14.2527  1.25454e+22
14.37  1.23107e+22
14.4873  1.20664e+22
14.6046  1.18127e+22
14.7219  1.15518e+22
14.8392  1.1285e+22
14.9565  1.10148e+22
15.0738  1.07435e+22
15.1911  1.04742e+22
15.3084  1.02094e+22
15.4257  9.95183e+21
15.543  9.70336e+21
15.6603  9.46521e+21
15.7776  9.23881e+21
15.8949  9.02396e+21
16.0122  8.82063e+21
16.1295  8.62792e+21
16.2468  8.44488e+21
16.3641  8.26968e+21
16.4815  8.10052e+21
16.5988  7.93563e+21
16.7161  7.77245e+21
16.8334  7.60951e+21
16.9507  7.44488e+21
17.068  7.27721e+21
17.1853  7.10563e+21
17.3026  6.93024e+21
17.4199  6.75161e+21
17.5372  6.57081e+21
17.6545  6.38919e+21
17.7718  6.20866e+21
17.8891  6.03083e+21
18.0064  5.85687e+21
18.1237  5.68793e+21
18.241  5.5249e+21
18.3583  5.36785e+21
18.4756  5.21721e+21
18.5929  5.07302e+21
18.7102  4.93523e+21
18.8275  4.80355e+21
18.9449  4.67762e+21
19.0622  4.55675e+21
19.1795  4.43986e+21
19.2968  4.32519e+21
19.4141  4.21165e+21
19.5314  4.09757e+21
19.6487  3.98182e+21
19.766  3.86356e+21
19.8833  3.74303e+21
20.0006  3.62072e+21
20.1179  3.49804e+21
20.2352  3.3765e+21
20.3525  3.2577e+21
20.4698  3.14331e+21
20.5871  3.03424e+21
20.7044  2.9314e+21
20.8217  2.83485e+21
20.939  2.74483e+21
21.0563  2.66105e+21
21.1736  2.58322e+21
21.291  2.51122e+21
21.4083  2.44436e+21
21.5256  2.38257e+21
21.6429  2.32501e+21
21.7602  2.27096e+21
21.8775  2.21934e+21
21.9948  2.16936e+21
22.1121  2.11997e+21
22.2294  2.07078e+21
22.3467  2.02148e+21
22.464  1.97251e+21
22.5813  1.92437e+21
22.6986  1.87802e+21
22.8159  1.83434e+21
22.9332  1.79418e+21
23.0505  1.75808e+21
23.1678  1.72634e+21
23.2851  1.69889e+21
23.4024  1.67528e+21
23.5198  1.65495e+21
23.6371  1.6371e+21
23.7544  1.62077e+21
23.8717  1.60492e+21
23.989  1.58818e+21
24.1063  1.5696e+21
24.2236  1.54795e+21
24.3409  1.52245e+21
24.4582  1.49239e+21
24.5755  1.45786e+21
24.6928  1.4192e+21
24.8101  1.37738e+21
24.9274  1.33387e+21
25.0447  1.29023e+21
25.162  1.24827e+21
25.2793  1.20953e+21
25.3966  1.17549e+21
25.5139  1.14695e+21
25.6312  1.1247e+21
25.7485  1.10903e+21
25.8658  1.09988e+21
25.9832  1.09713e+21
26.1005  1.09996e+21
26.2178  1.10768e+21
26.3351  1.11895e+21
26.4524  1.13236e+21
26.5697  1.14602e+21
26.687  1.1583e+21
26.8043  1.1671e+21
26.9216  1.17118e+21
27.0389  1.16945e+21
27.1562  1.16159e+21
27.2735  1.14754e+21
27.3908  1.12823e+21
27.5081  1.1046e+21
27.6254  1.07801e+21
27.7427  1.04989e+21
27.86  1.02157e+21
27.9773  9.94171e+20
28.0946  9.68543e+20
28.212  9.45462e+20
28.3293  9.25581e+20
28.4466  9.09157e+20
28.5639  8.96479e+20
28.6812  8.87449e+20
28.7985  8.81981e+20
28.9158  8.79644e+20
29.0331  8.7992e+20
29.1504  8.82001e+20
29.2677  8.8522e+20
29.385  8.88755e+20
29.5023  8.9197e+20
29.6196  8.94459e+20
29.7369  8.95962e+20
29.8542  8.96367e+20
29.9715  8.9575e+20
30.0888  8.94338e+20
30.2061  8.92206e+20
30.3234  8.89599e+20
30.4407  8.86732e+20
30.558  8.83734e+20
30.6754  8.80789e+20
30.7927  8.77835e+20
30.91  8.74996e+20
31.0273  8.7211e+20
31.1446  8.69143e+20
31.2619  8.6587e+20
31.3792  8.6223e+20
31.4965  8.57894e+20
31.6138  8.52814e+20
31.7311  8.46916e+20
31.8484  8.40258e+20
31.9657  8.32667e+20
32.083  8.24251e+20
32.2003  8.14999e+20
32.3176  8.04873e+20
32.4349  7.9389e+20
32.5522  7.8214e+20
32.6695  7.69642e+20
32.7868  7.5654e+20
32.9042  7.43095e+20
33.0215  7.29734e+20
33.1388  7.16797e+20
33.2561  7.04611e+20
33.3734  6.93443e+20
33.4907  6.83488e+20
33.608  6.74718e+20
33.7253  6.67006e+20
33.8426  6.60032e+20
33.9599  6.53602e+20
34.0772  6.47285e+20
34.1945  6.40891e+20
34.3118  6.34124e+20
34.4291  6.26917e+20
34.5464  6.19072e+20
34.6637  6.10511e+20
34.781  6.01237e+20
34.8983  5.91171e+20
35.0156  5.80393e+20
35.1329  5.69119e+20
35.2503  5.57638e+20
35.3676  5.46358e+20
35.4849  5.35667e+20
35.6022  5.26062e+20
35.7195  5.1794e+20
35.8368  5.11685e+20
35.9541  5.07314e+20
36.0714  5.04968e+20
36.1887  5.04497e+20
36.306  5.05645e+20
36.4233  5.08165e+20
36.5406  5.11666e+20
36.6579  5.15683e+20
36.7752  5.19673e+20
36.8925  5.23026e+20
37.0098  5.25145e+20
37.1271  5.25294e+20
37.2444  5.23034e+20
37.3617  5.17873e+20
37.479  5.09649e+20
37.5964  4.98529e+20
37.7137  4.84983e+20
37.831  4.69771e+20
37.9483  4.53674e+20
38.0656  4.37693e+20
38.1829  4.2274e+20
38.3002  4.09636e+20
38.4175  3.98914e+20
38.5348  3.90968e+20
38.6521  3.86121e+20
38.7694  3.84432e+20
38.8867  3.86023e+20
39.004  3.90719e+20
39.1213  3.98338e+20
39.2386  4.08328e+20
39.3559  4.20013e+20
39.4732  4.32494e+20
39.5905  4.44513e+20
39.7078  4.54817e+20
39.8251  4.62236e+20
39.9425  4.65773e+20
40.0598  4.64845e+20
40.1771  4.59268e+20
40.2944  4.49378e+20
40.4117  4.35891e+20
40.529  4.19928e+20
40.6463  4.02417e+20
40.7636  3.84623e+20
40.8809  3.67604e+20
40.9982  3.52127e+20
41.1155  3.38934e+20
41.2328  3.28592e+20
41.3501  3.21499e+20
41.4674  3.17844e+20
41.5847  3.17655e+20
41.702  3.20832e+20
41.8193  3.26878e+20
41.9366  3.35155e+20
42.0539  3.4472e+20
42.1712  3.54523e+20
42.2885  3.63484e+20
42.4059  3.70816e+20
42.5232  3.75875e+20
42.6405  3.78379e+20
42.7578  3.78392e+20
42.8751  3.76283e+20
42.9924  3.72684e+20
43.1097  3.6801e+20
43.227  3.62793e+20
43.3443  3.57368e+20
43.4616  3.5191e+20
43.5789  3.46615e+20
43.6962  3.41485e+20
43.8135  3.36741e+20
43.9308  3.32462e+20
44.0481  3.29005e+20
44.1654  3.26734e+20
44.2827  3.25726e+20
44.4  3.26048e+20
44.5173  3.27602e+20
44.6347  3.30048e+20
44.752  3.32887e+20
44.8693  3.35677e+20
44.9866  3.38002e+20
45.1039  3.39593e+20
45.2212  3.40398e+20
45.3385  3.40437e+20
45.4558  3.39988e+20
45.5731  3.39361e+20
45.6904  3.38783e+20
45.8077  3.3847e+20
45.925  3.38581e+20
46.0423  3.39144e+20
46.1596  3.40082e+20
46.2769  3.41284e+20
46.3942  3.42644e+20
46.5115  3.44037e+20
46.6288  3.4523e+20
46.7461  3.46082e+20
46.8634  3.46359e+20
46.9808  3.45795e+20
47.0981  3.44378e+20
47.2154  3.41953e+20
47.3327  3.38603e+20
47.45  3.3438e+20
47.5673  3.29537e+20
47.6846  3.24395e+20
47.8019  3.19036e+20
47.9192  3.13592e+20
48.0365  3.08064e+20
48.1538  3.02292e+20
48.2711  2.96173e+20
48.3884  2.89426e+20
48.5057  2.82033e+20
48.623  2.73877e+20
48.7403  2.65177e+20
48.8576  2.5626e+20
48.9749  2.47333e+20
49.0922  2.38737e+20
49.2095  2.30802e+20
49.3269  2.23785e+20
49.4442  2.17833e+20
49.5615  2.13154e+20
49.6788  2.09901e+20
49.7961  2.08298e+20
49.9134  2.0843e+20
50.0307  2.10457e+20
50.148  2.14433e+20
50.2653  2.2014e+20
50.3826  2.27282e+20
50.4999  2.35318e+20
50.6172  2.43618e+20
50.7345  2.51507e+20
