#S 1 spectral density
#N 2
#UFWHM 64.2831
#L  abscissas [um]  spectral density
-58.5938  1.2398e+21
-58.4764  1.2598e+21
-58.3591  1.27903e+21
-58.2418  1.29731e+21
-58.1245  1.3149e+21
-58.0072  1.33182e+21
-57.8899  1.34831e+21
-57.7726  1.36478e+21
-57.6553  1.38168e+21
-57.538  1.39949e+21
-57.4207  1.41882e+21
-57.3034  1.43982e+21
-57.1861  1.46259e+21
-57.0688  1.48667e+21
-56.9515  1.51134e+21
-56.8342  1.53559e+21
-56.7169  1.55832e+21
-56.5996  1.57856e+21
-56.4823  1.59548e+21
-56.365  1.60857e+21
-56.2477  1.61779e+21
-56.1303  1.62377e+21
-56.013  1.62673e+21
-55.8957  1.62783e+21
-55.7784  1.62741e+21
-55.6611  1.62634e+21
-55.5438  1.62498e+21
-55.4265  1.62359e+21
-55.3092  1.6224e+21
-55.1919  1.62128e+21
-55.0746  1.62046e+21
-54.9573  1.61999e+21
-54.84  1.61981e+21
-54.7227  1.62025e+21
-54.6054  1.62119e+21
-54.4881  1.62309e+21
-54.3708  1.62618e+21
-54.2535  1.63065e+21
-54.1362  1.63659e+21
-54.0189  1.64441e+21
-53.9016  1.65434e+21
-53.7842  1.66657e+21
-53.6669  1.68151e+21
-53.5496  1.69911e+21
-53.4323  1.71964e+21
-53.315  1.74306e+21
-53.1977  1.7692e+21
-53.0804  1.79781e+21
-52.9631  1.82845e+21
-52.8458  1.86051e+21
-52.7285  1.89345e+21
-52.6112  1.92637e+21
-52.4939  1.95868e+21
-52.3766  1.98951e+21
-52.2593  2.01838e+21
-52.142  2.0448e+21
-52.0247  2.06857e+21
-51.9074  2.08973e+21
-51.7901  2.10829e+21
-51.6728  2.12415e+21
-51.5555  2.13747e+21
-51.4381  2.14841e+21
-51.3208  2.15643e+21
-51.2035  2.16167e+21
-51.0862  2.16359e+21
-50.9689  2.16231e+21
-50.8516  2.15788e+21
-50.7343  2.15069e+21
-50.617  2.14157e+21
-50.4997  2.13126e+21
-50.3824  2.12113e+21
-50.2651  2.11225e+21
-50.1478  2.10571e+21
-50.0305  2.10257e+21
-49.9132  2.10337e+21
-49.7959  2.10896e+21
-49.6786  2.11973e+21
-49.5613  2.13582e+21
-49.444  2.15711e+21
-49.3267  2.18343e+21
-49.2094  2.21417e+21
-49.092  2.24851e+21
-48.9747  2.28534e+21
-48.8574  2.32308e+21
-48.7401  2.36041e+21
-48.6228  2.39592e+21
-48.5055  2.4284e+21
-48.3882  2.45724e+21
-48.2709  2.48217e+21
-48.1536  2.50355e+21
-48.0363  2.5224e+21
-47.919  2.53979e+21
-47.8017  2.55727e+21
-47.6844  2.57612e+21
-47.5671  2.59767e+21
-47.4498  2.62274e+21
-47.3325  2.65195e+21
-47.2152  2.68551e+21
-47.0979  2.72305e+21
-46.9806  2.7635e+21
-46.8633  2.80595e+21
-46.7459  2.84893e+21
-46.6286  2.89047e+21
-46.5113  2.92902e+21
-46.394  2.96262e+21
-46.2767  2.99013e+21
-46.1594  3.01072e+21
-46.0421  3.0242e+21
-45.9248  3.03135e+21
-45.8075  3.03326e+21
-45.6902  3.03216e+21
-45.5729  3.03027e+21
-45.4556  3.03015e+21
-45.3383  3.03425e+21
-45.221  3.04458e+21
-45.1037  3.06311e+21
-44.9864  3.09096e+21
-44.8691  3.12847e+21
-44.7518  3.17515e+21
-44.6345  3.22975e+21
-44.5172  3.29013e+21
-44.3998  3.35364e+21
-44.2825  3.41687e+21
-44.1652  3.47593e+21
-44.0479  3.52738e+21
-43.9306  3.56797e+21
-43.8133  3.59534e+21
-43.696  3.60833e+21
-43.5787  3.60682e+21
-43.4614  3.59226e+21
-43.3441  3.56742e+21
-43.2268  3.5354e+21
-43.1095  3.50029e+21
-42.9922  3.46592e+21
-42.8749  3.43609e+21
-42.7576  3.41377e+21
-42.6403  3.4015e+21
-42.523  3.40098e+21
-42.4057  3.41311e+21
-42.2884  3.4377e+21
-42.171  3.47475e+21
-42.0537  3.52318e+21
-41.9364  3.58132e+21
-41.8191  3.64751e+21
-41.7018  3.71931e+21
-41.5845  3.79471e+21
-41.4672  3.87147e+21
-41.3499  3.94771e+21
-41.2326  4.022e+21
-41.1153  4.09326e+21
-40.998  4.16125e+21
-40.8807  4.22572e+21
-40.7634  4.28675e+21
-40.6461  4.34438e+21
-40.5288  4.39832e+21
-40.4115  4.44834e+21
-40.2942  4.49376e+21
-40.1769  4.53354e+21
-40.0596  4.56668e+21
-39.9423  4.59221e+21
-39.825  4.60958e+21
-39.7076  4.61867e+21
-39.5903  4.6198e+21
-39.473  4.61327e+21
-39.3557  4.60037e+21
-39.2384  4.58225e+21
-39.1211  4.56038e+21
-39.0038  4.53656e+21
-38.8865  4.5125e+21
-38.7692  4.49024e+21
-38.6519  4.47229e+21
-38.5346  4.46026e+21
-38.4173  4.4563e+21
-38.3  4.46192e+21
-38.1827  4.47823e+21
-38.0654  4.50528e+21
-37.9481  4.54281e+21
-37.8308  4.58952e+21
-37.7135  4.64372e+21
-37.5962  4.70283e+21
-37.4789  4.76509e+21
-37.3615  4.8283e+21
-37.2442  4.8907e+21
-37.1269  4.95133e+21
-37.0096  5.00904e+21
-36.8923  5.06404e+21
-36.775  5.11629e+21
-36.6577  5.16632e+21
-36.5404  5.21458e+21
-36.4231  5.26152e+21
-36.3058  5.30783e+21
-36.1885  5.35368e+21
-36.0712  5.39918e+21
-35.9539  5.44419e+21
-35.8366  5.48811e+21
-35.7193  5.53051e+21
-35.602  5.57067e+21
-35.4847  5.6075e+21
-35.3674  5.64014e+21
-35.2501  5.66786e+21
-35.1328  5.69039e+21
-35.0154  5.70803e+21
-34.8981  5.7216e+21
-34.7808  5.73187e+21
-34.6635  5.74081e+21
-34.5462  5.74997e+21
-34.4289  5.76114e+21
-34.3116  5.77617e+21
-34.1943  5.79616e+21
-34.077  5.82207e+21
-33.9597  5.85479e+21
-33.8424  5.89358e+21
-33.7251  5.93793e+21
-33.6078  5.98667e+21
-33.4905  6.03812e+21
-33.3732  6.09002e+21
-33.2559  6.14043e+21
-33.1386  6.18688e+21
-33.0213  6.22749e+21
-32.904  6.26026e+21
-32.7867  6.28455e+21
-32.6693  6.30007e+21
-32.552  6.30729e+21
-32.4347  6.30798e+21
-32.3174  6.30358e+21
-32.2001  6.29712e+21
-32.0828  6.29111e+21
-31.9655  6.28836e+21
-31.8482  6.29131e+21
-31.7309  6.3018e+21
-31.6136  6.3217e+21
-31.4963  6.35174e+21
-31.379  6.39219e+21
-31.2617  6.44283e+21
-31.1444  6.50261e+21
-31.0271  6.57074e+21
-30.9098  6.64573e+21
-30.7925  6.72588e+21
-30.6752  6.80944e+21
-30.5579  6.89469e+21
-30.4406  6.98015e+21
-30.3232  7.06461e+21
-30.2059  7.14726e+21
-30.0886  7.22659e+21
-29.9713  7.30215e+21
-29.854  7.37301e+21
-29.7367  7.43835e+21
-29.6194  7.49753e+21
-29.5021  7.54961e+21
-29.3848  7.59398e+21
-29.2675  7.63059e+21
-29.1502  7.65837e+21
-29.0329  7.67733e+21
-28.9156  7.68763e+21
-28.7983  7.68948e+21
-28.681  7.68325e+21
-28.5637  7.67009e+21
-28.4464  7.65102e+21
-28.3291  7.62781e+21
-28.2118  7.60214e+21
-28.0944  7.57648e+21
-27.9771  7.55322e+21
-27.8598  7.53468e+21
-27.7425  7.5234e+21
-27.6252  7.52036e+21
-27.5079  7.5271e+21
-27.3906  7.54366e+21
-27.2733  7.56985e+21
-27.156  7.60472e+21
-27.0387  7.64667e+21
-26.9214  7.6947e+21
-26.8041  7.74713e+21
-26.6868  7.80265e+21
-26.5695  7.86019e+21
-26.4522  7.91842e+21
-26.3349  7.97706e+21
-26.2176  8.03529e+21
-26.1003  8.09253e+21
-25.983  8.14822e+21
-25.8657  8.2021e+21
-25.7483  8.25408e+21
-25.631  8.30459e+21
-25.5137  8.35439e+21
-25.3964  8.40321e+21
-25.2791  8.45195e+21
-25.1618  8.50041e+21
-25.0445  8.54833e+21
-24.9272  8.59513e+21
-24.8099  8.63962e+21
-24.6926  8.68085e+21
-24.5753  8.71837e+21
-24.458  8.75095e+21
-24.3407  8.77865e+21
-24.2234  8.80193e+21
-24.1061  8.8214e+21
-23.9888  8.83811e+21
-23.8715  8.85349e+21
-23.7542  8.8686e+21
-23.6369  8.8849e+21
-23.5196  8.90307e+21
-23.4023  8.92402e+21
-23.2849  8.9484e+21
-23.1676  8.97622e+21
-23.0503  9.00787e+21
-22.933  9.04196e+21
-22.8157  9.07796e+21
-22.6984  9.1142e+21
-22.5811  9.14898e+21
-22.4638  9.18067e+21
-22.3465  9.20722e+21
-22.2292  9.22817e+21
-22.1119  9.24292e+21
-21.9946  9.25188e+21
-21.8773  9.25622e+21
-21.76  9.25736e+21
-21.6427  9.25803e+21
-21.5254  9.26015e+21
-21.4081  9.26577e+21
-21.2908  9.27639e+21
-21.1735  9.29327e+21
-21.0561  9.31728e+21
-20.9388  9.34904e+21
-20.8215  9.38936e+21
-20.7042  9.43731e+21
-20.5869  9.49277e+21
-20.4696  9.55448e+21
-20.3523  9.62072e+21
-20.235  9.68924e+21
-20.1177  9.75714e+21
-20.0004  9.82175e+21
-19.8831  9.88105e+21
-19.7658  9.93258e+21
-19.6485  9.97568e+21
-19.5312  1.00106e+22
-19.4139  1.00382e+22
-19.2966  1.00604e+22
-19.1793  1.00793e+22
-19.062  1.00967e+22
-18.9447  1.01146e+22
-18.8274  1.01336e+22
-18.71  1.01539e+22
-18.5927  1.01755e+22
-18.4754  1.01974e+22
-18.3581  1.02192e+22
-18.2408  1.02392e+22
-18.1235  1.02571e+22
-18.0062  1.02721e+22
-17.8889  1.02837e+22
-17.7716  1.02916e+22
-17.6543  1.02952e+22
-17.537  1.0295e+22
-17.4197  1.02914e+22
-17.3024  1.02846e+22
-17.1851  1.0276e+22
-17.0678  1.0267e+22
-16.9505  1.02599e+22
-16.8332  1.02565e+22
-16.7159  1.02591e+22
-16.5986  1.02687e+22
-16.4813  1.02862e+22
-16.364  1.0312e+22
-16.2466  1.03452e+22
-16.1293  1.03854e+22
-16.012  1.04301e+22
-15.8947  1.04778e+22
-15.7774  1.05266e+22
-15.6601  1.05749e+22
-15.5428  1.06214e+22
-15.4255  1.06648e+22
-15.3082  1.0705e+22
-15.1909  1.07422e+22
-15.0736  1.07763e+22
-14.9563  1.08085e+22
-14.839  1.08397e+22
-14.7217  1.08711e+22
-14.6044  1.09041e+22
-14.4871  1.09397e+22
-14.3698  1.09787e+22
-14.2525  1.10216e+22
-14.1352  1.1068e+22
-14.0178  1.11172e+22
-13.9005  1.11683e+22
-13.7832  1.12194e+22
-13.6659  1.12697e+22
-13.5486  1.13166e+22
-13.4313  1.13594e+22
-13.314  1.13966e+22
-13.1967  1.14274e+22
-13.0794  1.14516e+22
-12.9621  1.14688e+22
-12.8448  1.14798e+22
-12.7275  1.14853e+22
-12.6102  1.1486e+22
-12.4929  1.14827e+22
-12.3756  1.14765e+22
-12.2583  1.14688e+22
-12.141  1.14601e+22
-12.0237  1.1451e+22
-11.9064  1.14413e+22
-11.7891  1.1431e+22
-11.6718  1.14198e+22
-11.5544  1.14067e+22
-11.4371  1.13923e+22
-11.3198  1.13757e+22
-11.2025  1.13573e+22
-11.0852  1.13379e+22
-10.9679  1.13185e+22
-10.8506  1.13006e+22
-10.7333  1.12856e+22
-10.616  1.12754e+22
-10.4987  1.12719e+22
-10.3814  1.12759e+22
-10.2641  1.12885e+22
-10.1468  1.13105e+22
-10.0295  1.13414e+22
-9.91217  1.13808e+22
-9.79487  1.14276e+22
-9.67756  1.148e+22
-9.56026  1.15358e+22
-9.44295  1.15927e+22
-9.32565  1.16474e+22
-9.20834  1.16981e+22
-9.09104  1.17422e+22
-8.97373  1.17787e+22
-8.85643  1.18059e+22
-8.73913  1.18245e+22
-8.62182  1.18353e+22
-8.50452  1.18396e+22
-8.38721  1.184e+22
-8.26991  1.18381e+22
-8.1526  1.1837e+22
-8.03529  1.18388e+22
-7.91799  1.18449e+22
-7.80069  1.18565e+22
-7.68338  1.18737e+22
-7.56608  1.18967e+22
-7.44877  1.19241e+22
-7.33146  1.19544e+22
-7.21416  1.19853e+22
-7.09685  1.20142e+22
-6.97955  1.2039e+22
-6.86224  1.20568e+22
-6.74494  1.20673e+22
-6.62763  1.20685e+22
-6.51033  1.20606e+22
-6.39302  1.2045e+22
-6.27572  1.20232e+22
-6.15842  1.19977e+22
-6.04111  1.19712e+22
-5.92381  1.19468e+22
-5.8065  1.19273e+22
-5.68919  1.1915e+22
-5.57189  1.19117e+22
-5.45458  1.19186e+22
-5.33728  1.19357e+22
-5.21997  1.19626e+22
-5.10267  1.1998e+22
-4.98536  1.20395e+22
-4.86806  1.20846e+22
-4.75075  1.21303e+22
-4.63345  1.2173e+22
-4.51614  1.22106e+22
-4.39884  1.22407e+22
-4.28154  1.22629e+22
-4.16423  1.22767e+22
-4.04692  1.22835e+22
-3.92962  1.22858e+22
-3.81231  1.22857e+22
-3.69501  1.22865e+22
-3.5777  1.229e+22
-3.4604  1.22987e+22
-3.34309  1.23135e+22
-3.22579  1.23345e+22
-3.10849  1.23612e+22
-2.99118  1.2392e+22
-2.87387  1.24259e+22
-2.75657  1.24604e+22
-2.63926  1.24934e+22
-2.52196  1.25223e+22
-2.40465  1.25448e+22
-2.28735  1.25585e+22
-2.17005  1.25609e+22
-2.05274  1.25518e+22
-1.93544  1.25295e+22
-1.81813  1.24944e+22
-1.70083  1.24481e+22
-1.58352  1.23927e+22
-1.46622  1.23309e+22
-1.34891  1.22661e+22
-1.2316  1.22013e+22
-1.1143  1.21392e+22
-0.996995  1.20816e+22
-0.87969  1.20299e+22
-0.762385  1.19846e+22
-0.64508  1.19458e+22
-0.527775  1.19135e+22
-0.41047  1.18878e+22
-0.293165  1.18684e+22
-0.17586  1.18555e+22
-0.058555  1.18492e+22
0.05875  1.18493e+22
0.176055  1.18562e+22
0.29336  1.18693e+22
0.410665  1.18891e+22
0.52797  1.19148e+22
0.645275  1.19469e+22
0.76258  1.19855e+22
0.879885  1.20304e+22
0.99719  1.20817e+22
1.1145  1.21386e+22
1.2318  1.22e+22
1.3491  1.22641e+22
1.46641  1.2328e+22
1.58371  1.23889e+22
1.70102  1.24433e+22
1.81832  1.24888e+22
1.93563  1.2523e+22
2.05294  1.25448e+22
2.17024  1.25538e+22
2.28754  1.25506e+22
2.40485  1.25369e+22
2.52216  1.25139e+22
2.63946  1.24852e+22
2.75677  1.24523e+22
2.87407  1.24176e+22
2.99137  1.23838e+22
3.10868  1.23527e+22
3.22599  1.23258e+22
3.34329  1.23046e+22
3.4606  1.22896e+22
3.5779  1.22805e+22
3.69521  1.22764e+22
3.81251  1.22752e+22
3.92982  1.22747e+22
4.04712  1.22719e+22
4.16443  1.22643e+22
4.28173  1.22499e+22
4.39903  1.22273e+22
4.51634  1.21966e+22
4.63364  1.21589e+22
4.75095  1.21157e+22
4.86825  1.20702e+22
4.98556  1.2025e+22
5.10286  1.19837e+22
5.22017  1.19483e+22
5.33748  1.19215e+22
5.45478  1.19045e+22
5.57209  1.18977e+22
5.68939  1.19009e+22
5.8067  1.1913e+22
5.924  1.19323e+22
6.0413  1.19564e+22
6.15861  1.19823e+22
6.27591  1.20074e+22
6.39322  1.20285e+22
6.51052  1.20435e+22
6.62783  1.20506e+22
6.74514  1.20489e+22
6.86244  1.20382e+22
6.97975  1.20195e+22
7.09705  1.19946e+22
7.21436  1.1965e+22
7.33166  1.19342e+22
7.44897  1.19038e+22
7.56627  1.18762e+22
7.68358  1.18532e+22
7.80088  1.18358e+22
7.91819  1.18241e+22
8.03549  1.18178e+22
8.1528  1.1816e+22
8.2701  1.18168e+22
8.38741  1.1818e+22
8.50471  1.18173e+22
8.62202  1.18123e+22
8.73932  1.1801e+22
8.85662  1.17817e+22
8.97393  1.17537e+22
9.09123  1.17167e+22
9.20854  1.1672e+22
9.32584  1.16209e+22
9.44315  1.15655e+22
9.56045  1.15086e+22
9.67776  1.14524e+22
9.79506  1.14e+22
9.91237  1.1353e+22
10.0297  1.13136e+22
10.147  1.12827e+22
10.2643  1.1261e+22
10.3816  1.12483e+22
10.4989  1.12444e+22
10.6162  1.12481e+22
10.7335  1.12583e+22
10.8508  1.1273e+22
10.9681  1.12909e+22
11.0854  1.13099e+22
11.2027  1.13291e+22
11.32  1.1347e+22
11.4373  1.13632e+22
11.5546  1.13772e+22
11.6719  1.13894e+22
11.7893  1.14004e+22
11.9066  1.14098e+22
12.0239  1.14191e+22
12.1412  1.14279e+22
12.2585  1.14361e+22
12.3758  1.14433e+22
12.4931  1.1449e+22
12.6104  1.14518e+22
12.7277  1.14509e+22
12.845  1.14454e+22
12.9623  1.14341e+22
13.0796  1.14166e+22
13.1969  1.13924e+22
13.3142  1.13613e+22
13.4315  1.13241e+22
13.5488  1.12812e+22
13.6661  1.1234e+22
13.7834  1.11836e+22
13.9007  1.11322e+22
14.018  1.1081e+22
14.1354  1.10314e+22
14.2527  1.09849e+22
14.37  1.09416e+22
14.4873  1.09023e+22
14.6046  1.08663e+22
14.7219  1.0833e+22
14.8392  1.08011e+22
14.9565  1.07697e+22
15.0738  1.07371e+22
15.1911  1.07026e+22
15.3084  1.06652e+22
15.4257  1.06247e+22
15.543  1.05808e+22
15.6603  1.05341e+22
15.7776  1.04855e+22
15.8949  1.04364e+22
16.0122  1.03883e+22
16.1295  1.03432e+22
16.2468  1.03028e+22
16.3641  1.0269e+22
16.4815  1.0243e+22
16.5988  1.02247e+22
16.7161  1.02149e+22
16.8334  1.02122e+22
16.9507  1.0215e+22
17.068  1.02218e+22
17.1853  1.02303e+22
17.3026  1.02386e+22
17.4199  1.02453e+22
17.5372  1.02491e+22
17.6545  1.02493e+22
17.7718  1.02456e+22
17.8891  1.02379e+22
18.0064  1.02264e+22
18.1237  1.02116e+22
18.241  1.01937e+22
18.3583  1.01737e+22
18.4756  1.0152e+22
18.5929  1.01299e+22
18.7102  1.01083e+22
18.8275  1.00875e+22
18.9449  1.00683e+22
19.0622  1.005e+22
19.1795  1.00321e+22
19.2968  1.00126e+22
19.4141  9.98983e+21
19.5314  9.96158e+21
19.6487  9.92623e+21
19.766  9.88251e+21
19.8833  9.83055e+21
20.0006  9.77121e+21
20.1179  9.70634e+21
20.2352  9.63835e+21
20.3525  9.56999e+21
20.4698  9.50399e+21
20.5871  9.44261e+21
20.7044  9.38727e+21
20.8217  9.3394e+21
20.939  9.29931e+21
21.0563  9.26731e+21
21.1736  9.24324e+21
21.291  9.22592e+21
21.4083  9.21508e+21
21.5256  9.20915e+21
21.6429  9.20647e+21
21.7602  9.20516e+21
21.8775  9.20311e+21
21.9948  9.19813e+21
22.1121  9.1886e+21
22.2294  9.17341e+21
22.3467  9.15199e+21
22.464  9.12488e+21
22.5813  9.09306e+21
22.6986  9.05805e+21
22.8159  9.02189e+21
22.9332  8.98597e+21
23.0505  8.95199e+21
23.1678  8.9207e+21
23.2851  8.89304e+21
23.4024  8.86902e+21
23.5198  8.84818e+21
23.6371  8.83021e+21
23.7544  8.8141e+21
23.8717  8.79894e+21
23.989  8.78358e+21
24.1063  8.76668e+21
24.2236  8.74704e+21
24.3409  8.72367e+21
24.4582  8.6956e+21
24.5755  8.66279e+21
24.6928  8.62522e+21
24.8101  8.5836e+21
24.9274  8.53875e+21
25.0447  8.49183e+21
25.162  8.4438e+21
25.2793  8.39526e+21
25.3966  8.34632e+21
25.5139  8.29715e+21
25.6312  8.24729e+21
25.7485  8.19636e+21
25.8658  8.14416e+21
25.9832  8.08987e+21
26.1005  8.0339e+21
26.2178  7.97653e+21
26.3351  7.91799e+21
26.4524  7.85902e+21
26.5697  7.80025e+21
26.687  7.74248e+21
26.8043  7.68675e+21
26.9216  7.63428e+21
27.0389  7.58611e+21
27.1562  7.544e+21
27.2735  7.50925e+21
27.3908  7.48307e+21
27.5081  7.46671e+21
27.6254  7.46018e+21
27.7427  7.46337e+21
27.86  7.47501e+21
27.9773  7.49374e+21
28.0946  7.51728e+21
28.212  7.54303e+21
28.3293  7.56884e+21
28.4466  7.59215e+21
28.5639  7.61114e+21
28.6812  7.6243e+21
28.7985  7.63027e+21
28.9158  7.62825e+21
29.0331  7.61777e+21
29.1504  7.59835e+21
29.2677  7.57035e+21
29.385  7.53364e+21
29.5023  7.48878e+21
29.6196  7.43627e+21
29.7369  7.37694e+21
29.8542  7.31142e+21
29.9715  7.24054e+21
30.0888  7.16485e+21
30.2061  7.08545e+21
30.3234  7.003e+21
30.4407  6.91855e+21
30.558  6.83339e+21
30.6754  6.74832e+21
30.7927  6.66507e+21
30.91  6.58545e+21
31.0273  6.51085e+21
31.1446  6.443e+21
31.2619  6.38328e+21
31.3792  6.33292e+21
31.4965  6.29263e+21
31.6138  6.26282e+21
31.7311  6.24289e+21
31.8484  6.23221e+21
31.9657  6.22913e+21
32.083  6.23155e+21
32.2003  6.23725e+21
32.3176  6.24329e+21
32.4349  6.24719e+21
32.5522  6.2462e+21
32.6695  6.23858e+21
32.7868  6.2229e+21
32.9042  6.1983e+21
33.0215  6.1654e+21
33.1388  6.12484e+21
33.2561  6.07849e+21
33.3734  6.02834e+21
33.4907  5.97661e+21
33.608  5.92557e+21
33.7253  5.87729e+21
33.8426  5.83319e+21
33.9599  5.79492e+21
34.0772  5.7628e+21
34.1945  5.73714e+21
34.3118  5.71736e+21
34.4291  5.70275e+21
34.5464  5.69181e+21
34.6637  5.68297e+21
34.781  5.67417e+21
34.8983  5.66394e+21
35.0156  5.65054e+21
35.1329  5.63292e+21
35.2503  5.61052e+21
35.3676  5.58278e+21
35.4849  5.55014e+21
35.6022  5.51356e+21
35.7195  5.4736e+21
35.8368  5.43112e+21
35.9541  5.3871e+21
36.0714  5.34214e+21
36.1887  5.29663e+21
36.306  5.25089e+21
36.4233  5.2045e+21
36.5406  5.15751e+21
36.6579  5.10922e+21
36.7752  5.05914e+21
36.8925  5.00687e+21
37.0098  4.95182e+21
37.1271  4.89412e+21
37.2444  4.83364e+21
37.3617  4.77144e+21
37.479  4.70862e+21
37.5964  4.64658e+21
37.7137  4.58776e+21
37.831  4.53407e+21
37.9483  4.48783e+21
38.0656  4.45077e+21
38.1829  4.42403e+21
38.3002  4.40818e+21
38.4175  4.40287e+21
38.5348  4.40693e+21
38.6521  4.41911e+21
38.7694  4.43725e+21
38.8867  4.45943e+21
39.004  4.48331e+21
39.1213  4.50709e+21
39.2386  4.52881e+21
39.3559  4.5469e+21
39.4732  4.55962e+21
39.5905  4.566e+21
39.7078  4.56484e+21
39.8251  4.55564e+21
39.9425  4.53829e+21
40.0598  4.51268e+21
40.1771  4.47953e+21
40.2944  4.43998e+21
40.4117  4.3948e+21
40.529  4.34478e+21
40.6463  4.29096e+21
40.7636  4.23358e+21
40.8809  4.17284e+21
40.9982  4.10875e+21
41.1155  4.04102e+21
41.2328  3.97011e+21
41.3501  3.89623e+21
41.4674  3.82044e+21
41.5847  3.74421e+21
41.702  3.66934e+21
41.8193  3.59817e+21
41.9366  3.53267e+21
42.0539  3.47516e+21
42.1712  3.42759e+21
42.2885  3.391e+21
42.4059  3.36685e+21
42.5232  3.35524e+21
42.6405  3.35613e+21
42.7578  3.36854e+21
42.8751  3.39083e+21
42.9924  3.42074e+21
43.1097  3.45494e+21
43.227  3.48973e+21
43.3443  3.5214e+21
43.4616  3.54588e+21
43.5789  3.56005e+21
43.6962  3.56105e+21
43.8135  3.54782e+21
43.9308  3.52022e+21
44.0481  3.47962e+21
44.1654  3.42824e+21
44.2827  3.36944e+21
44.4  3.30671e+21
44.5173  3.2438e+21
44.6347  3.18404e+21
44.752  3.1301e+21
44.8693  3.08413e+21
44.9866  3.04742e+21
45.1039  3.02032e+21
45.2212  3.0022e+21
45.3385  2.99234e+21
45.4558  2.98871e+21
45.5731  2.98921e+21
45.6904  2.99145e+21
45.8077  2.9927e+21
45.925  2.99092e+21
46.0423  2.98393e+21
46.1596  2.97052e+21
46.2769  2.95005e+21
46.3942  2.92261e+21
46.5115  2.88922e+21
46.6288  2.85091e+21
46.7461  2.80958e+21
46.8634  2.76708e+21
46.9808  2.72477e+21
47.0981  2.68463e+21
47.2154  2.64746e+21
47.3327  2.6143e+21
47.45  2.58531e+21
47.5673  2.56041e+21
47.6846  2.53929e+21
47.8019  2.52067e+21
47.9192  2.50341e+21
48.0365  2.48624e+21
48.1538  2.4676e+21
48.2711  2.44651e+21
48.3884  2.42171e+21
48.5057  2.39317e+21
48.623  2.36087e+21
48.7403  2.32571e+21
48.8576  2.28866e+21
48.9749  2.25119e+21
49.0922  2.21475e+21
49.2095  2.18074e+21
49.3269  2.15028e+21
49.4442  2.12419e+21
49.5615  2.1031e+21
49.6788  2.08732e+21
49.7961  2.07685e+21
49.9134  2.0713e+21
50.0307  2.07068e+21
50.148  2.07406e+21
50.2653  2.08077e+21
50.3826  2.08995e+21
50.4999  2.10025e+21
50.6172  2.11072e+21
50.7345  2.1201e+21
50.8518  2.12743e+21
50.9691  2.13204e+21
