#S 1 spectral density
#N 2
#UFWHM 23.9302
#L  abscissas [um]  spectral density
-58.5938  1.31335e+20
-58.4764  1.25734e+20
-58.3591  1.19948e+20
-58.2418  1.13955e+20
-58.1245  1.07828e+20
-58.0072  1.01913e+20
-57.8899  9.67153e+19
-57.7726  9.29237e+19
-57.6553  9.13747e+19
-57.538  9.28344e+19
-57.4207  9.77984e+19
-57.3034  1.064e+20
-57.1861  1.18299e+20
-57.0688  1.32584e+20
-56.9515  1.4804e+20
-56.8342  1.63076e+20
-56.7169  1.76287e+20
-56.5996  1.8651e+20
-56.4823  1.93171e+20
-56.365  1.96193e+20
-56.2477  1.96252e+20
-56.1303  1.94239e+20
-56.013  1.91436e+20
-55.8957  1.88889e+20
-55.7784  1.87456e+20
-55.6611  1.87351e+20
-55.5438  1.8838e+20
-55.4265  1.90058e+20
-55.3092  1.91519e+20
-55.1919  1.91936e+20
-55.0746  1.90762e+20
-54.9573  1.87591e+20
-54.84  1.82575e+20
-54.7227  1.76065e+20
-54.6054  1.68757e+20
-54.4881  1.61412e+20
-54.3708  1.54667e+20
-54.2535  1.49117e+20
-54.1362  1.45036e+20
-54.0189  1.4246e+20
-53.9016  1.41144e+20
-53.7842  1.4073e+20
-53.6669  1.40774e+20
-53.5496  1.40856e+20
-53.4323  1.4063e+20
-53.315  1.39942e+20
-53.1977  1.38777e+20
-53.0804  1.37237e+20
-52.9631  1.35584e+20
-52.8458  1.34084e+20
-52.7285  1.32974e+20
-52.6112  1.32426e+20
-52.4939  1.3247e+20
-52.3766  1.33146e+20
-52.2593  1.34401e+20
-52.142  1.36242e+20
-52.0247  1.38715e+20
-51.9074  1.41962e+20
-51.7901  1.46198e+20
-51.6728  1.51806e+20
-51.5555  1.59016e+20
-51.4381  1.67995e+20
-51.3208  1.78782e+20
-51.2035  1.91097e+20
-51.0862  2.04545e+20
-50.9689  2.1835e+20
-50.8516  2.31694e+20
-50.7343  2.43587e+20
-50.617  2.53076e+20
-50.4997  2.59308e+20
-50.3824  2.61552e+20
-50.2651  2.59344e+20
-50.1478  2.52626e+20
-50.0305  2.41499e+20
-49.9132  2.26661e+20
-49.7959  2.08873e+20
-49.6786  1.89292e+20
-49.5613  1.69136e+20
-49.444  1.49662e+20
-49.3267  1.31887e+20
-49.2094  1.16648e+20
-49.092  1.04411e+20
-48.9747  9.53412e+19
-48.8574  8.93719e+19
-48.7401  8.62255e+19
-48.6228  8.56246e+19
-48.5055  8.7343e+19
-48.3882  9.12262e+19
-48.2709  9.71628e+19
-48.1536  1.05061e+20
-48.0363  1.14603e+20
-47.919  1.25388e+20
-47.8017  1.36687e+20
-47.6844  1.47673e+20
-47.5671  1.57328e+20
-47.4498  1.6491e+20
-47.3325  1.69818e+20
-47.2152  1.71945e+20
-47.0979  1.71655e+20
-46.9806  1.69716e+20
-46.8633  1.67229e+20
-46.7459  1.65398e+20
-46.6286  1.6537e+20
-46.5113  1.67956e+20
-46.394  1.73737e+20
-46.2767  1.82748e+20
-46.1594  1.94661e+20
-46.0421  2.087e+20
-45.9248  2.2392e+20
-45.8075  2.39063e+20
-45.6902  2.52689e+20
-45.5729  2.63569e+20
-45.4556  2.70405e+20
-45.3383  2.72358e+20
-45.221  2.68867e+20
-45.1037  2.59951e+20
-44.9864  2.46367e+20
-44.8691  2.29389e+20
-44.7518  2.10658e+20
-44.6345  1.92147e+20
-44.5172  1.75659e+20
-44.3998  1.62633e+20
-44.2825  1.53691e+20
-44.1652  1.48986e+20
-44.0479  1.47928e+20
-43.9306  1.49392e+20
-43.8133  1.52177e+20
-43.696  1.55192e+20
-43.5787  1.57791e+20
-43.4614  1.59703e+20
-43.3441  1.61364e+20
-43.2268  1.63446e+20
-43.1095  1.66885e+20
-42.9922  1.72359e+20
-42.8749  1.80419e+20
-42.7576  1.91106e+20
-42.6403  2.04186e+20
-42.523  2.19079e+20
-42.4057  2.35107e+20
-42.2884  2.51564e+20
-42.171  2.67838e+20
-42.0537  2.83472e+20
-41.9364  2.98092e+20
-41.8191  3.11186e+20
-41.7018  3.22335e+20
-41.5845  3.30985e+20
-41.4672  3.36528e+20
-41.3499  3.38598e+20
-41.2326  3.36733e+20
-41.1153  3.31025e+20
-40.998  3.2179e+20
-40.8807  3.09618e+20
-40.7634  2.95452e+20
-40.6461  2.80265e+20
-40.5288  2.64907e+20
-40.4115  2.50048e+20
-40.2942  2.36281e+20
-40.1769  2.23621e+20
-40.0596  2.12149e+20
-39.9423  2.01757e+20
-39.825  1.92363e+20
-39.7076  1.8399e+20
-39.5903  1.76678e+20
-39.473  1.70632e+20
-39.3557  1.6622e+20
-39.2384  1.63713e+20
-39.1211  1.63385e+20
-39.0038  1.65697e+20
-38.8865  1.7095e+20
-38.7692  1.79501e+20
-38.6519  1.91813e+20
-38.5346  2.0815e+20
-38.4173  2.28664e+20
-38.3  2.53185e+20
-38.1827  2.81212e+20
-38.0654  3.11758e+20
-37.9481  3.43462e+20
-37.8308  3.74662e+20
-37.7135  4.03606e+20
-37.5962  4.28639e+20
-37.4789  4.48498e+20
-37.3615  4.6257e+20
-37.2442  4.70713e+20
-37.1269  4.73664e+20
-37.0096  4.72248e+20
-36.8923  4.67977e+20
-36.775  4.62284e+20
-36.6577  4.56511e+20
-36.5404  4.51587e+20
-36.4231  4.48058e+20
-36.3058  4.46184e+20
-36.1885  4.45735e+20
-36.0712  4.4633e+20
-35.9539  4.47302e+20
-35.8366  4.48166e+20
-35.7193  4.48525e+20
-35.602  4.48103e+20
-35.4847  4.46806e+20
-35.3674  4.4496e+20
-35.2501  4.42939e+20
-35.1328  4.41284e+20
-35.0154  4.4068e+20
-34.8981  4.41687e+20
-34.7808  4.44601e+20
-34.6635  4.49273e+20
-34.5462  4.55448e+20
-34.4289  4.622e+20
-34.3116  4.68544e+20
-34.1943  4.73255e+20
-34.077  4.75486e+20
-33.9597  4.74576e+20
-33.8424  4.70492e+20
-33.7251  4.63619e+20
-33.6078  4.55183e+20
-33.4905  4.46663e+20
-33.3732  4.39807e+20
-33.2559  4.36353e+20
-33.1386  4.37837e+20
-33.0213  4.45221e+20
-32.904  4.58853e+20
-32.7867  4.78706e+20
-32.6693  5.03907e+20
-32.552  5.33102e+20
-32.4347  5.64933e+20
-32.3174  5.97178e+20
-32.2001  6.28214e+20
-32.0828  6.5606e+20
-31.9655  6.79022e+20
-31.8482  6.95922e+20
-31.7309  7.05661e+20
-31.6136  7.07984e+20
-31.4963  7.03012e+20
-31.379  6.91531e+20
-31.2617  6.74642e+20
-31.1444  6.53854e+20
-31.0271  6.31026e+20
-30.9098  6.07793e+20
-30.7925  5.85972e+20
-30.6752  5.6689e+20
-30.5579  5.5154e+20
-30.4406  5.40579e+20
-30.3232  5.34404e+20
-30.2059  5.33039e+20
-30.0886  5.36056e+20
-29.9713  5.42943e+20
-29.854  5.53102e+20
-29.7367  5.65913e+20
-29.6194  5.80614e+20
-29.5021  5.96441e+20
-29.3848  6.12838e+20
-29.2675  6.29398e+20
-29.1502  6.45294e+20
-29.0329  6.60146e+20
-28.9156  6.73323e+20
-28.7983  6.84216e+20
-28.681  6.922e+20
-28.5637  6.96638e+20
-28.4464  6.97189e+20
-28.3291  6.93604e+20
-28.2118  6.86056e+20
-28.0944  6.75441e+20
-27.9771  6.62606e+20
-27.8598  6.49141e+20
-27.7425  6.37069e+20
-27.6252  6.28285e+20
-27.5079  6.25106e+20
-27.3906  6.29391e+20
-27.2733  6.42989e+20
-27.156  6.67483e+20
-27.0387  7.03423e+20
-26.9214  7.51183e+20
-26.8041  8.10065e+20
-26.6868  8.78602e+20
-26.5695  9.5423e+20
-26.4522  1.03378e+21
-26.3349  1.11356e+21
-26.2176  1.1896e+21
-26.1003  1.25835e+21
-25.983  1.31669e+21
-25.8657  1.3627e+21
-25.7483  1.39586e+21
-25.631  1.41691e+21
-25.5137  1.42789e+21
-25.3964  1.43102e+21
-25.2791  1.4296e+21
-25.1618  1.42603e+21
-25.0445  1.42251e+21
-24.9272  1.42023e+21
-24.8099  1.41954e+21
-24.6926  1.41997e+21
-24.5753  1.4211e+21
-24.458  1.42152e+21
-24.3407  1.42085e+21
-24.2234  1.4185e+21
-24.1061  1.41459e+21
-23.9888  1.40964e+21
-23.8715  1.40453e+21
-23.7542  1.40062e+21
-23.6369  1.39943e+21
-23.5196  1.40263e+21
-23.4023  1.41205e+21
-23.2849  1.42913e+21
-23.1676  1.45526e+21
-23.0503  1.49113e+21
-22.933  1.5367e+21
-22.8157  1.59121e+21
-22.6984  1.65287e+21
-22.5811  1.71962e+21
-22.4638  1.78923e+21
-22.3465  1.85945e+21
-22.2292  1.92917e+21
-22.1119  1.99799e+21
-21.9946  2.06652e+21
-21.8773  2.13661e+21
-21.76  2.21051e+21
-21.6427  2.29084e+21
-21.5254  2.37972e+21
-21.4081  2.47878e+21
-21.2908  2.5884e+21
-21.1735  2.70803e+21
-21.0561  2.83637e+21
-20.9388  2.97098e+21
-20.8215  3.10956e+21
-20.7042  3.24911e+21
-20.5869  3.38702e+21
-20.4696  3.52046e+21
-20.3523  3.64735e+21
-20.235  3.76537e+21
-20.1177  3.87338e+21
-20.0004  3.97078e+21
-19.8831  4.05799e+21
-19.7658  4.13649e+21
-19.6485  4.20947e+21
-19.5312  4.28118e+21
-19.4139  4.35611e+21
-19.2966  4.43923e+21
-19.1793  4.5351e+21
-19.062  4.64665e+21
-18.9447  4.77543e+21
-18.8274  4.92101e+21
-18.71  5.08112e+21
-18.5927  5.25196e+21
-18.4754  5.42912e+21
-18.3581  5.60762e+21
-18.2408  5.78391e+21
-18.1235  5.95458e+21
-18.0062  6.11804e+21
-17.8889  6.27426e+21
-17.7716  6.42472e+21
-17.6543  6.57202e+21
-17.537  6.71955e+21
-17.4197  6.87098e+21
-17.3024  7.02977e+21
-17.1851  7.19921e+21
-17.0678  7.38122e+21
-16.9505  7.57709e+21
-16.8332  7.78646e+21
-16.7159  8.00822e+21
-16.5986  8.23995e+21
-16.4813  8.47898e+21
-16.364  8.72227e+21
-16.2466  8.96653e+21
-16.1293  9.20971e+21
-16.012  9.45047e+21
-15.8947  9.68859e+21
-15.7774  9.92502e+21
-15.6601  1.01619e+22
-15.5428  1.04015e+22
-15.4255  1.06463e+22
-15.3082  1.08987e+22
-15.1909  1.11597e+22
-15.0736  1.14293e+22
-14.9563  1.17063e+22
-14.839  1.19883e+22
-14.7217  1.22715e+22
-14.6044  1.25516e+22
-14.4871  1.28247e+22
-14.3698  1.30862e+22
-14.2525  1.33327e+22
-14.1352  1.35622e+22
-14.0178  1.37742e+22
-13.9005  1.39692e+22
-13.7832  1.41501e+22
-13.6659  1.43201e+22
-13.5486  1.44851e+22
-13.4313  1.46491e+22
-13.314  1.48179e+22
-13.1967  1.4996e+22
-13.0794  1.51868e+22
-12.9621  1.53928e+22
-12.8448  1.56146e+22
-12.7275  1.58509e+22
-12.6102  1.61003e+22
-12.4929  1.63596e+22
-12.3756  1.66248e+22
-12.2583  1.68927e+22
-12.141  1.71599e+22
-12.0237  1.74236e+22
-11.9064  1.76821e+22
-11.7891  1.79357e+22
-11.6718  1.8185e+22
-11.5544  1.84322e+22
-11.4371  1.86805e+22
-11.3198  1.89332e+22
-11.2025  1.91937e+22
-11.0852  1.94654e+22
-10.9679  1.97497e+22
-10.8506  2.0047e+22
-10.7333  2.03553e+22
-10.616  2.06715e+22
-10.4987  2.09904e+22
-10.3814  2.13061e+22
-10.2641  2.16117e+22
-10.1468  2.19015e+22
-10.0295  2.21701e+22
-9.91217  2.24142e+22
-9.79487  2.2633e+22
-9.67756  2.28275e+22
-9.56026  2.30008e+22
-9.44295  2.31583e+22
-9.32565  2.33064e+22
-9.20834  2.34519e+22
-9.09104  2.36014e+22
-8.97373  2.37604e+22
-8.85643  2.39345e+22
-8.73913  2.41244e+22
-8.62182  2.43317e+22
-8.50452  2.45546e+22
-8.38721  2.47897e+22
-8.26991  2.50327e+22
-8.1526  2.5278e+22
-8.03529  2.55196e+22
-7.91799  2.57528e+22
-7.80069  2.59739e+22
-7.68338  2.61797e+22
-7.56608  2.63697e+22
-7.44877  2.65452e+22
-7.33146  2.67084e+22
-7.21416  2.68629e+22
-7.09685  2.70137e+22
-6.97955  2.71645e+22
-6.86224  2.732e+22
-6.74494  2.74834e+22
-6.62763  2.76557e+22
-6.51033  2.78373e+22
-6.39302  2.80266e+22
-6.27572  2.82204e+22
-6.15842  2.84148e+22
-6.04111  2.86047e+22
-5.92381  2.87854e+22
-5.8065  2.89529e+22
-5.68919  2.91045e+22
-5.57189  2.92397e+22
-5.45458  2.93588e+22
-5.33728  2.94665e+22
-5.21997  2.95676e+22
-5.10267  2.96698e+22
-4.98536  2.9781e+22
-4.86806  2.99096e+22
-4.75075  3.00635e+22
-4.63345  3.02491e+22
-4.51614  3.04712e+22
-4.39884  3.07311e+22
-4.28154  3.10282e+22
-4.16423  3.13588e+22
-4.04692  3.17158e+22
-3.92962  3.20907e+22
-3.81231  3.24723e+22
-3.69501  3.28483e+22
-3.5777  3.32063e+22
-3.4604  3.35344e+22
-3.34309  3.38226e+22
-3.22579  3.4063e+22
-3.10849  3.42522e+22
-2.99118  3.43891e+22
-2.87387  3.44766e+22
-2.75657  3.45205e+22
-2.63926  3.45285e+22
-2.52196  3.45097e+22
-2.40465  3.44728e+22
-2.28735  3.44253e+22
-2.17005  3.43741e+22
-2.05274  3.4324e+22
-1.93544  3.42768e+22
-1.81813  3.42341e+22
-1.70083  3.41946e+22
-1.58352  3.4157e+22
-1.46622  3.4119e+22
-1.34891  3.40779e+22
-1.2316  3.40312e+22
-1.1143  3.39774e+22
-0.996995  3.39151e+22
-0.87969  3.3845e+22
-0.762385  3.37675e+22
-0.64508  3.36868e+22
-0.527775  3.3607e+22
-0.41047  3.35331e+22
-0.293165  3.34709e+22
-0.17586  3.34257e+22
-0.058555  3.34017e+22
0.05875  3.34004e+22
0.176055  3.34225e+22
0.29336  3.34653e+22
0.410665  3.35255e+22
0.52797  3.35969e+22
0.645275  3.36746e+22
0.76258  3.3753e+22
0.879885  3.38281e+22
0.99719  3.38963e+22
1.1145  3.39566e+22
1.2318  3.40084e+22
1.3491  3.40531e+22
1.46641  3.40922e+22
1.58371  3.4128e+22
1.70102  3.41634e+22
1.81832  3.42003e+22
1.93563  3.42406e+22
2.05294  3.42845e+22
2.17024  3.43319e+22
2.28754  3.43798e+22
2.40485  3.44236e+22
2.52216  3.44568e+22
2.63946  3.44717e+22
2.75677  3.44594e+22
2.87407  3.44113e+22
2.99137  3.43194e+22
3.10868  3.41782e+22
3.22599  3.3985e+22
3.34329  3.37404e+22
3.4606  3.34489e+22
3.5779  3.31177e+22
3.69521  3.27571e+22
3.81251  3.23791e+22
3.92982  3.19955e+22
4.04712  3.16189e+22
4.16443  3.12606e+22
4.28173  3.09288e+22
4.39903  3.06304e+22
4.51634  3.03693e+22
4.63364  3.01464e+22
4.75095  2.99591e+22
4.86825  2.98034e+22
4.98556  2.96727e+22
5.10286  2.95597e+22
5.22017  2.9455e+22
5.33748  2.93513e+22
5.45478  2.92413e+22
5.57209  2.91194e+22
5.68939  2.8982e+22
5.8067  2.88281e+22
5.924  2.86582e+22
6.0413  2.84757e+22
6.15861  2.82843e+22
6.27591  2.80886e+22
6.39322  2.78938e+22
6.51052  2.77037e+22
6.62783  2.75215e+22
6.74514  2.73486e+22
6.86244  2.71852e+22
6.97975  2.70293e+22
7.09705  2.6878e+22
7.21436  2.6727e+22
7.33166  2.65716e+22
7.44897  2.64077e+22
7.56627  2.62313e+22
7.68358  2.604e+22
7.80088  2.58329e+22
7.91819  2.56105e+22
8.03549  2.53756e+22
8.1528  2.51323e+22
8.2701  2.48855e+22
8.38741  2.46411e+22
8.50471  2.44043e+22
8.62202  2.41799e+22
8.73932  2.3971e+22
8.85662  2.37796e+22
8.97393  2.36044e+22
9.09123  2.34435e+22
9.20854  2.32925e+22
9.32584  2.31455e+22
9.44315  2.29957e+22
9.56045  2.28364e+22
9.67776  2.26612e+22
9.79506  2.24651e+22
9.91237  2.22441e+22
10.0297  2.19983e+22
10.147  2.17281e+22
10.2643  2.14366e+22
10.3816  2.11295e+22
10.4989  2.08125e+22
10.6162  2.04922e+22
10.7335  2.0175e+22
10.8508  1.98659e+22
10.9681  1.9568e+22
11.0854  1.92832e+22
11.2027  1.90112e+22
11.32  1.87504e+22
11.4373  1.84977e+22
11.5546  1.82497e+22
11.6719  1.80026e+22
11.7893  1.77538e+22
11.9066  1.75012e+22
12.0239  1.72431e+22
12.1412  1.69805e+22
12.2585  1.67145e+22
12.3758  1.64478e+22
12.4931  1.61837e+22
12.6104  1.59258e+22
12.7277  1.56777e+22
12.845  1.54423e+22
12.9623  1.52218e+22
13.0796  1.50169e+22
13.1969  1.48267e+22
13.3142  1.46495e+22
13.4315  1.44813e+22
13.5488  1.43179e+22
13.6661  1.41537e+22
13.7834  1.39839e+22
13.9007  1.38038e+22
14.018  1.36091e+22
14.1354  1.33979e+22
14.2527  1.3169e+22
14.37  1.29235e+22
14.4873  1.26631e+22
14.6046  1.2391e+22
14.7219  1.21121e+22
14.8392  1.18303e+22
14.9565  1.15496e+22
15.0738  1.12742e+22
15.1911  1.10057e+22
15.3084  1.07461e+22
15.4257  1.04951e+22
15.543  1.02518e+22
15.6603  1.00134e+22
15.7776  9.778e+21
15.8949  9.54287e+21
16.0122  9.30623e+21
16.1295  9.06719e+21
16.2468  8.82588e+21
16.3641  8.58325e+21
16.4815  8.34227e+21
16.5988  8.10547e+21
16.7161  7.87587e+21
16.8334  7.65658e+21
16.9507  7.44973e+21
17.068  7.25645e+21
17.1853  7.07684e+21
17.3026  6.90982e+21
17.4199  6.75321e+21
17.5372  6.60381e+21
17.6545  6.45836e+21
17.7718  6.31291e+21
17.8891  6.16394e+21
18.0064  6.00954e+21
18.1237  5.8478e+21
18.241  5.67879e+21
18.3583  5.50438e+21
18.4756  5.3276e+21
18.5929  5.1525e+21
18.7102  4.98363e+21
18.8275  4.82578e+21
18.9449  4.6824e+21
19.0622  4.55583e+21
19.1795  4.44642e+21
19.2968  4.35262e+21
19.4141  4.27141e+21
19.5314  4.19828e+21
19.6487  4.12827e+21
19.766  4.05694e+21
19.8833  3.9798e+21
20.0006  3.89435e+21
20.1179  3.7987e+21
20.2352  3.69257e+21
20.3525  3.57635e+21
20.4698  3.4516e+21
20.5871  3.32024e+21
20.7044  3.18455e+21
20.8217  3.04728e+21
20.939  2.91106e+21
21.0563  2.77861e+21
21.1736  2.65269e+21
21.291  2.53525e+21
21.4083  2.42787e+21
21.5256  2.331e+21
21.6429  2.24413e+21
21.7602  2.16571e+21
21.8775  2.0936e+21
21.9948  2.02516e+21
22.1121  1.95823e+21
22.2294  1.89098e+21
22.3467  1.82277e+21
22.464  1.75391e+21
22.5813  1.68577e+21
22.6986  1.62046e+21
22.8159  1.56036e+21
22.9332  1.50736e+21
23.0505  1.46327e+21
23.1678  1.42874e+21
23.2851  1.40384e+21
23.4024  1.38795e+21
23.5198  1.37966e+21
23.6371  1.37738e+21
23.7544  1.37947e+21
23.8717  1.38414e+21
23.989  1.39008e+21
24.1063  1.39572e+21
24.2236  1.40032e+21
24.3409  1.40339e+21
24.4582  1.40474e+21
24.5755  1.40494e+21
24.6928  1.4047e+21
24.8101  1.40494e+21
24.9274  1.40637e+21
25.0447  1.40939e+21
25.162  1.41363e+21
25.2793  1.41781e+21
25.3966  1.41974e+21
25.5139  1.41681e+21
25.6312  1.40619e+21
25.7485  1.38534e+21
25.8658  1.35231e+21
25.9832  1.30632e+21
26.1005  1.24817e+21
26.2178  1.17969e+21
26.3351  1.10392e+21
26.4524  1.02455e+21
26.5697  9.4552e+20
26.687  8.70456e+20
26.8043  8.02806e+20
26.9216  7.44708e+20
27.0389  6.97611e+20
27.1562  6.62337e+20
27.2735  6.3863e+20
27.3908  6.2548e+20
27.5081  6.21671e+20
27.6254  6.2532e+20
27.7427  6.34387e+20
27.86  6.467e+20
27.9773  6.60182e+20
28.0946  6.73138e+20
28.212  6.8378e+20
28.3293  6.91154e+20
28.4466  6.94677e+20
28.5639  6.93956e+20
28.6812  6.89491e+20
28.7985  6.81349e+20
28.9158  6.70351e+20
29.0331  6.57225e+20
29.1504  6.42208e+20
29.2677  6.26363e+20
29.385  6.09899e+20
29.5023  5.9349e+20
29.6196  5.77667e+20
29.7369  5.63139e+20
29.8542  5.50559e+20
29.9715  5.40549e+20
30.0888  5.33781e+20
30.2061  5.30933e+20
30.3234  5.32504e+20
30.4407  5.38789e+20
30.558  5.49851e+20
30.6754  5.65288e+20
30.7927  5.84424e+20
30.91  6.06253e+20
31.0273  6.29302e+20
31.1446  6.52002e+20
31.2619  6.72458e+20
31.3792  6.89116e+20
31.4965  7.00367e+20
31.6138  7.05099e+20
31.7311  7.02395e+20
31.8484  6.9243e+20
31.9657  6.75451e+20
32.083  6.52276e+20
32.2003  6.24361e+20
32.3176  5.93388e+20
32.4349  5.61094e+20
32.5522  5.29501e+20
32.6695  5.00422e+20
32.7868  4.75515e+20
32.9042  4.55827e+20
33.0215  4.42405e+20
33.1388  4.35219e+20
33.2561  4.339e+20
33.3734  4.37435e+20
33.4907  4.44287e+20
33.608  4.52796e+20
33.7253  4.6124e+20
33.8426  4.67894e+20
33.9599  4.71916e+20
34.0772  4.7266e+20
34.1945  4.70344e+20
34.3118  4.65463e+20
34.4291  4.59061e+20
34.5464  4.52298e+20
34.6637  4.46204e+20
34.781  4.41513e+20
34.8983  4.38677e+20
35.0156  4.37707e+20
35.1329  4.38317e+20
35.2503  4.39951e+20
35.3676  4.41993e+20
35.4849  4.43851e+20
35.6022  4.45161e+20
35.7195  4.4561e+20
35.8368  4.45274e+20
35.9541  4.44414e+20
36.0714  4.43488e+20
36.1887  4.42951e+20
36.306  4.43537e+20
36.4233  4.4548e+20
36.5406  4.49062e+20
36.6579  4.54019e+20
36.7752  4.59839e+20
36.8925  4.6542e+20
37.0098  4.69574e+20
37.1271  4.70792e+20
37.2444  4.67737e+20
37.3617  4.59385e+20
37.479  4.45172e+20
37.5964  4.25153e+20
37.7137  4.00084e+20
37.831  3.71125e+20
37.9483  3.40027e+20
38.0656  3.0842e+20
38.1829  2.78105e+20
38.3002  2.50324e+20
38.4175  2.2604e+20
38.5348  2.05797e+20
38.6521  1.89705e+20
38.7694  1.77624e+20
38.8867  1.69229e+20
39.004  1.64123e+20
39.1213  1.61945e+20
39.2386  1.62371e+20
39.3559  1.65015e+20
39.4732  1.69537e+20
39.5905  1.756e+20
39.7078  1.82983e+20
39.8251  1.91465e+20
39.9425  2.00912e+20
40.0598  2.11363e+20
40.1771  2.2288e+20
40.2944  2.35613e+20
40.4117  2.49497e+20
40.529  2.64312e+20
40.6463  2.79739e+20
40.7636  2.94954e+20
40.8809  3.09046e+20
40.9982  3.21125e+20
41.1155  3.30313e+20
41.2328  3.35926e+20
41.3501  3.37644e+20
41.4674  3.35518e+20
41.5847  3.29884e+20
41.702  3.21182e+20
41.8193  3.10045e+20
41.9366  2.9692e+20
42.0539  2.82339e+20
42.1712  2.66708e+20
42.2885  2.50469e+20
42.4059  2.34045e+20
42.5232  2.18079e+20
42.6405  2.03282e+20
42.7578  1.90308e+20
42.8751  1.79718e+20
42.9924  1.7177e+20
43.1097  1.66381e+20
43.227  1.63025e+20
43.3443  1.60985e+20
43.4616  1.59334e+20
43.5789  1.57374e+20
43.6962  1.54777e+20
43.8135  1.51737e+20
43.9308  1.49e+20
44.0481  1.47565e+20
44.1654  1.48703e+20
44.2827  1.53503e+20
44.4  1.6255e+20
44.5173  1.75751e+20
44.6347  1.92327e+20
44.752  2.10843e+20
44.8693  2.29479e+20
44.9866  2.46372e+20
45.1039  2.59817e+20
45.2212  2.68494e+20
45.3385  2.7182e+20
45.4558  2.69699e+20
45.5731  2.62708e+20
45.6904  2.51736e+20
45.8077  2.37995e+20
45.925  2.22857e+20
46.0423  2.07707e+20
46.1596  1.93719e+20
46.2769  1.81893e+20
46.3942  1.73006e+20
46.5115  1.67353e+20
46.6288  1.64822e+20
46.7461  1.64933e+20
46.8634  1.66814e+20
46.9808  1.6929e+20
47.0981  1.71166e+20
47.2154  1.71423e+20
47.3327  1.69181e+20
47.45  1.64173e+20
47.5673  1.56505e+20
47.6846  1.46796e+20
47.8019  1.35798e+20
47.9192  1.24494e+20
48.0365  1.13734e+20
48.1538  1.04224e+20
48.2711  9.64117e+19
48.3884  9.05478e+19
48.5057  8.67646e+19
48.623  8.51255e+19
48.7403  8.58074e+19
48.8576  8.9088e+19
48.9749  9.51874e+19
49.0922  1.04371e+20
49.2095  1.16758e+20
49.3269  1.3211e+20
49.4442  1.49981e+20
49.5615  1.69531e+20
49.6788  1.89697e+20
49.7961  2.092e+20
49.9134  2.26913e+20
50.0307  2.4164e+20
50.148  2.52517e+20
50.2653  2.59082e+20
50.3826  2.61044e+20
50.4999  2.58603e+20
50.6172  2.52207e+20
50.7345  2.42587e+20
50.8518  2.30603e+20
50.9691  2.17211e+20
