#S 1 spectral density
#N 2
#UFWHM 64.5178
#L  abscissas [um]  spectral density
-58.5938  1.31121e+21
-58.4764  1.32562e+21
-58.3591  1.34205e+21
-58.2418  1.36005e+21
-58.1245  1.3791e+21
-58.0072  1.39845e+21
-57.8899  1.41792e+21
-57.7726  1.4369e+21
-57.6553  1.4554e+21
-57.538  1.47348e+21
-57.4207  1.49137e+21
-57.3034  1.5093e+21
-57.1861  1.52755e+21
-57.0688  1.54604e+21
-56.9515  1.56473e+21
-56.8342  1.58313e+21
-56.7169  1.60062e+21
-56.5996  1.61666e+21
-56.4823  1.63053e+21
-56.365  1.64207e+21
-56.2477  1.65104e+21
-56.1303  1.65727e+21
-56.013  1.66106e+21
-55.8957  1.6626e+21
-55.7784  1.66256e+21
-55.6611  1.66091e+21
-55.5438  1.65815e+21
-55.4265  1.65467e+21
-55.3092  1.65089e+21
-55.1919  1.64709e+21
-55.0746  1.64389e+21
-54.9573  1.64151e+21
-54.84  1.64063e+21
-54.7227  1.64141e+21
-54.6054  1.64421e+21
-54.4881  1.64903e+21
-54.3708  1.65536e+21
-54.2535  1.66341e+21
-54.1362  1.67271e+21
-54.0189  1.6828e+21
-53.9016  1.69326e+21
-53.7842  1.70397e+21
-53.6669  1.71466e+21
-53.5496  1.72553e+21
-53.4323  1.73653e+21
-53.315  1.74812e+21
-53.1977  1.76077e+21
-53.0804  1.77475e+21
-52.9631  1.79054e+21
-52.8458  1.80841e+21
-52.7285  1.82849e+21
-52.6112  1.85056e+21
-52.4939  1.87447e+21
-52.3766  1.89964e+21
-52.2593  1.92575e+21
-52.142  1.95196e+21
-52.0247  1.97776e+21
-51.9074  2.0025e+21
-51.7901  2.02571e+21
-51.6728  2.04709e+21
-51.5555  2.06647e+21
-51.4381  2.08335e+21
-51.3208  2.09779e+21
-51.2035  2.10995e+21
-51.0862  2.12026e+21
-50.9689  2.12894e+21
-50.8516  2.13671e+21
-50.7343  2.14446e+21
-50.617  2.15313e+21
-50.4997  2.16347e+21
-50.3824  2.17621e+21
-50.2651  2.1916e+21
-50.1478  2.20967e+21
-50.0305  2.22993e+21
-49.9132  2.2517e+21
-49.7959  2.27402e+21
-49.6786  2.29553e+21
-49.5613  2.31568e+21
-49.444  2.33365e+21
-49.3267  2.34907e+21
-49.2094  2.36167e+21
-49.092  2.37151e+21
-48.9747  2.37919e+21
-48.8574  2.38517e+21
-48.7401  2.39003e+21
-48.6228  2.39462e+21
-48.5055  2.39981e+21
-48.3882  2.40615e+21
-48.2709  2.41458e+21
-48.1536  2.4259e+21
-48.0363  2.44054e+21
-47.919  2.45881e+21
-47.8017  2.48079e+21
-47.6844  2.50628e+21
-47.5671  2.53484e+21
-47.4498  2.56567e+21
-47.3325  2.59819e+21
-47.2152  2.63149e+21
-47.0979  2.66518e+21
-46.9806  2.6986e+21
-46.8633  2.73171e+21
-46.7459  2.76403e+21
-46.6286  2.79542e+21
-46.5113  2.82617e+21
-46.394  2.85616e+21
-46.2767  2.88528e+21
-46.1594  2.91356e+21
-46.0421  2.94098e+21
-45.9248  2.96749e+21
-45.8075  2.99289e+21
-45.6902  3.01712e+21
-45.5729  3.03967e+21
-45.4556  3.06011e+21
-45.3383  3.07795e+21
-45.221  3.0925e+21
-45.1037  3.10351e+21
-44.9864  3.11038e+21
-44.8691  3.11341e+21
-44.7518  3.11286e+21
-44.6345  3.10948e+21
-44.5172  3.1041e+21
-44.3998  3.09766e+21
-44.2825  3.09185e+21
-44.1652  3.08766e+21
-44.0479  3.08618e+21
-43.9306  3.08886e+21
-43.8133  3.09682e+21
-43.696  3.11083e+21
-43.5787  3.13216e+21
-43.4614  3.16166e+21
-43.3441  3.19975e+21
-43.2268  3.24655e+21
-43.1095  3.3015e+21
-42.9922  3.36367e+21
-42.8749  3.43138e+21
-42.7576  3.50234e+21
-42.6403  3.57447e+21
-42.523  3.64515e+21
-42.4057  3.71235e+21
-42.2884  3.77431e+21
-42.171  3.82974e+21
-42.0537  3.87788e+21
-41.9364  3.9183e+21
-41.8191  3.95156e+21
-41.7018  3.97751e+21
-41.5845  3.99704e+21
-41.4672  4.01083e+21
-41.3499  4.0196e+21
-41.2326  4.02423e+21
-41.1153  4.02574e+21
-40.998  4.02535e+21
-40.8807  4.02409e+21
-40.7634  4.02273e+21
-40.6461  4.02231e+21
-40.5288  4.02309e+21
-40.4115  4.02571e+21
-40.2942  4.03016e+21
-40.1769  4.03647e+21
-40.0596  4.04462e+21
-39.9423  4.05476e+21
-39.825  4.06703e+21
-39.7076  4.08156e+21
-39.5903  4.09941e+21
-39.473  4.12051e+21
-39.3557  4.14518e+21
-39.2384  4.17353e+21
-39.1211  4.20526e+21
-39.0038  4.23984e+21
-38.8865  4.27658e+21
-38.7692  4.31496e+21
-38.6519  4.35437e+21
-38.5346  4.39412e+21
-38.4173  4.43392e+21
-38.3  4.47371e+21
-38.1827  4.51317e+21
-38.0654  4.55205e+21
-37.9481  4.59043e+21
-37.8308  4.62766e+21
-37.7135  4.66369e+21
-37.5962  4.69796e+21
-37.4789  4.73033e+21
-37.3615  4.76075e+21
-37.2442  4.78923e+21
-37.1269  4.8164e+21
-37.0096  4.84222e+21
-36.8923  4.86764e+21
-36.775  4.89309e+21
-36.6577  4.91894e+21
-36.5404  4.94582e+21
-36.4231  4.97383e+21
-36.3058  5.00371e+21
-36.1885  5.03564e+21
-36.0712  5.06975e+21
-35.9539  5.10647e+21
-35.8366  5.14571e+21
-35.7193  5.18802e+21
-35.602  5.23303e+21
-35.4847  5.28074e+21
-35.3674  5.33055e+21
-35.2501  5.38196e+21
-35.1328  5.43418e+21
-35.0154  5.48621e+21
-34.8981  5.53782e+21
-34.7808  5.58732e+21
-34.6635  5.6341e+21
-34.5462  5.67718e+21
-34.4289  5.7156e+21
-34.3116  5.74858e+21
-34.1943  5.7756e+21
-34.077  5.79636e+21
-33.9597  5.81134e+21
-33.8424  5.82076e+21
-33.7251  5.82594e+21
-33.6078  5.82829e+21
-33.4905  5.82975e+21
-33.3732  5.83208e+21
-33.2559  5.83756e+21
-33.1386  5.84775e+21
-33.0213  5.86451e+21
-32.904  5.88866e+21
-32.7867  5.92103e+21
-32.6693  5.96206e+21
-32.552  6.01116e+21
-32.4347  6.0681e+21
-32.3174  6.13116e+21
-32.2001  6.19907e+21
-32.0828  6.26978e+21
-31.9655  6.34134e+21
-31.8482  6.41154e+21
-31.7309  6.47821e+21
-31.6136  6.53993e+21
-31.4963  6.59512e+21
-31.379  6.64297e+21
-31.2617  6.68317e+21
-31.1444  6.71562e+21
-31.0271  6.74133e+21
-30.9098  6.76103e+21
-30.7925  6.77603e+21
-30.6752  6.78738e+21
-30.5579  6.7962e+21
-30.4406  6.80364e+21
-30.3232  6.81035e+21
-30.2059  6.81724e+21
-30.0886  6.82388e+21
-29.9713  6.83076e+21
-29.854  6.83733e+21
-29.7367  6.8435e+21
-29.6194  6.849e+21
-29.5021  6.85373e+21
-29.3848  6.85788e+21
-29.2675  6.86244e+21
-29.1502  6.86816e+21
-29.0329  6.87685e+21
-28.9156  6.88997e+21
-28.7983  6.90983e+21
-28.681  6.93798e+21
-28.5637  6.97621e+21
-28.4464  7.02576e+21
-28.3291  7.08731e+21
-28.2118  7.16073e+21
-28.0944  7.24541e+21
-27.9771  7.33991e+21
-27.8598  7.44157e+21
-27.7425  7.54774e+21
-27.6252  7.65418e+21
-27.5079  7.75685e+21
-27.3906  7.85124e+21
-27.2733  7.93347e+21
-27.156  8.00016e+21
-27.0387  8.04869e+21
-26.9214  8.07855e+21
-26.8041  8.0902e+21
-26.6868  8.08573e+21
-26.5695  8.06868e+21
-26.4522  8.04311e+21
-26.3349  8.01437e+21
-26.2176  7.98743e+21
-26.1003  7.96687e+21
-25.983  7.95641e+21
-25.8657  7.95908e+21
-25.7483  7.97649e+21
-25.631  8.00919e+21
-25.5137  8.05638e+21
-25.3964  8.11571e+21
-25.2791  8.18442e+21
-25.1618  8.25828e+21
-25.0445  8.33293e+21
-24.9272  8.40377e+21
-24.8099  8.46633e+21
-24.6926  8.51691e+21
-24.5753  8.5537e+21
-24.458  8.57507e+21
-24.3407  8.58198e+21
-24.2234  8.57622e+21
-24.1061  8.56126e+21
-23.9888  8.54111e+21
-23.8715  8.52027e+21
-23.7542  8.5035e+21
-23.6369  8.49475e+21
-23.5196  8.4971e+21
-23.4023  8.51317e+21
-23.2849  8.54383e+21
-23.1676  8.58885e+21
-23.0503  8.6468e+21
-22.933  8.71472e+21
-22.8157  8.78893e+21
-22.6984  8.86475e+21
-22.5811  8.93748e+21
-22.4638  9.00279e+21
-22.3465  9.05637e+21
-22.2292  9.09603e+21
-22.1119  9.12044e+21
-21.9946  9.13043e+21
-21.8773  9.12828e+21
-21.76  9.11745e+21
-21.6427  9.1032e+21
-21.5254  9.09087e+21
-21.4081  9.08562e+21
-21.2908  9.09214e+21
-21.1735  9.11452e+21
-21.0561  9.15547e+21
-20.9388  9.21619e+21
-20.8215  9.29657e+21
-20.7042  9.39428e+21
-20.5869  9.50604e+21
-20.4696  9.62679e+21
-20.3523  9.74995e+21
-20.235  9.86883e+21
-20.1177  9.97598e+21
-20.0004  1.00645e+22
-19.8831  1.01294e+22
-19.7658  1.01664e+22
-19.6485  1.01744e+22
-19.5312  1.01542e+22
-19.4139  1.01091e+22
-19.2966  1.00446e+22
-19.1793  9.96711e+21
-19.062  9.88436e+21
-18.9447  9.8035e+21
-18.8274  9.73129e+21
-18.71  9.67369e+21
-18.5927  9.63498e+21
-18.4754  9.61803e+21
-18.3581  9.62426e+21
-18.2408  9.65292e+21
-18.1235  9.70277e+21
-18.0062  9.7706e+21
-17.8889  9.85234e+21
-17.7716  9.94341e+21
-17.6543  1.00383e+22
-17.537  1.01321e+22
-17.4197  1.022e+22
-17.3024  1.02985e+22
-17.1851  1.03648e+22
-17.0678  1.04179e+22
-16.9505  1.04582e+22
-16.8332  1.04879e+22
-16.7159  1.05091e+22
-16.5986  1.05253e+22
-16.4813  1.05398e+22
-16.364  1.0556e+22
-16.2466  1.05761e+22
-16.1293  1.06022e+22
-16.012  1.06347e+22
-15.8947  1.06737e+22
-15.7774  1.07184e+22
-15.6601  1.07663e+22
-15.5428  1.08157e+22
-15.4255  1.08634e+22
-15.3082  1.09067e+22
-15.1909  1.09433e+22
-15.0736  1.09706e+22
-14.9563  1.09878e+22
-14.839  1.0994e+22
-14.7217  1.09899e+22
-14.6044  1.09769e+22
-14.4871  1.09574e+22
-14.3698  1.09343e+22
-14.2525  1.09107e+22
-14.1352  1.08896e+22
-14.0178  1.08741e+22
-13.9005  1.08661e+22
-13.7832  1.08672e+22
-13.6659  1.08779e+22
-13.5486  1.08976e+22
-13.4313  1.09251e+22
-13.314  1.09585e+22
-13.1967  1.09951e+22
-13.0794  1.10323e+22
-12.9621  1.10671e+22
-12.8448  1.1097e+22
-12.7275  1.11197e+22
-12.6102  1.11342e+22
-12.4929  1.11396e+22
-12.3756  1.11367e+22
-12.2583  1.11264e+22
-12.141  1.11113e+22
-12.0237  1.10933e+22
-11.9064  1.10757e+22
-11.7891  1.10607e+22
-11.6718  1.10511e+22
-11.5544  1.10493e+22
-11.4371  1.10569e+22
-11.3198  1.10745e+22
-11.2025  1.11027e+22
-11.0852  1.1141e+22
-10.9679  1.11884e+22
-10.8506  1.12437e+22
-10.7333  1.13045e+22
-10.616  1.13686e+22
-10.4987  1.1434e+22
-10.3814  1.14983e+22
-10.2641  1.15594e+22
-10.1468  1.16162e+22
-10.0295  1.16674e+22
-9.91217  1.17131e+22
-9.79487  1.17532e+22
-9.67756  1.17886e+22
-9.56026  1.182e+22
-9.44295  1.18486e+22
-9.32565  1.18753e+22
-9.20834  1.19009e+22
-9.09104  1.19262e+22
-8.97373  1.19512e+22
-8.85643  1.19758e+22
-8.73913  1.19997e+22
-8.62182  1.20223e+22
-8.50452  1.20426e+22
-8.38721  1.20599e+22
-8.26991  1.20729e+22
-8.1526  1.20808e+22
-8.03529  1.20828e+22
-7.91799  1.20787e+22
-7.80069  1.20684e+22
-7.68338  1.20525e+22
-7.56608  1.2032e+22
-7.44877  1.20083e+22
-7.33146  1.19827e+22
-7.21416  1.19568e+22
-7.09685  1.1932e+22
-6.97955  1.19094e+22
-6.86224  1.18906e+22
-6.74494  1.18754e+22
-6.62763  1.18642e+22
-6.51033  1.18569e+22
-6.39302  1.18528e+22
-6.27572  1.18515e+22
-6.15842  1.18525e+22
-6.04111  1.18546e+22
-5.92381  1.18574e+22
-5.8065  1.18604e+22
-5.68919  1.18635e+22
-5.57189  1.18666e+22
-5.45458  1.18704e+22
-5.33728  1.18755e+22
-5.21997  1.1883e+22
-5.10267  1.18937e+22
-4.98536  1.19087e+22
-4.86806  1.19283e+22
-4.75075  1.19528e+22
-4.63345  1.19819e+22
-4.51614  1.20149e+22
-4.39884  1.20511e+22
-4.28154  1.20892e+22
-4.16423  1.21282e+22
-4.04692  1.21671e+22
-3.92962  1.22048e+22
-3.81231  1.22406e+22
-3.69501  1.22732e+22
-3.5777  1.23018e+22
-3.4604  1.23251e+22
-3.34309  1.23422e+22
-3.22579  1.23524e+22
-3.10849  1.23555e+22
-2.99118  1.23515e+22
-2.87387  1.23411e+22
-2.75657  1.23258e+22
-2.63926  1.2307e+22
-2.52196  1.22867e+22
-2.40465  1.22665e+22
-2.28735  1.22477e+22
-2.17005  1.22321e+22
-2.05274  1.22193e+22
-1.93544  1.22103e+22
-1.81813  1.22052e+22
-1.70083  1.22035e+22
-1.58352  1.22053e+22
-1.46622  1.22103e+22
-1.34891  1.22181e+22
-1.2316  1.22278e+22
-1.1143  1.22388e+22
-0.996995  1.225e+22
-0.87969  1.22605e+22
-0.762385  1.22693e+22
-0.64508  1.22759e+22
-0.527775  1.22802e+22
-0.41047  1.22823e+22
-0.293165  1.2283e+22
-0.17586  1.22827e+22
-0.058555  1.22822e+22
0.05875  1.22822e+22
0.176055  1.22823e+22
0.29336  1.22825e+22
0.410665  1.22815e+22
0.52797  1.22795e+22
0.645275  1.22753e+22
0.76258  1.22687e+22
0.879885  1.22603e+22
0.99719  1.22502e+22
1.1145  1.22397e+22
1.2318  1.22295e+22
1.3491  1.22204e+22
1.46641  1.22134e+22
1.58371  1.22092e+22
1.70102  1.22083e+22
1.81832  1.22106e+22
1.93563  1.22164e+22
2.05294  1.22257e+22
2.17024  1.22388e+22
2.28754  1.2255e+22
2.40485  1.22739e+22
2.52216  1.22945e+22
2.63946  1.23147e+22
2.75677  1.23336e+22
2.87407  1.23491e+22
2.99137  1.23595e+22
3.10868  1.23637e+22
3.22599  1.23608e+22
3.34329  1.23509e+22
3.4606  1.23341e+22
3.5779  1.23111e+22
3.69521  1.22832e+22
3.81251  1.2251e+22
3.92982  1.22157e+22
4.04712  1.21785e+22
4.16443  1.214e+22
4.28173  1.21014e+22
4.39903  1.20638e+22
4.51634  1.20279e+22
4.63364  1.1995e+22
4.75095  1.19663e+22
4.86825  1.1942e+22
4.98556  1.19226e+22
5.10286  1.19077e+22
5.22017  1.18973e+22
5.33748  1.18901e+22
5.45478  1.18853e+22
5.57209  1.18818e+22
5.68939  1.18789e+22
5.8067  1.18764e+22
5.924  1.18738e+22
6.0413  1.18714e+22
6.15861  1.18695e+22
6.27591  1.18692e+22
6.39322  1.1871e+22
6.51052  1.18755e+22
6.62783  1.18832e+22
6.74514  1.18946e+22
6.86244  1.191e+22
6.97975  1.19292e+22
7.09705  1.19518e+22
7.21436  1.19768e+22
7.33166  1.20026e+22
7.44897  1.20284e+22
7.56627  1.20523e+22
7.68358  1.2073e+22
7.80088  1.2089e+22
7.91819  1.20994e+22
8.03549  1.21039e+22
8.1528  1.21024e+22
8.2701  1.20948e+22
8.38741  1.20823e+22
8.50471  1.20657e+22
8.62202  1.2046e+22
8.73932  1.20241e+22
8.85662  1.20008e+22
8.97393  1.19767e+22
9.09123  1.19523e+22
9.20854  1.19273e+22
9.32584  1.1902e+22
9.44315  1.18756e+22
9.56045  1.1847e+22
9.67776  1.18157e+22
9.79506  1.17802e+22
9.91237  1.174e+22
10.0297  1.16943e+22
10.147  1.1643e+22
10.2643  1.15863e+22
10.3816  1.15251e+22
10.4989  1.14612e+22
10.6162  1.13961e+22
10.7335  1.13322e+22
10.8508  1.12718e+22
10.9681  1.12173e+22
11.0854  1.11706e+22
11.2027  1.1133e+22
11.32  1.11055e+22
11.4373  1.10883e+22
11.5546  1.10814e+22
11.6719  1.10839e+22
11.7893  1.10939e+22
11.9066  1.11092e+22
12.0239  1.11271e+22
12.1412  1.11453e+22
12.2585  1.11606e+22
12.3758  1.11707e+22
12.4931  1.11737e+22
12.6104  1.1168e+22
12.7277  1.11535e+22
12.845  1.11309e+22
12.9623  1.11009e+22
13.0796  1.10662e+22
13.1969  1.10292e+22
13.3142  1.0993e+22
13.4315  1.09598e+22
13.5488  1.09328e+22
13.6661  1.09136e+22
13.7834  1.09034e+22
13.9007  1.09027e+22
14.018  1.09113e+22
14.1354  1.09273e+22
14.2527  1.09487e+22
14.37  1.09727e+22
14.4873  1.09961e+22
14.6046  1.10158e+22
14.7219  1.10289e+22
14.8392  1.10333e+22
14.9565  1.10273e+22
15.0738  1.10103e+22
15.1911  1.09832e+22
15.3084  1.09469e+22
15.4257  1.09039e+22
15.543  1.08564e+22
15.6603  1.08077e+22
15.7776  1.07601e+22
15.8949  1.07161e+22
16.0122  1.06776e+22
16.1295  1.06453e+22
16.2468  1.06195e+22
16.3641  1.05998e+22
16.4815  1.05838e+22
16.5988  1.05692e+22
16.7161  1.05528e+22
16.8334  1.05314e+22
16.9507  1.05015e+22
17.068  1.04606e+22
17.1853  1.04071e+22
17.3026  1.03403e+22
17.4199  1.02616e+22
17.5372  1.01737e+22
17.6545  1.00797e+22
17.7718  9.98496e+21
17.8891  9.89432e+21
18.0064  9.81316e+21
18.1237  9.746e+21
18.241  9.69711e+21
18.3583  9.66938e+21
18.4756  9.66426e+21
18.5929  9.6822e+21
18.7102  9.7221e+21
18.8275  9.7806e+21
18.9449  9.85347e+21
19.0622  9.93504e+21
19.1795  1.00182e+22
19.2968  1.00958e+22
19.4141  1.01602e+22
19.5314  1.02051e+22
19.6487  1.02248e+22
19.766  1.02163e+22
19.8833  1.01787e+22
20.0006  1.01134e+22
20.1179  1.00243e+22
20.2352  9.91692e+21
20.3525  9.79816e+21
20.4698  9.67518e+21
20.5871  9.55503e+21
20.7044  9.44387e+21
20.8217  9.34682e+21
20.939  9.26745e+21
21.0563  9.2077e+21
21.1736  9.16778e+21
21.291  9.14615e+21
21.4083  9.14039e+21
21.5256  9.14648e+21
21.6429  9.15932e+21
21.7602  9.17371e+21
21.8775  9.18444e+21
21.9948  9.18633e+21
22.1121  9.17599e+21
22.2294  9.15112e+21
22.3467  9.11085e+21
22.464  9.05657e+21
22.5813  8.99078e+21
22.6986  8.91748e+21
22.8159  8.84121e+21
22.9332  8.76677e+21
23.0505  8.69885e+21
23.1678  8.64088e+21
23.2851  8.596e+21
23.4024  8.56579e+21
23.5198  8.55004e+21
23.6371  8.548e+21
23.7544  8.55723e+21
23.8717  8.5744e+21
23.989  8.59545e+21
24.1063  8.61571e+21
24.2236  8.63085e+21
24.3409  8.63649e+21
24.4582  8.62936e+21
24.5755  8.60768e+21
24.6928  8.57074e+21
24.8101  8.5197e+21
24.9274  8.45688e+21
25.0447  8.38594e+21
25.162  8.31129e+21
25.2793  8.23755e+21
25.3966  8.169e+21
25.5139  8.10995e+21
25.6312  8.06345e+21
25.7485  8.03135e+21
25.8658  8.01474e+21
25.9832  8.0127e+21
26.1005  8.02397e+21
26.2178  8.04537e+21
26.3351  8.07296e+21
26.4524  8.10203e+21
26.5697  8.12782e+21
26.687  8.14493e+21
26.8043  8.14926e+21
26.9216  8.13754e+21
27.0389  8.1072e+21
27.1562  8.05796e+21
27.2735  7.99078e+21
27.3908  7.90787e+21
27.5081  7.81289e+21
27.6254  7.70969e+21
27.7427  7.603e+21
27.86  7.49666e+21
27.9773  7.39476e+21
28.0946  7.30046e+21
28.212  7.21584e+21
28.3293  7.14275e+21
28.4466  7.08159e+21
28.5639  7.03256e+21
28.6812  6.99477e+21
28.7985  6.96707e+21
28.9158  6.94779e+21
29.0331  6.93501e+21
29.1504  6.92665e+21
29.2677  6.92114e+21
29.385  6.91681e+21
29.5023  6.91276e+21
29.6196  6.90797e+21
29.7369  6.90241e+21
29.8542  6.89612e+21
29.9715  6.88938e+21
30.0888  6.8822e+21
30.2061  6.87526e+21
30.3234  6.86844e+21
30.4407  6.86144e+21
30.558  6.85397e+21
30.6754  6.84485e+21
30.7927  6.83349e+21
30.91  6.81851e+21
31.0273  6.79884e+21
31.1446  6.77298e+21
31.2619  6.74045e+21
31.3792  6.70027e+21
31.4965  6.6524e+21
31.6138  6.59722e+21
31.7311  6.53545e+21
31.8484  6.46858e+21
31.9657  6.39828e+21
32.083  6.32661e+21
32.2003  6.25583e+21
32.3176  6.18776e+21
32.4349  6.12463e+21
32.5522  6.06774e+21
32.6695  6.01853e+21
32.7868  5.97767e+21
32.9042  5.94517e+21
33.0215  5.92109e+21
33.1388  5.90433e+21
33.2561  5.89413e+21
33.3734  5.88865e+21
33.4907  5.88611e+21
33.608  5.88458e+21
33.7253  5.88196e+21
33.8426  5.87652e+21
33.9599  5.86666e+21
34.0772  5.85144e+21
34.1945  5.83028e+21
34.3118  5.80274e+21
34.4291  5.76933e+21
34.5464  5.7304e+21
34.6637  5.68703e+21
34.781  5.63983e+21
34.8983  5.59002e+21
35.0156  5.53841e+21
35.1329  5.48599e+21
35.2503  5.43377e+21
35.3676  5.38227e+21
35.4849  5.33258e+21
35.6022  5.28506e+21
35.7195  5.24018e+21
35.8368  5.19801e+21
35.9541  5.15874e+21
36.0714  5.12226e+21
36.1887  5.08822e+21
36.306  5.05641e+21
36.4233  5.02662e+21
36.5406  4.99838e+21
36.6579  4.97143e+21
36.7752  4.94527e+21
36.8925  4.91965e+21
37.0098  4.894e+21
37.1271  4.86775e+21
37.2444  4.8403e+21
37.3617  4.81146e+21
37.479  4.78081e+21
37.5964  4.74797e+21
37.7137  4.71349e+21
37.831  4.67714e+21
37.9483  4.63974e+21
38.0656  4.60112e+21
38.1829  4.56194e+21
38.3002  4.52231e+21
38.4175  4.48241e+21
38.5348  4.44238e+21
38.6521  4.40235e+21
38.7694  4.36281e+21
38.8867  4.32433e+21
39.004  4.28739e+21
39.1213  4.25264e+21
39.2386  4.22074e+21
39.3559  4.19232e+21
39.4732  4.16753e+21
39.5905  4.14647e+21
39.7078  4.1287e+21
39.8251  4.11384e+21
39.9425  4.10165e+21
40.0598  4.09141e+21
40.1771  4.0834e+21
40.2944  4.07709e+21
40.4117  4.07265e+21
40.529  4.07008e+21
40.6463  4.06914e+21
40.7636  4.06962e+21
40.8809  4.07085e+21
40.9982  4.07207e+21
41.1155  4.07235e+21
41.2328  4.07051e+21
41.3501  4.06559e+21
41.4674  4.05644e+21
41.5847  4.04234e+21
41.702  4.0223e+21
41.8193  3.99576e+21
41.9366  3.96209e+21
42.0539  3.92108e+21
42.1712  3.87248e+21
42.2885  3.81644e+21
42.4059  3.75396e+21
42.5232  3.68623e+21
42.6405  3.61518e+21
42.7578  3.54261e+21
42.8751  3.47127e+21
42.9924  3.40333e+21
43.1097  3.34103e+21
43.227  3.28583e+21
43.3443  3.23888e+21
43.4616  3.20072e+21
43.5789  3.17115e+21
43.6962  3.14973e+21
43.8135  3.13546e+21
43.9308  3.12748e+21
44.0481  3.12468e+21
44.1654  3.12595e+21
44.2827  3.13012e+21
44.4  3.13591e+21
44.5173  3.1419e+21
44.6347  3.14716e+21
44.752  3.15029e+21
44.8693  3.15075e+21
44.9866  3.14734e+21
45.1039  3.14011e+21
45.2212  3.12891e+21
45.3385  3.1139e+21
45.4558  3.09583e+21
45.5731  3.07506e+21
45.6904  3.05217e+21
45.8077  3.02773e+21
45.925  3.00196e+21
46.0423  2.97516e+21
46.1596  2.94741e+21
46.2769  2.91881e+21
46.3942  2.88943e+21
46.5115  2.85921e+21
46.6288  2.82826e+21
46.7461  2.79657e+21
46.8634  2.76413e+21
46.9808  2.73091e+21
47.0981  2.69722e+21
47.2154  2.66341e+21
47.3327  2.62992e+21
47.45  2.59726e+21
47.5673  2.56628e+21
47.6846  2.53753e+21
47.8019  2.51196e+21
47.9192  2.48983e+21
48.0365  2.47127e+21
48.1538  2.45649e+21
48.2711  2.44501e+21
48.3884  2.43634e+21
48.5057  2.42959e+21
48.623  2.4242e+21
48.7403  2.41931e+21
48.8576  2.41404e+21
48.9749  2.40786e+21
49.0922  2.3999e+21
49.2095  2.38958e+21
49.3269  2.37667e+21
49.4442  2.3611e+21
49.5615  2.34298e+21
49.6788  2.32248e+21
49.7961  2.30072e+21
49.9134  2.27831e+21
50.0307  2.25639e+21
50.148  2.23606e+21
50.2653  2.218e+21
50.3826  2.20242e+21
50.4999  2.18972e+21
50.6172  2.17925e+21
50.7345  2.17047e+21
50.8518  2.16237e+21
