#S 1 spectral density
#N 2
#UFWHM 9.97093
#L  abscissas [um]  spectral density
-58.5938  1.14944e+20
-58.4764  1.1124e+20
-58.3591  1.07286e+20
-58.2418  1.02752e+20
-58.1245  9.74032e+19
-58.0072  9.10956e+19
-57.8899  8.39815e+19
-57.7726  7.63836e+19
-57.6553  6.88221e+19
-57.538  6.19427e+19
-57.4207  5.65102e+19
-57.3034  5.29974e+19
-57.1861  5.1725e+19
-57.0688  5.2692e+19
-56.9515  5.56242e+19
-56.8342  5.98679e+19
-56.7169  6.47596e+19
-56.5996  6.94879e+19
-56.4823  7.34609e+19
-56.365  7.62256e+19
-56.2477  7.76373e+19
-56.1303  7.77263e+19
-56.013  7.68108e+19
-55.8957  7.51834e+19
-55.7784  7.32207e+19
-55.6611  7.1166e+19
-55.5438  6.92696e+19
-55.4265  6.76277e+19
-55.3092  6.62415e+19
-55.1919  6.5178e+19
-55.0746  6.43421e+19
-54.9573  6.37849e+19
-54.84  6.34358e+19
-54.7227  6.32888e+19
-54.6054  6.32258e+19
-54.4881  6.3104e+19
-54.3708  6.27435e+19
-54.2535  6.19064e+19
-54.1362  6.03555e+19
-54.0189  5.7892e+19
-53.9016  5.44102e+19
-53.7842  4.9906e+19
-53.6669  4.45995e+19
-53.5496  3.87821e+19
-53.4323  3.28999e+19
-53.315  2.75422e+19
-53.1977  2.33238e+19
-53.0804  2.07999e+19
-52.9631  2.04773e+19
-52.8458  2.2626e+19
-52.7285  2.72717e+19
-52.6112  3.42149e+19
-52.4939  4.2977e+19
-52.3766  5.28891e+19
-52.2593  6.3146e+19
-52.142  7.2944e+19
-52.0247  8.16297e+19
-51.9074  8.86695e+19
-51.7901  9.38168e+19
-51.6728  9.70727e+19
-51.5555  9.86858e+19
-51.4381  9.91238e+19
-51.3208  9.89349e+19
-51.2035  9.87292e+19
-51.0862  9.91431e+19
-50.9689  1.00685e+20
-50.8516  1.03734e+20
-50.7343  1.08432e+20
-50.617  1.14718e+20
-50.4997  1.22309e+20
-50.3824  1.30541e+20
-50.2651  1.38605e+20
-50.1478  1.45529e+20
-50.0305  1.5034e+20
-49.9132  1.52022e+20
-49.7959  1.49998e+20
-49.6786  1.44002e+20
-49.5613  1.34204e+20
-49.444  1.21123e+20
-49.3267  1.05814e+20
-49.2094  8.9421e+19
-49.092  7.31546e+19
-48.9747  5.81051e+19
-48.8574  4.51093e+19
-48.7401  3.46736e+19
-48.6228  2.69701e+19
-48.5055  2.1914e+19
-48.3882  1.91691e+19
-48.2709  1.83739e+19
-48.1536  1.91331e+19
-48.0363  2.11393e+19
-47.919  2.42173e+19
-47.8017  2.82959e+19
-47.6844  3.34214e+19
-47.5671  3.97535e+19
-47.4498  4.74251e+19
-47.3325  5.66909e+19
-47.2152  6.77245e+19
-47.0979  8.05932e+19
-46.9806  9.52713e+19
-46.8633  1.11563e+20
-46.7459  1.28976e+20
-46.6286  1.46968e+20
-46.5113  1.64703e+20
-46.394  1.81399e+20
-46.2767  1.96182e+20
-46.1594  2.08507e+20
-46.0421  2.17912e+20
-45.9248  2.24327e+20
-45.8075  2.27931e+20
-45.6902  2.29118e+20
-45.5729  2.28483e+20
-45.4556  2.26649e+20
-45.3383  2.24195e+20
-45.221  2.21631e+20
-45.1037  2.19284e+20
-44.9864  2.17389e+20
-44.8691  2.16074e+20
-44.7518  2.15466e+20
-44.6345  2.15445e+20
-44.5172  2.15845e+20
-44.3998  2.1649e+20
-44.2825  2.17121e+20
-44.1652  2.17386e+20
-44.0479  2.16821e+20
-43.9306  2.15238e+20
-43.8133  2.12402e+20
-43.696  2.08346e+20
-43.5787  2.03408e+20
-43.4614  1.97916e+20
-43.3441  1.92422e+20
-43.2268  1.87479e+20
-43.1095  1.83365e+20
-42.9922  1.80338e+20
-42.8749  1.78234e+20
-42.7576  1.76757e+20
-42.6403  1.75469e+20
-42.523  1.73869e+20
-42.4057  1.71574e+20
-42.2884  1.68352e+20
-42.171  1.64155e+20
-42.0537  1.5923e+20
-41.9364  1.53788e+20
-41.8191  1.48179e+20
-41.7018  1.42647e+20
-41.5845  1.37374e+20
-41.4672  1.32486e+20
-41.3499  1.28008e+20
-41.2326  1.23982e+20
-41.1153  1.20484e+20
-40.998  1.17671e+20
-40.8807  1.15681e+20
-40.7634  1.14764e+20
-40.6461  1.14986e+20
-40.5288  1.16354e+20
-40.4115  1.18784e+20
-40.2942  1.21988e+20
-40.1769  1.25724e+20
-40.0596  1.29598e+20
-39.9423  1.33342e+20
-39.825  1.36816e+20
-39.7076  1.39916e+20
-39.5903  1.42648e+20
-39.473  1.44905e+20
-39.3557  1.46543e+20
-39.2384  1.47385e+20
-39.1211  1.47173e+20
-39.0038  1.4551e+20
-38.8865  1.42164e+20
-38.7692  1.37034e+20
-38.6519  1.30229e+20
-38.5346  1.22118e+20
-38.4173  1.13309e+20
-38.3  1.04551e+20
-38.1827  9.65372e+19
-38.0654  8.9975e+19
-37.9481  8.53094e+19
-37.8308  8.26663e+19
-37.7135  8.20616e+19
-37.5962  8.3152e+19
-37.4789  8.55496e+19
-37.3615  8.87883e+19
-37.2442  9.23502e+19
-37.1269  9.5902e+19
-37.0096  9.90742e+19
-36.8923  1.01628e+20
-36.775  1.03367e+20
-36.6577  1.0417e+20
-36.5404  1.04131e+20
-36.4231  1.03323e+20
-36.3058  1.01974e+20
-36.1885  1.00455e+20
-36.0712  9.91695e+19
-35.9539  9.86304e+19
-35.8366  9.92463e+19
-35.7193  1.0133e+20
-35.602  1.05111e+20
-35.4847  1.10573e+20
-35.3674  1.17518e+20
-35.2501  1.25675e+20
-35.1328  1.34651e+20
-35.0154  1.44063e+20
-34.8981  1.5353e+20
-34.7808  1.62755e+20
-34.6635  1.71559e+20
-34.5462  1.79723e+20
-34.4289  1.87178e+20
-34.3116  1.93833e+20
-34.1943  1.99659e+20
-34.077  2.04619e+20
-33.9597  2.08814e+20
-33.8424  2.12216e+20
-33.7251  2.14972e+20
-33.6078  2.17173e+20
-33.4905  2.1884e+20
-33.3732  2.19971e+20
-33.2559  2.20522e+20
-33.1386  2.20303e+20
-33.0213  2.19106e+20
-32.904  2.1683e+20
-32.7867  2.13355e+20
-32.6693  2.08603e+20
-32.552  2.02744e+20
-32.4347  1.95928e+20
-32.3174  1.88549e+20
-32.2001  1.80927e+20
-32.0828  1.73393e+20
-31.9655  1.66221e+20
-31.8482  1.59804e+20
-31.7309  1.54242e+20
-31.6136  1.49767e+20
-31.4963  1.46493e+20
-31.379  1.44522e+20
-31.2617  1.43916e+20
-31.1444  1.44651e+20
-31.0271  1.46626e+20
-30.9098  1.49569e+20
-30.7925  1.5329e+20
-30.6752  1.57305e+20
-30.5579  1.61181e+20
-30.4406  1.64608e+20
-30.3232  1.67355e+20
-30.2059  1.69224e+20
-30.0886  1.70337e+20
-29.9713  1.71026e+20
-29.854  1.71814e+20
-29.7367  1.7337e+20
-29.6194  1.76572e+20
-29.5021  1.82323e+20
-29.3848  1.91488e+20
-29.2675  2.04726e+20
-29.1502  2.22496e+20
-29.0329  2.44904e+20
-28.9156  2.71513e+20
-28.7983  3.01385e+20
-28.681  3.33273e+20
-28.5637  3.65488e+20
-28.4464  3.96103e+20
-28.3291  4.2354e+20
-28.2118  4.46301e+20
-28.0944  4.63347e+20
-27.9771  4.74607e+20
-27.8598  4.80293e+20
-27.7425  4.81394e+20
-27.6252  4.79315e+20
-27.5079  4.7573e+20
-27.3906  4.72315e+20
-27.2733  4.70927e+20
-27.156  4.72788e+20
-27.0387  4.78819e+20
-26.9214  4.89676e+20
-26.8041  5.052e+20
-26.6868  5.24924e+20
-26.5695  5.47668e+20
-26.4522  5.72036e+20
-26.3349  5.96107e+20
-26.2176  6.17801e+20
-26.1003  6.35273e+20
-25.983  6.46848e+20
-25.8657  6.51271e+20
-25.7483  6.48219e+20
-25.631  6.37778e+20
-25.5137  6.20989e+20
-25.3964  5.99203e+20
-25.2791  5.74139e+20
-25.1618  5.47498e+20
-25.0445  5.20845e+20
-24.9272  4.9521e+20
-24.8099  4.71611e+20
-24.6926  4.50322e+20
-24.5753  4.31342e+20
-24.458  4.14703e+20
-24.3407  4.00271e+20
-24.2234  3.87797e+20
-24.1061  3.77286e+20
-23.9888  3.68661e+20
-23.8715  3.62021e+20
-23.7542  3.57114e+20
-23.6369  3.54187e+20
-23.5196  3.5307e+20
-23.4023  3.53649e+20
-23.2849  3.55977e+20
-23.1676  3.59838e+20
-23.0503  3.65051e+20
-22.933  3.71317e+20
-22.8157  3.78061e+20
-22.6984  3.84662e+20
-22.5811  3.90429e+20
-22.4638  3.94654e+20
-22.3465  3.96779e+20
-22.2292  3.96584e+20
-22.1119  3.94078e+20
-21.9946  3.89851e+20
-21.8773  3.84689e+20
-21.76  3.79541e+20
-21.6427  3.75225e+20
-21.5254  3.72609e+20
-21.4081  3.71953e+20
-21.2908  3.73411e+20
-21.1735  3.76829e+20
-21.0561  3.81877e+20
-20.9388  3.88122e+20
-20.8215  3.95501e+20
-20.7042  4.03649e+20
-20.5869  4.12472e+20
-20.4696  4.21926e+20
-20.3523  4.31656e+20
-20.235  4.41245e+20
-20.1177  4.50055e+20
-20.0004  4.57255e+20
-19.8831  4.62439e+20
-19.7658  4.64912e+20
-19.6485  4.64567e+20
-19.5312  4.61723e+20
-19.4139  4.56957e+20
-19.2966  4.51243e+20
-19.1793  4.45673e+20
-19.062  4.41075e+20
-18.9447  4.38419e+20
-18.8274  4.38121e+20
-18.71  4.40625e+20
-18.5927  4.45947e+20
-18.4754  4.54109e+20
-18.3581  4.6531e+20
-18.2408  4.79346e+20
-18.1235  4.96578e+20
-18.0062  5.16938e+20
-17.8889  5.40441e+20
-17.7716  5.66957e+20
-17.6543  5.95895e+20
-17.537  6.26798e+20
-17.4197  6.58935e+20
-17.3024  6.91701e+20
-17.1851  7.24688e+20
-17.0678  7.57725e+20
-16.9505  7.90804e+20
-16.8332  8.24362e+20
-16.7159  8.58577e+20
-16.5986  8.93951e+20
-16.4813  9.30629e+20
-16.364  9.68579e+20
-16.2466  1.00776e+21
-16.1293  1.04795e+21
-16.012  1.08868e+21
-15.8947  1.12972e+21
-15.7774  1.17104e+21
-15.6601  1.21242e+21
-15.5428  1.2543e+21
-15.4255  1.29722e+21
-15.3082  1.34153e+21
-15.1909  1.38825e+21
-15.0736  1.43791e+21
-14.9563  1.49145e+21
-14.839  1.5493e+21
-14.7217  1.61232e+21
-14.6044  1.68088e+21
-14.4871  1.755e+21
-14.3698  1.83482e+21
-14.2525  1.92028e+21
-14.1352  2.01097e+21
-14.0178  2.10632e+21
-13.9005  2.20616e+21
-13.7832  2.30977e+21
-13.6659  2.41732e+21
-13.5486  2.52817e+21
-13.4313  2.64296e+21
-13.314  2.7616e+21
-13.1967  2.8846e+21
-13.0794  3.01194e+21
-12.9621  3.14381e+21
-12.8448  3.27988e+21
-12.7275  3.42013e+21
-12.6102  3.56345e+21
-12.4929  3.7091e+21
-12.3756  3.8562e+21
-12.2583  4.00322e+21
-12.141  4.14961e+21
-12.0237  4.29393e+21
-11.9064  4.43614e+21
-11.7891  4.5755e+21
-11.6718  4.71276e+21
-11.5544  4.84808e+21
-11.4371  4.98285e+21
-11.3198  5.11871e+21
-11.2025  5.25749e+21
-11.0852  5.40102e+21
-10.9679  5.55146e+21
-10.8506  5.71032e+21
-10.7333  5.87906e+21
-10.616  6.05829e+21
-10.4987  6.24799e+21
-10.3814  6.44775e+21
-10.2641  6.65651e+21
-10.1468  6.87357e+21
-10.0295  7.09751e+21
-9.91217  7.32712e+21
-9.79487  7.56169e+21
-9.67756  7.80082e+21
-9.56026  8.0447e+21
-9.44295  8.29354e+21
-9.32565  8.54913e+21
-9.20834  8.81232e+21
-9.09104  9.08539e+21
-8.97373  9.37042e+21
-8.85643  9.66906e+21
-8.73913  9.98423e+21
-8.62182  1.03169e+22
-8.50452  1.06684e+22
-8.38721  1.10396e+22
-8.26991  1.14303e+22
-8.1526  1.18404e+22
-8.03529  1.22693e+22
-7.91799  1.27159e+22
-7.80069  1.31795e+22
-7.68338  1.36595e+22
-7.56608  1.41561e+22
-7.44877  1.46701e+22
-7.33146  1.52028e+22
-7.21416  1.57565e+22
-7.09685  1.6334e+22
-6.97955  1.69388e+22
-6.86224  1.75744e+22
-6.74494  1.82438e+22
-6.62763  1.89509e+22
-6.51033  1.96978e+22
-6.39302  2.04864e+22
-6.27572  2.13173e+22
-6.15842  2.21901e+22
-6.04111  2.31028e+22
-5.92381  2.40534e+22
-5.8065  2.5038e+22
-5.68919  2.60518e+22
-5.57189  2.70915e+22
-5.45458  2.81525e+22
-5.33728  2.92308e+22
-5.21997  3.0324e+22
-5.10267  3.14297e+22
-4.98536  3.25467e+22
-4.86806  3.3674e+22
-4.75075  3.48117e+22
-4.63345  3.59596e+22
-4.51614  3.7118e+22
-4.39884  3.8286e+22
-4.28154  3.94623e+22
-4.16423  4.06464e+22
-4.04692  4.18337e+22
-3.92962  4.3021e+22
-3.81231  4.42032e+22
-3.69501  4.53738e+22
-3.5777  4.65271e+22
-3.4604  4.76561e+22
-3.34309  4.87542e+22
-3.22579  4.98165e+22
-3.10849  5.08398e+22
-2.99118  5.18205e+22
-2.87387  5.27597e+22
-2.75657  5.36584e+22
-2.63926  5.4519e+22
-2.52196  5.5345e+22
-2.40465  5.614e+22
-2.28735  5.69066e+22
-2.17005  5.76462e+22
-2.05274  5.83594e+22
-1.93544  5.90439e+22
-1.81813  5.96972e+22
-1.70083  6.03148e+22
-1.58352  6.08931e+22
-1.46622  6.14256e+22
-1.34891  6.19075e+22
-1.2316  6.23356e+22
-1.1143  6.27068e+22
-0.996995  6.30207e+22
-0.87969  6.32783e+22
-0.762385  6.3482e+22
-0.64508  6.36381e+22
-0.527775  6.37527e+22
-0.41047  6.38331e+22
-0.293165  6.38866e+22
-0.17586  6.39204e+22
-0.058555  6.39389e+22
0.05875  6.39451e+22
0.176055  6.3938e+22
0.29336  6.39167e+22
0.410665  6.38743e+22
0.52797  6.38049e+22
0.645275  6.3701e+22
0.76258  6.35557e+22
0.879885  6.33615e+22
0.99719  6.31139e+22
1.1145  6.28098e+22
1.2318  6.24476e+22
1.3491  6.20284e+22
1.46641  6.15555e+22
1.58371  6.10318e+22
1.70102  6.04627e+22
1.81832  5.98533e+22
1.93563  5.92086e+22
2.05294  5.85325e+22
2.17024  5.7828e+22
2.28754  5.70965e+22
2.40485  5.63373e+22
2.52216  5.55498e+22
2.63946  5.47303e+22
2.75677  5.38758e+22
2.87407  5.29832e+22
2.99137  5.20498e+22
3.10868  5.10735e+22
3.22599  5.00552e+22
3.34329  4.89976e+22
3.4606  4.79032e+22
3.5779  4.6778e+22
3.69521  4.56287e+22
3.81251  4.4461e+22
3.92982  4.32819e+22
4.04712  4.20974e+22
4.16443  4.09116e+22
4.28173  3.97296e+22
4.39903  3.85536e+22
4.51634  3.73857e+22
4.63364  3.62267e+22
4.75095  3.50773e+22
4.86825  3.39375e+22
4.98556  3.28076e+22
5.10286  3.16875e+22
5.22017  3.05778e+22
5.33748  2.94802e+22
5.45478  2.83969e+22
5.57209  2.73309e+22
5.68939  2.62865e+22
5.8067  2.52667e+22
5.924  2.42767e+22
6.0413  2.33207e+22
6.15861  2.24024e+22
6.27591  2.15236e+22
6.39322  2.06871e+22
6.51052  1.98927e+22
6.62783  1.91395e+22
6.74514  1.8426e+22
6.86244  1.77496e+22
6.97975  1.71072e+22
7.09705  1.64955e+22
7.21436  1.59108e+22
7.33166  1.53497e+22
7.44897  1.481e+22
7.56627  1.4289e+22
7.68358  1.37853e+22
7.80088  1.32984e+22
7.91819  1.28284e+22
8.03549  1.23758e+22
8.1528  1.19412e+22
8.2701  1.15255e+22
8.38741  1.11295e+22
8.50471  1.07535e+22
8.62202  1.03979e+22
8.73932  1.00611e+22
8.85662  9.74221e+21
8.97393  9.43944e+21
9.09123  9.15136e+21
9.20854  8.87486e+21
9.32584  8.60832e+21
9.44315  8.3501e+21
9.56045  8.09838e+21
9.67776  7.85187e+21
9.79506  7.61042e+21
9.91237  7.37398e+21
10.0297  7.14281e+21
10.147  6.91752e+21
10.2643  6.69937e+21
10.3816  6.48957e+21
10.4989  6.28917e+21
10.6162  6.09917e+21
10.7335  5.91989e+21
10.8508  5.75091e+21
10.9681  5.59187e+21
11.0854  5.44116e+21
11.2027  5.29727e+21
11.32  5.15798e+21
11.4373  5.02155e+21
11.5546  4.88594e+21
11.6719  4.74978e+21
11.7893  4.61167e+21
11.9066  4.47106e+21
12.0239  4.32792e+21
12.1412  4.18231e+21
12.2585  4.03491e+21
12.3758  3.88663e+21
12.4931  3.73854e+21
12.6104  3.59171e+21
12.7277  3.44726e+21
12.845  3.30608e+21
12.9623  3.16887e+21
13.0796  3.03596e+21
13.1969  2.9076e+21
13.3142  2.78373e+21
13.4315  2.66412e+21
13.5488  2.54837e+21
13.6661  2.43653e+21
13.7834  2.32839e+21
13.9007  2.2239e+21
14.018  2.12351e+21
14.1354  2.02746e+21
14.2527  1.93635e+21
14.37  1.85037e+21
14.4873  1.7701e+21
14.6046  1.69571e+21
14.7219  1.62687e+21
14.8392  1.56349e+21
14.9565  1.50527e+21
15.0738  1.45143e+21
15.1911  1.40133e+21
15.3084  1.35423e+21
15.4257  1.30944e+21
15.543  1.26605e+21
15.6603  1.2236e+21
15.7776  1.18164e+21
15.8949  1.13991e+21
16.0122  1.09816e+21
16.1295  1.05691e+21
16.2468  1.01624e+21
16.3641  9.7661e+20
16.4815  9.38151e+20
16.5988  9.01062e+20
16.7161  8.6531e+20
16.8334  8.30662e+20
16.9507  7.96734e+20
17.068  7.63124e+20
17.1853  7.29628e+20
17.3026  6.96175e+20
17.4199  6.62912e+20
17.5372  6.30476e+20
17.6545  5.99174e+20
17.7718  5.69875e+20
17.8891  5.43283e+20
18.0064  5.19531e+20
18.1237  4.98878e+20
18.241  4.81643e+20
18.3583  4.6742e+20
18.4756  4.5628e+20
18.5929  4.48076e+20
18.7102  4.42867e+20
18.8275  4.4038e+20
18.9449  4.40722e+20
19.0622  4.43433e+20
19.1795  4.47976e+20
19.2968  4.53668e+20
19.4141  4.59392e+20
19.5314  4.641e+20
19.6487  4.66956e+20
19.766  4.67234e+20
19.8833  4.64769e+20
20.0006  4.59616e+20
20.1179  4.52323e+20
20.2352  4.43506e+20
20.3525  4.33946e+20
20.4698  4.24317e+20
20.5871  4.14941e+20
20.7044  4.06069e+20
20.8217  3.98037e+20
20.939  3.90775e+20
21.0563  3.845e+20
21.1736  3.7954e+20
21.291  3.76253e+20
21.4083  3.74887e+20
21.5256  3.75669e+20
21.6429  3.78445e+20
21.7602  3.82828e+20
21.8775  3.88052e+20
21.9948  3.93219e+20
22.1121  3.97371e+20
22.2294  3.99813e+20
22.3467  3.99959e+20
22.464  3.97737e+20
22.5813  3.93462e+20
22.6986  3.87646e+20
22.8159  3.80905e+20
22.9332  3.74126e+20
23.0505  3.679e+20
23.1678  3.62626e+20
23.2851  3.58795e+20
23.4024  3.56478e+20
23.5198  3.55838e+20
23.6371  3.56996e+20
23.7544  3.59941e+20
23.8717  3.64758e+20
23.989  3.71412e+20
24.1063  3.80033e+20
24.2236  3.90482e+20
24.3409  4.02863e+20
24.4582  4.17387e+20
24.5755  4.33919e+20
24.6928  4.52876e+20
24.8101  4.74151e+20
24.9274  4.97764e+20
25.0447  5.23251e+20
25.162  5.49842e+20
25.2793  5.76358e+20
25.3966  6.01226e+20
25.5139  6.22835e+20
25.6312  6.39395e+20
25.7485  6.49404e+20
25.8658  6.52123e+20
25.9832  6.47263e+20
26.1005  6.35441e+20
26.2178  6.17634e+20
26.3351  5.95745e+20
26.4524  5.71592e+20
26.5697  5.47264e+20
26.687  5.24451e+20
26.8043  5.0487e+20
26.9216  4.89478e+20
27.0389  4.78917e+20
27.1562  4.72993e+20
27.2735  4.71361e+20
27.3908  4.73011e+20
27.5081  4.76394e+20
27.6254  4.80025e+20
27.7427  4.8219e+20
27.86  4.8096e+20
27.9773  4.75204e+20
28.0946  4.63803e+20
28.212  4.46456e+20
28.3293  4.2357e+20
28.4466  3.95997e+20
28.5639  3.65224e+20
28.6812  3.33008e+20
28.7985  3.01149e+20
28.9158  2.71235e+20
29.0331  2.44704e+20
29.1504  2.22443e+20
29.2677  2.04748e+20
29.385  1.91657e+20
29.5023  1.82614e+20
29.6196  1.76978e+20
29.7369  1.73825e+20
29.8542  1.7228e+20
29.9715  1.71524e+20
30.0888  1.70835e+20
30.2061  1.69672e+20
30.3234  1.67767e+20
30.4407  1.65029e+20
30.558  1.61569e+20
30.6754  1.57652e+20
30.7927  1.53724e+20
30.91  1.501e+20
31.0273  1.47197e+20
31.1446  1.45338e+20
31.2619  1.44729e+20
31.3792  1.45443e+20
31.4965  1.47544e+20
31.6138  1.50913e+20
31.7311  1.55491e+20
31.8484  1.61126e+20
31.9657  1.67682e+20
32.083  1.74827e+20
32.2003  1.82388e+20
32.3176  1.90036e+20
32.4349  1.97351e+20
32.5522  2.04081e+20
32.6695  2.09852e+20
32.7868  2.14493e+20
32.9042  2.1789e+20
33.0215  2.20029e+20
33.1388  2.21077e+20
33.2561  2.21199e+20
33.3734  2.20569e+20
33.4907  2.1929e+20
33.608  2.17505e+20
33.7253  2.15275e+20
33.8426  2.12354e+20
33.9599  2.08859e+20
34.0772  2.04578e+20
34.1945  1.99503e+20
34.3118  1.93594e+20
34.4291  1.86845e+20
34.5464  1.7933e+20
34.6637  1.71056e+20
34.781  1.62274e+20
34.8983  1.52992e+20
35.0156  1.43495e+20
35.1329  1.34152e+20
35.2503  1.25213e+20
35.3676  1.17121e+20
35.4849  1.10254e+20
35.6022  1.04912e+20
35.7195  1.01204e+20
35.8368  9.92075e+19
35.9541  9.86636e+19
36.0714  9.92834e+19
36.1887  1.00609e+20
36.306  1.02157e+20
36.4233  1.03488e+20
36.5406  1.04307e+20
36.6579  1.04345e+20
36.7752  1.03463e+20
36.8925  1.01739e+20
37.0098  9.91815e+19
37.1271  9.60331e+19
37.2444  9.24851e+19
37.3617  8.89212e+19
37.479  8.5754e+19
37.5964  8.33931e+19
37.7137  8.23587e+19
37.831  8.30612e+19
37.9483  8.57916e+19
38.0656  9.05649e+19
38.1829  9.71599e+19
38.3002  1.05198e+20
38.4175  1.14009e+20
38.5348  1.22784e+20
38.6521  1.3085e+20
38.7694  1.37589e+20
38.8867  1.42659e+20
39.004  1.45958e+20
39.1213  1.4755e+20
39.2386  1.47708e+20
39.3559  1.46814e+20
39.4732  1.4513e+20
39.5905  1.42861e+20
39.7078  1.40144e+20
39.8251  1.37019e+20
39.9425  1.33523e+20
40.0598  1.29726e+20
40.1771  1.25875e+20
40.2944  1.22203e+20
40.4117  1.1897e+20
40.529  1.16594e+20
40.6463  1.15261e+20
40.7636  1.15081e+20
40.8809  1.16062e+20
40.9982  1.18091e+20
41.1155  1.20941e+20
41.2328  1.24481e+20
41.3501  1.28517e+20
41.4674  1.33063e+20
41.5847  1.37932e+20
41.702  1.43239e+20
41.8193  1.48764e+20
41.9366  1.54413e+20
42.0539  1.59847e+20
42.1712  1.64768e+20
42.2885  1.68923e+20
42.4059  1.72178e+20
42.5232  1.74406e+20
42.6405  1.76055e+20
42.7578  1.77382e+20
42.8751  1.78902e+20
42.9924  1.81051e+20
43.1097  1.84165e+20
43.227  1.88332e+20
43.3443  1.93367e+20
43.4616  1.98885e+20
43.5789  2.0437e+20
43.6962  2.09324e+20
43.8135  2.13268e+20
43.9308  2.16048e+20
44.0481  2.17579e+20
44.1654  2.18025e+20
44.2827  2.17757e+20
44.4  2.17043e+20
44.5173  2.16304e+20
44.6347  2.1581e+20
44.752  2.15858e+20
44.8693  2.16453e+20
44.9866  2.17706e+20
45.1039  2.19575e+20
45.2212  2.21896e+20
45.3385  2.24442e+20
45.4558  2.26877e+20
45.5731  2.2864e+20
45.6904  2.29178e+20
45.8077  2.27882e+20
45.925  2.24166e+20
46.0423  2.17621e+20
46.1596  2.08051e+20
46.2769  1.95604e+20
46.3942  1.80716e+20
46.5115  1.63932e+20
46.6288  1.46156e+20
46.7461  1.28166e+20
46.8634  1.10765e+20
46.9808  9.45409e+19
47.0981  7.99459e+19
47.2154  6.7141e+19
47.3327  5.61901e+19
47.45  4.70139e+19
47.5673  3.94097e+19
47.6846  3.31807e+19
47.8019  2.81176e+19
47.9192  2.41066e+19
48.0365  2.11022e+19
48.1538  1.9157e+19
48.2711  1.84799e+19
48.3884  1.93668e+19
48.5057  2.22143e+19
48.623  2.73819e+19
48.7403  3.51602e+19
48.8576  4.57063e+19
48.9749  5.87786e+19
49.0922  7.38825e+19
49.2095  9.01371e+19
49.3269  1.06534e+20
49.4442  1.2174e+20
49.5615  1.34668e+20
49.6788  1.44318e+20
49.7961  1.50139e+20
49.9134  1.51968e+20
50.0307  1.50102e+20
50.148  1.45195e+20
50.2653  1.38196e+20
50.3826  1.30065e+20
50.4999  1.2183e+20
50.6172  1.14304e+20
50.7345  1.08025e+20
50.8518  1.03411e+20
