#S 1 spectral density
#N 2
#UFWHM 25.3379
#L  abscissas [um]  spectral density
-58.5938  9.64603e+19
-58.4764  9.34373e+19
-58.3591  9.1988e+19
-58.2418  9.18935e+19
-58.1245  9.27326e+19
-58.0072  9.4012e+19
-57.8899  9.53232e+19
-57.7726  9.63927e+19
-57.6553  9.725e+19
-57.538  9.81741e+19
-57.4207  9.96384e+19
-57.3034  1.02135e+20
-57.1861  1.0611e+20
-57.0688  1.11686e+20
-56.9515  1.18743e+20
-56.8342  1.26741e+20
-56.7169  1.35074e+20
-56.5996  1.42839e+20
-56.4823  1.49451e+20
-56.365  1.5438e+20
-56.2477  1.57423e+20
-56.1303  1.5863e+20
-56.013  1.58407e+20
-55.8957  1.57105e+20
-55.7784  1.55263e+20
-55.6611  1.53168e+20
-55.5438  1.51118e+20
-55.4265  1.49313e+20
-55.3092  1.47819e+20
-55.1919  1.46598e+20
-55.0746  1.45726e+20
-54.9573  1.45054e+20
-54.84  1.44621e+20
-54.7227  1.44186e+20
-54.6054  1.43622e+20
-54.4881  1.4266e+20
-54.3708  1.40979e+20
-54.2535  1.38376e+20
-54.1362  1.34722e+20
-54.0189  1.30118e+20
-53.9016  1.24834e+20
-53.7842  1.19437e+20
-53.6669  1.14664e+20
-53.5496  1.11333e+20
-53.4323  1.10255e+20
-53.315  1.12147e+20
-53.1977  1.17442e+20
-53.0804  1.26295e+20
-52.9631  1.38523e+20
-52.8458  1.53605e+20
-52.7285  1.70702e+20
-52.6112  1.88859e+20
-52.4939  2.06954e+20
-52.3766  2.23961e+20
-52.2593  2.38858e+20
-52.142  2.5098e+20
-52.0247  2.5976e+20
-51.9074  2.6489e+20
-51.7901  2.66237e+20
-51.6728  2.6398e+20
-51.5555  2.58209e+20
-51.4381  2.49158e+20
-51.3208  2.3716e+20
-51.2035  2.22509e+20
-51.0862  2.05771e+20
-50.9689  1.87462e+20
-50.8516  1.68381e+20
-50.7343  1.49307e+20
-50.617  1.31197e+20
-50.4997  1.14927e+20
-50.3824  1.01186e+20
-50.2651  9.05346e+19
-50.1478  8.32652e+19
-50.0305  7.93879e+19
-49.9132  7.87258e+19
-49.7959  8.08586e+19
-49.6786  8.53488e+19
-49.5613  9.17137e+19
-49.444  9.94985e+19
-49.3267  1.08256e+20
-49.2094  1.17523e+20
-49.092  1.26883e+20
-48.9747  1.35836e+20
-48.8574  1.4407e+20
-48.7401  1.51247e+20
-48.6228  1.57239e+20
-48.5055  1.62082e+20
-48.3882  1.66072e+20
-48.2709  1.69668e+20
-48.1536  1.73384e+20
-48.0363  1.77736e+20
-47.919  1.83238e+20
-47.8017  1.90132e+20
-47.6844  1.98471e+20
-47.5671  2.08088e+20
-47.4498  2.18776e+20
-47.3325  2.30041e+20
-47.2152  2.41595e+20
-47.0979  2.52949e+20
-46.9806  2.63628e+20
-46.8633  2.73223e+20
-46.7459  2.81221e+20
-46.6286  2.87117e+20
-46.5113  2.90399e+20
-46.394  2.90875e+20
-46.2767  2.88465e+20
-46.1594  2.83563e+20
-46.0421  2.76825e+20
-45.9248  2.69301e+20
-45.8075  2.62154e+20
-45.6902  2.56302e+20
-45.5729  2.52653e+20
-45.4556  2.51375e+20
-45.3383  2.52259e+20
-45.221  2.54498e+20
-45.1037  2.56954e+20
-44.9864  2.58498e+20
-44.8691  2.58105e+20
-44.7518  2.55126e+20
-44.6345  2.49488e+20
-44.5172  2.41638e+20
-44.3998  2.32491e+20
-44.2825  2.22952e+20
-44.1652  2.14224e+20
-44.0479  2.07346e+20
-43.9306  2.0295e+20
-43.8133  2.01459e+20
-43.696  2.02987e+20
-43.5787  2.07319e+20
-43.4614  2.13939e+20
-43.3441  2.22347e+20
-43.2268  2.31725e+20
-43.1095  2.41343e+20
-42.9922  2.50274e+20
-42.8749  2.57872e+20
-42.7576  2.63566e+20
-42.6403  2.67208e+20
-42.523  2.69007e+20
-42.4057  2.69647e+20
-42.2884  2.70119e+20
-42.171  2.71655e+20
-42.0537  2.75532e+20
-41.9364  2.82719e+20
-41.8191  2.93675e+20
-41.7018  3.08178e+20
-41.5845  3.25554e+20
-41.4672  3.44518e+20
-41.3499  3.63539e+20
-41.2326  3.80974e+20
-41.1153  3.95625e+20
-40.998  4.06568e+20
-40.8807  4.1346e+20
-40.7634  4.16418e+20
-40.6461  4.16063e+20
-40.5288  4.13071e+20
-40.4115  4.08327e+20
-40.2942  4.02744e+20
-40.1769  3.96689e+20
-40.0596  3.90666e+20
-39.9423  3.84939e+20
-39.825  3.79557e+20
-39.7076  3.74529e+20
-39.5903  3.69828e+20
-39.473  3.65258e+20
-39.3557  3.60709e+20
-39.2384  3.56014e+20
-39.1211  3.50932e+20
-39.0038  3.45516e+20
-38.8865  3.39806e+20
-38.7692  3.34155e+20
-38.6519  3.29229e+20
-38.5346  3.25674e+20
-38.4173  3.24312e+20
-38.3  3.25915e+20
-38.1827  3.31022e+20
-38.0654  3.3983e+20
-37.9481  3.52126e+20
-37.8308  3.67342e+20
-37.7135  3.8455e+20
-37.5962  4.0259e+20
-37.4789  4.20394e+20
-37.3615  4.36878e+20
-37.2442  4.51131e+20
-37.1269  4.62818e+20
-37.0096  4.71291e+20
-36.8923  4.76805e+20
-36.775  4.79472e+20
-36.6577  4.79761e+20
-36.5404  4.78184e+20
-36.4231  4.75411e+20
-36.3058  4.72282e+20
-36.1885  4.6948e+20
-36.0712  4.67623e+20
-35.9539  4.67083e+20
-35.8366  4.67948e+20
-35.7193  4.70107e+20
-35.602  4.72983e+20
-35.4847  4.75649e+20
-35.3674  4.77385e+20
-35.2501  4.77478e+20
-35.1328  4.75417e+20
-35.0154  4.71467e+20
-34.8981  4.66296e+20
-34.7808  4.61175e+20
-34.6635  4.57581e+20
-34.5462  4.57413e+20
-34.4289  4.62079e+20
-34.3116  4.7284e+20
-34.1943  4.90182e+20
-34.077  5.14062e+20
-33.9597  5.43627e+20
-33.8424  5.77325e+20
-33.7251  6.13244e+20
-33.6078  6.49252e+20
-33.4905  6.83162e+20
-33.3732  7.13037e+20
-33.2559  7.37289e+20
-33.1386  7.55221e+20
-33.0213  7.66531e+20
-32.904  7.71716e+20
-32.7867  7.72317e+20
-32.6693  7.69875e+20
-32.552  7.66461e+20
-32.4347  7.64475e+20
-32.3174  7.65347e+20
-32.2001  7.70725e+20
-32.0828  7.80951e+20
-31.9655  7.95871e+20
-31.8482  8.14564e+20
-31.7309  8.35205e+20
-31.6136  8.56043e+20
-31.4963  8.74934e+20
-31.379  8.90193e+20
-31.2617  9.00321e+20
-31.1444  9.04689e+20
-31.0271  9.03136e+20
-30.9098  8.96121e+20
-30.7925  8.84778e+20
-30.6752  8.70291e+20
-30.5579  8.53874e+20
-30.4406  8.36839e+20
-30.3232  8.20425e+20
-30.2059  8.05394e+20
-30.0886  7.92047e+20
-29.9713  7.80562e+20
-29.854  7.70752e+20
-29.7367  7.62299e+20
-29.6194  7.54831e+20
-29.5021  7.47952e+20
-29.3848  7.41574e+20
-29.2675  7.36043e+20
-29.1502  7.31528e+20
-29.0329  7.29031e+20
-28.9156  7.29493e+20
-28.7983  7.3396e+20
-28.681  7.43587e+20
-28.5637  7.59128e+20
-28.4464  7.81367e+20
-28.3291  8.10337e+20
-28.2118  8.4571e+20
-28.0944  8.8685e+20
-27.9771  9.32142e+20
-27.8598  9.79739e+20
-27.7425  1.02748e+21
-27.6252  1.07275e+21
-27.5079  1.11333e+21
-27.3906  1.14702e+21
-27.2733  1.17257e+21
-27.156  1.18992e+21
-27.0387  1.1994e+21
-26.9214  1.20317e+21
-26.8041  1.20374e+21
-26.6868  1.20441e+21
-26.5695  1.20811e+21
-26.4522  1.21759e+21
-26.3349  1.23484e+21
-26.2176  1.26048e+21
-26.1003  1.29431e+21
-25.983  1.33483e+21
-25.8657  1.37996e+21
-25.7483  1.42763e+21
-25.631  1.47549e+21
-25.5137  1.52207e+21
-25.3964  1.56599e+21
-25.2791  1.60713e+21
-25.1618  1.64572e+21
-25.0445  1.68273e+21
-24.9272  1.71938e+21
-24.8099  1.75708e+21
-24.6926  1.79728e+21
-24.5753  1.84148e+21
-24.458  1.89017e+21
-24.3407  1.94398e+21
-24.2234  2.00245e+21
-24.1061  2.06454e+21
-23.9888  2.12869e+21
-23.8715  2.19271e+21
-23.7542  2.25461e+21
-23.6369  2.31262e+21
-23.5196  2.36574e+21
-23.4023  2.41408e+21
-23.2849  2.459e+21
-23.1676  2.50285e+21
-23.0503  2.54882e+21
-22.933  2.60032e+21
-22.8157  2.66027e+21
-22.6984  2.73071e+21
-22.5811  2.81236e+21
-22.4638  2.90496e+21
-22.3465  3.00648e+21
-22.2292  3.11458e+21
-22.1119  3.22608e+21
-21.9946  3.33806e+21
-21.8773  3.44815e+21
-21.76  3.55456e+21
-21.6427  3.65671e+21
-21.5254  3.75459e+21
-21.4081  3.84961e+21
-21.2908  3.94355e+21
-21.1735  4.03909e+21
-21.0561  4.13936e+21
-20.9388  4.24719e+21
-20.8215  4.36592e+21
-20.7042  4.49766e+21
-20.5869  4.64365e+21
-20.4696  4.80361e+21
-20.3523  4.9759e+21
-20.235  5.15639e+21
-20.1177  5.34009e+21
-20.0004  5.52085e+21
-19.8831  5.69213e+21
-19.7658  5.84794e+21
-19.6485  5.98363e+21
-19.5312  6.09691e+21
-19.4139  6.18719e+21
-19.2966  6.25638e+21
-19.1793  6.30906e+21
-19.062  6.35067e+21
-18.9447  6.38808e+21
-18.8274  6.42853e+21
-18.71  6.47914e+21
-18.5927  6.54604e+21
-18.4754  6.6347e+21
-18.3581  6.74863e+21
-18.2408  6.89085e+21
-18.1235  7.06146e+21
-18.0062  7.25956e+21
-17.8889  7.48227e+21
-17.7716  7.72593e+21
-17.6543  7.98552e+21
-17.537  8.25547e+21
-17.4197  8.53047e+21
-17.3024  8.80563e+21
-17.1851  9.0774e+21
-17.0678  9.34291e+21
-16.9505  9.60136e+21
-16.8332  9.85241e+21
-16.7159  1.00971e+22
-16.5986  1.03367e+22
-16.4813  1.05725e+22
-16.364  1.08055e+22
-16.2466  1.10352e+22
-16.1293  1.1261e+22
-16.012  1.14809e+22
-15.8947  1.16922e+22
-15.7774  1.1892e+22
-15.6601  1.20775e+22
-15.5428  1.22458e+22
-15.4255  1.23955e+22
-15.3082  1.25263e+22
-15.1909  1.26387e+22
-15.0736  1.27356e+22
-14.9563  1.28204e+22
-14.839  1.28986e+22
-14.7217  1.29757e+22
-14.6044  1.30573e+22
-14.4871  1.31498e+22
-14.3698  1.32571e+22
-14.2525  1.33829e+22
-14.1352  1.35286e+22
-14.0178  1.36946e+22
-13.9005  1.38788e+22
-13.7832  1.40786e+22
-13.6659  1.42894e+22
-13.5486  1.45082e+22
-13.4313  1.47294e+22
-13.314  1.49501e+22
-13.1967  1.51675e+22
-13.0794  1.538e+22
-12.9621  1.55877e+22
-12.8448  1.57918e+22
-12.7275  1.59941e+22
-12.6102  1.61982e+22
-12.4929  1.6408e+22
-12.3756  1.66264e+22
-12.2583  1.68569e+22
-12.141  1.71016e+22
-12.0237  1.73611e+22
-11.9064  1.76344e+22
-11.7891  1.79199e+22
-11.6718  1.82139e+22
-11.5544  1.85119e+22
-11.4371  1.88094e+22
-11.3198  1.91013e+22
-11.2025  1.93837e+22
-11.0852  1.9654e+22
-10.9679  1.99102e+22
-10.8506  2.01527e+22
-10.7333  2.03827e+22
-10.616  2.06033e+22
-10.4987  2.08182e+22
-10.3814  2.10317e+22
-10.2641  2.12482e+22
-10.1468  2.14718e+22
-10.0295  2.17057e+22
-9.91217  2.19515e+22
-9.79487  2.22101e+22
-9.67756  2.24796e+22
-9.56026  2.27571e+22
-9.44295  2.30379e+22
-9.32565  2.33167e+22
-9.20834  2.35872e+22
-9.09104  2.38428e+22
-8.97373  2.40782e+22
-8.85643  2.42895e+22
-8.73913  2.44726e+22
-8.62182  2.46278e+22
-8.50452  2.47555e+22
-8.38721  2.48584e+22
-8.26991  2.49406e+22
-8.1526  2.50066e+22
-8.03529  2.50615e+22
-7.91799  2.51106e+22
-7.80069  2.51588e+22
-7.68338  2.52093e+22
-7.56608  2.52654e+22
-7.44877  2.53292e+22
-7.33146  2.54014e+22
-7.21416  2.54823e+22
-7.09685  2.55717e+22
-6.97955  2.56691e+22
-6.86224  2.57743e+22
-6.74494  2.58875e+22
-6.62763  2.60088e+22
-6.51033  2.61396e+22
-6.39302  2.62819e+22
-6.27572  2.64375e+22
-6.15842  2.66092e+22
-6.04111  2.67986e+22
-5.92381  2.70074e+22
-5.8065  2.72367e+22
-5.68919  2.74856e+22
-5.57189  2.77523e+22
-5.45458  2.80331e+22
-5.33728  2.83239e+22
-5.21997  2.86182e+22
-5.10267  2.89091e+22
-4.98536  2.91891e+22
-4.86806  2.94506e+22
-4.75075  2.9687e+22
-4.63345  2.98927e+22
-4.51614  3.00643e+22
-4.39884  3.02e+22
-4.28154  3.03014e+22
-4.16423  3.03719e+22
-4.04692  3.04168e+22
-3.92962  3.04435e+22
-3.81231  3.04597e+22
-3.69501  3.04727e+22
-3.5777  3.04894e+22
-3.4604  3.05146e+22
-3.34309  3.05516e+22
-3.22579  3.06015e+22
-3.10849  3.0664e+22
-2.99118  3.07369e+22
-2.87387  3.08172e+22
-2.75657  3.09012e+22
-2.63926  3.09845e+22
-2.52196  3.10634e+22
-2.40465  3.11344e+22
-2.28735  3.11941e+22
-2.17005  3.12415e+22
-2.05274  3.12764e+22
-1.93544  3.12991e+22
-1.81813  3.13127e+22
-1.70083  3.13203e+22
-1.58352  3.13258e+22
-1.46622  3.13338e+22
-1.34891  3.13474e+22
-1.2316  3.1369e+22
-1.1143  3.13998e+22
-0.996995  3.14389e+22
-0.87969  3.14849e+22
-0.762385  3.15339e+22
-0.64508  3.15837e+22
-0.527775  3.16301e+22
-0.41047  3.16704e+22
-0.293165  3.17021e+22
-0.17586  3.17238e+22
-0.058555  3.17347e+22
0.05875  3.17338e+22
0.176055  3.17215e+22
0.29336  3.16979e+22
0.410665  3.16647e+22
0.52797  3.16224e+22
0.645275  3.1574e+22
0.76258  3.15224e+22
0.879885  3.14714e+22
0.99719  3.14233e+22
1.1145  3.13823e+22
1.2318  3.13495e+22
1.3491  3.1326e+22
1.46641  3.13103e+22
1.58371  3.13002e+22
1.70102  3.12924e+22
1.81832  3.12824e+22
1.93563  3.12666e+22
2.05294  3.12412e+22
2.17024  3.12042e+22
2.28754  3.11546e+22
2.40485  3.10922e+22
2.52216  3.10191e+22
2.63946  3.0938e+22
2.75677  3.08521e+22
2.87407  3.0766e+22
2.99137  3.06831e+22
3.10868  3.06077e+22
3.22599  3.05425e+22
3.34329  3.04899e+22
3.4606  3.04503e+22
3.5779  3.04221e+22
3.69521  3.04024e+22
3.81251  3.03865e+22
3.92982  3.03667e+22
4.04712  3.03364e+22
4.16443  3.02883e+22
4.28173  3.02143e+22
4.39903  3.01095e+22
4.51634  2.99705e+22
4.63364  2.97963e+22
4.75095  2.95878e+22
4.86825  2.93492e+22
4.98556  2.90856e+22
5.10286  2.88045e+22
5.22017  2.85122e+22
5.33748  2.82172e+22
5.45478  2.7926e+22
5.57209  2.7645e+22
5.68939  2.7378e+22
5.8067  2.71291e+22
5.924  2.68997e+22
6.0413  2.66907e+22
6.15861  2.6501e+22
6.27591  2.63288e+22
6.39322  2.61726e+22
6.51052  2.60295e+22
6.62783  2.58975e+22
6.74514  2.57748e+22
6.86244  2.56605e+22
6.97975  2.55539e+22
7.09705  2.54549e+22
7.21436  2.53639e+22
7.33166  2.52811e+22
7.44897  2.52074e+22
7.56627  2.5142e+22
7.68358  2.5084e+22
7.80088  2.50317e+22
7.91819  2.49817e+22
8.03549  2.49307e+22
8.1528  2.48739e+22
8.2701  2.4806e+22
8.38741  2.47219e+22
8.50471  2.46171e+22
8.62202  2.44873e+22
8.73932  2.433e+22
8.85662  2.41448e+22
8.97393  2.39318e+22
9.09123  2.36944e+22
9.20854  2.34371e+22
9.32584  2.31652e+22
9.44315  2.28849e+22
9.56045  2.26025e+22
9.67776  2.23239e+22
9.79506  2.20535e+22
9.91237  2.17939e+22
10.0297  2.15472e+22
10.147  2.13127e+22
10.2643  2.10885e+22
10.3816  2.08715e+22
10.4989  2.06575e+22
10.6162  2.0442e+22
10.7335  2.02212e+22
10.8508  1.9991e+22
10.9681  1.97483e+22
11.0854  1.9492e+22
11.2027  1.92218e+22
11.32  1.89393e+22
11.4373  1.86475e+22
11.5546  1.83504e+22
11.6719  1.80524e+22
11.7893  1.77589e+22
11.9066  1.7474e+22
12.0239  1.72006e+22
12.1412  1.69416e+22
12.2585  1.66976e+22
12.3758  1.64675e+22
12.4931  1.62494e+22
12.6104  1.60401e+22
12.7277  1.58363e+22
12.845  1.56343e+22
12.9623  1.54307e+22
13.0796  1.52234e+22
13.1969  1.50111e+22
13.3142  1.47945e+22
13.4315  1.45741e+22
13.5488  1.43533e+22
13.6661  1.41353e+22
13.7834  1.39246e+22
13.9007  1.37255e+22
14.018  1.35415e+22
14.1354  1.3376e+22
14.2527  1.32303e+22
14.37  1.31049e+22
14.4873  1.29976e+22
14.6046  1.29051e+22
14.7219  1.28235e+22
14.8392  1.27464e+22
14.9565  1.26681e+22
15.0738  1.25834e+22
15.1911  1.24865e+22
15.3084  1.23741e+22
15.4257  1.22437e+22
15.543  1.20945e+22
15.6603  1.19266e+22
15.7776  1.1742e+22
15.8949  1.15429e+22
16.0122  1.13325e+22
16.1295  1.11136e+22
16.2468  1.08889e+22
16.3641  1.06598e+22
16.4815  1.0428e+22
16.5988  1.01932e+22
16.7161  9.95433e+21
16.8334  9.7105e+21
16.9507  9.46055e+21
17.068  9.20337e+21
17.1853  8.93904e+21
17.3026  8.66885e+21
17.4199  8.39536e+21
17.5372  8.1222e+21
17.6545  7.85445e+21
17.7718  7.59737e+21
17.8891  7.356e+21
18.0064  7.13597e+21
18.1237  6.94054e+21
18.241  6.77254e+21
18.3583  6.63293e+21
18.4756  6.52109e+21
18.5929  6.43466e+21
18.7102  6.36957e+21
18.8275  6.32077e+21
18.9449  6.28169e+21
19.0622  6.24561e+21
19.1795  6.20507e+21
19.2968  6.15327e+21
19.4141  6.08486e+21
19.5314  5.99549e+21
19.6487  5.88309e+21
19.766  5.74845e+21
19.8833  5.5937e+21
20.0006  5.42392e+21
20.1179  5.24475e+21
20.2352  5.06305e+21
20.3525  4.88452e+21
20.4698  4.71452e+21
20.5871  4.55671e+21
20.7044  4.41295e+21
20.8217  4.28352e+21
20.939  4.16701e+21
21.0563  4.06103e+21
21.1736  3.96285e+21
21.291  3.86909e+21
21.4083  3.77691e+21
21.5256  3.68359e+21
21.6429  3.58728e+21
21.7602  3.48683e+21
21.8775  3.38194e+21
21.9948  3.27345e+21
22.1121  3.16308e+21
22.2294  3.05309e+21
22.3467  2.94677e+21
22.464  2.84691e+21
22.5813  2.75603e+21
22.6986  2.67602e+21
22.8159  2.60737e+21
22.9332  2.549e+21
23.0505  2.49907e+21
23.1678  2.45441e+21
23.2851  2.41181e+21
23.4024  2.3681e+21
23.5198  2.32094e+21
23.6371  2.269e+21
23.7544  2.2122e+21
23.8717  2.15156e+21
23.989  2.08884e+21
24.1063  2.02607e+21
24.2236  1.96539e+21
24.3409  1.90825e+21
24.4582  1.85592e+21
24.5755  1.80843e+21
24.6928  1.76563e+21
24.8101  1.7266e+21
24.9274  1.69002e+21
25.0447  1.65448e+21
25.162  1.61849e+21
25.2793  1.58089e+21
25.3966  1.54066e+21
25.5139  1.4976e+21
25.6312  1.45206e+21
25.7485  1.40518e+21
25.8658  1.35863e+21
25.9832  1.3144e+21
26.1005  1.27508e+21
26.2178  1.24242e+21
26.3351  1.21779e+21
26.4524  1.20157e+21
26.5697  1.19297e+21
26.687  1.18995e+21
26.8043  1.19011e+21
26.9216  1.19008e+21
27.0389  1.18664e+21
27.1562  1.17734e+21
27.2735  1.16036e+21
27.3908  1.13488e+21
27.5081  1.1015e+21
27.6254  1.0613e+21
27.7427  1.01645e+21
27.86  9.69229e+20
27.9773  9.22092e+20
28.0946  8.77486e+20
28.212  8.37047e+20
28.3293  8.02249e+20
28.4466  7.73955e+20
28.5639  7.52306e+20
28.6812  7.37403e+20
28.7985  7.28286e+20
28.9158  7.24268e+20
29.0331  7.24304e+20
29.1504  7.27075e+20
29.2677  7.31894e+20
29.385  7.37803e+20
29.5023  7.44363e+20
29.6196  7.51405e+20
29.7369  7.59117e+20
29.8542  7.67849e+20
29.9715  7.77889e+20
30.0888  7.89468e+20
30.2061  8.02931e+20
30.3234  8.18114e+20
30.4407  8.34614e+20
30.558  8.51653e+20
30.6754  8.68066e+20
30.7927  8.82561e+20
30.91  8.93885e+20
31.0273  9.00712e+20
31.1446  9.02121e+20
31.2619  8.97581e+20
31.3792  8.87312e+20
31.4965  8.72104e+20
31.6138  8.53269e+20
31.7311  8.3237e+20
31.8484  8.11775e+20
31.9657  7.93288e+20
32.083  7.78386e+20
32.2003  7.68251e+20
32.3176  7.63055e+20
32.4349  7.62109e+20
32.5522  7.64175e+20
32.6695  7.67379e+20
32.7868  7.69736e+20
32.9042  7.68908e+20
33.0215  7.63407e+20
33.1388  7.51864e+20
33.2561  7.33698e+20
33.3734  7.09277e+20
33.4907  6.79245e+20
33.608  6.45286e+20
33.7253  6.0938e+20
33.8426  5.73464e+20
33.9599  5.39968e+20
34.0772  5.10622e+20
34.1945  4.86986e+20
34.3118  4.69783e+20
34.4291  4.59206e+20
34.5464  4.54701e+20
34.6637  4.55018e+20
34.781  4.5859e+20
34.8983  4.63712e+20
35.0156  4.68789e+20
35.1329  4.72623e+20
35.2503  4.74526e+20
35.3676  4.74413e+20
35.4849  4.72598e+20
35.6022  4.69857e+20
35.7195  4.67056e+20
35.8368  4.64895e+20
35.9541  4.63957e+20
36.0714  4.64549e+20
36.1887  4.66406e+20
36.306  4.69257e+20
36.4233  4.72351e+20
36.5406  4.75065e+20
36.6579  4.76591e+20
36.7752  4.76276e+20
36.8925  4.7351e+20
37.0098  4.67956e+20
37.1271  4.59378e+20
37.2444  4.47771e+20
37.3617  4.33482e+20
37.479  4.17077e+20
37.5964  3.99294e+20
37.7137  3.81337e+20
37.831  3.6424e+20
37.9483  3.49165e+20
38.0656  3.36964e+20
38.1829  3.28298e+20
38.3002  3.23294e+20
38.4175  3.21776e+20
38.5348  3.23168e+20
38.6521  3.26783e+20
38.7694  3.31752e+20
38.8867  3.37356e+20
39.004  3.43021e+20
39.1213  3.48415e+20
39.2386  3.53491e+20
39.3559  3.58278e+20
39.4732  3.62857e+20
39.5905  3.67434e+20
39.7078  3.72187e+20
39.8251  3.77267e+20
39.9425  3.8269e+20
40.0598  3.88477e+20
40.1771  3.94504e+20
40.2944  4.00591e+20
40.4117  4.06249e+20
40.529  4.10921e+20
40.6463  4.13876e+20
40.7636  4.14242e+20
40.8809  4.1115e+20
40.9982  4.04237e+20
41.1155  3.93233e+20
41.2328  3.78592e+20
41.3501  3.61093e+20
41.4674  3.42184e+20
41.5847  3.23354e+20
41.702  3.06118e+20
41.8193  2.91789e+20
41.9366  2.81056e+20
42.0539  2.74052e+20
42.1712  2.70306e+20
42.2885  2.68858e+20
42.4059  2.68417e+20
42.5232  2.67752e+20
42.6405  2.6591e+20
42.7578  2.62188e+20
42.8751  2.56415e+20
42.9924  2.48756e+20
43.1097  2.39783e+20
43.227  2.30187e+20
43.3443  2.20848e+20
43.4616  2.12535e+20
43.5789  2.0598e+20
43.6962  2.01781e+20
43.8135  2.00406e+20
43.9308  2.02045e+20
44.0481  2.06549e+20
44.1654  2.13508e+20
44.2827  2.22271e+20
44.4  2.31822e+20
44.5173  2.4102e+20
44.6347  2.48813e+20
44.752  2.54348e+20
44.8693  2.57189e+20
44.9866  2.57547e+20
45.1039  2.55973e+20
45.2212  2.53471e+20
45.3385  2.51303e+20
45.4558  2.50511e+20
45.5731  2.51863e+20
45.6904  2.55666e+20
45.8077  2.61524e+20
45.925  2.68752e+20
46.0423  2.763e+20
46.1596  2.83021e+20
46.2769  2.8786e+20
46.3942  2.90195e+20
46.5115  2.89688e+20
46.6288  2.86297e+20
46.7461  2.80351e+20
46.8634  2.72347e+20
46.9808  2.62742e+20
47.0981  2.52041e+20
47.2154  2.40746e+20
47.3327  2.29222e+20
47.45  2.17964e+20
47.5673  2.07331e+20
47.6846  1.97769e+20
47.8019  1.89492e+20
47.9192  1.82658e+20
48.0365  1.77206e+20
48.1538  1.72861e+20
48.2711  1.69171e+20
48.3884  1.65608e+20
48.5057  1.61604e+20
48.623  1.56742e+20
48.7403  1.50738e+20
48.8576  1.4351e+20
48.9749  1.35269e+20
49.0922  1.26314e+20
49.2095  1.16989e+20
49.3269  1.07728e+20
49.4442  9.90427e+19
49.5615  9.12944e+19
49.6788  8.49875e+19
49.7961  8.05646e+19
49.9134  7.85127e+19
50.0307  7.92949e+19
50.148  8.32634e+19
50.2653  9.06393e+19
50.3826  1.01375e+20
50.4999  1.15197e+20
50.6172  1.31554e+20
50.7345  1.49719e+20
