#S 1 spectral density
#N 2
#UFWHM 25.5725
#L  abscissas [um]  spectral density
-58.5938  8.73571e+19
-58.4764  8.44282e+19
-58.3591  8.2992e+19
-58.2418  8.28618e+19
-58.1245  8.3652e+19
-58.0072  8.4957e+19
-57.8899  8.64356e+19
-57.7726  8.79078e+19
-57.6553  8.94731e+19
-57.538  9.1463e+19
-57.4207  9.43564e+19
-57.3034  9.86208e+19
-57.1861  1.04616e+20
-57.0688  1.1235e+20
-56.9515  1.21539e+20
-56.8342  1.31499e+20
-56.7169  1.41472e+20
-56.5996  1.50446e+20
-56.4823  1.5778e+20
-56.365  1.62961e+20
-56.2477  1.65869e+20
-56.1303  1.66686e+20
-56.013  1.66005e+20
-55.8957  1.64354e+20
-55.7784  1.62439e+20
-55.6611  1.60645e+20
-55.5438  1.59304e+20
-55.4265  1.58538e+20
-55.3092  1.58262e+20
-55.1919  1.58209e+20
-55.0746  1.58209e+20
-54.9573  1.5787e+20
-54.84  1.57039e+20
-54.7227  1.55382e+20
-54.6054  1.52816e+20
-54.4881  1.49218e+20
-54.3708  1.44543e+20
-54.2535  1.38938e+20
-54.1362  1.32646e+20
-54.0189  1.26123e+20
-53.9016  1.19904e+20
-53.7842  1.14697e+20
-53.6669  1.11216e+20
-53.5496  1.10126e+20
-53.4323  1.11938e+20
-53.315  1.16991e+20
-53.1977  1.25299e+20
-53.0804  1.36638e+20
-52.9631  1.50537e+20
-52.8458  1.66294e+20
-52.7285  1.83071e+20
-52.6112  2.0005e+20
-52.4939  2.16373e+20
-52.3766  2.31355e+20
-52.2593  2.44346e+20
-52.142  2.55025e+20
-52.0247  2.63077e+20
-51.9074  2.68342e+20
-51.7901  2.70678e+20
-51.6728  2.70145e+20
-51.5555  2.66591e+20
-51.4381  2.59964e+20
-51.3208  2.50287e+20
-51.2035  2.37583e+20
-51.0862  2.22232e+20
-50.9689  2.04664e+20
-50.8516  1.85704e+20
-50.7343  1.66254e+20
-50.617  1.47449e+20
-50.4997  1.30377e+20
-50.3824  1.15898e+20
-50.2651  1.04698e+20
-50.1478  9.70865e+19
-50.0305  9.30171e+19
-49.9132  9.21415e+19
-49.7959  9.38462e+19
-49.6786  9.74753e+19
-49.5613  1.02371e+20
-49.444  1.07998e+20
-49.3267  1.13943e+20
-49.2094  1.19916e+20
-49.092  1.25815e+20
-48.9747  1.3154e+20
-48.8574  1.37248e+20
-48.7401  1.43072e+20
-48.6228  1.49276e+20
-48.5055  1.56167e+20
-48.3882  1.64146e+20
-48.2709  1.73549e+20
-48.1536  1.84564e+20
-48.0363  1.97203e+20
-47.919  2.11306e+20
-47.8017  2.26362e+20
-47.6844  2.41657e+20
-47.5671  2.56354e+20
-47.4498  2.69722e+20
-47.3325  2.80945e+20
-47.2152  2.89727e+20
-47.0979  2.95821e+20
-46.9806  2.99259e+20
-46.8633  3.00382e+20
-46.7459  2.99525e+20
-46.6286  2.9709e+20
-46.5113  2.93377e+20
-46.394  2.88838e+20
-46.2767  2.83784e+20
-46.1594  2.7868e+20
-46.0421  2.73959e+20
-45.9248  2.70152e+20
-45.8075  2.67688e+20
-45.6902  2.66666e+20
-45.5729  2.67164e+20
-45.4556  2.68637e+20
-45.3383  2.70391e+20
-45.221  2.71386e+20
-45.1037  2.70575e+20
-44.9864  2.67189e+20
-44.8691  2.60773e+20
-44.7518  2.51393e+20
-44.6345  2.39734e+20
-44.5172  2.26914e+20
-44.3998  2.14359e+20
-44.2825  2.03295e+20
-44.1652  1.94945e+20
-44.0479  1.90153e+20
-43.9306  1.89155e+20
-43.8133  1.9184e+20
-43.696  1.97763e+20
-43.5787  2.0617e+20
-43.4614  2.16159e+20
-43.3441  2.26996e+20
-43.2268  2.37871e+20
-43.1095  2.48213e+20
-42.9922  2.57444e+20
-42.8749  2.65344e+20
-42.7576  2.71778e+20
-42.6403  2.76973e+20
-42.523  2.81373e+20
-42.4057  2.85727e+20
-42.2884  2.9089e+20
-42.171  2.97812e+20
-42.0537  3.07357e+20
-41.9364  3.20024e+20
-41.8191  3.35842e+20
-41.7018  3.54205e+20
-41.5845  3.74239e+20
-41.4672  3.94603e+20
-41.3499  4.13861e+20
-41.2326  4.30605e+20
-41.1153  4.43942e+20
-40.998  4.53264e+20
-40.8807  4.58504e+20
-40.7634  4.59938e+20
-40.6461  4.58247e+20
-40.5288  4.54016e+20
-40.4115  4.4793e+20
-40.2942  4.40646e+20
-40.1769  4.32236e+20
-40.0596  4.22974e+20
-39.9423  4.12994e+20
-39.825  4.02332e+20
-39.7076  3.91155e+20
-39.5903  3.79788e+20
-39.473  3.68464e+20
-39.3557  3.57619e+20
-39.2384  3.47644e+20
-39.1211  3.38853e+20
-39.0038  3.31716e+20
-38.8865  3.26539e+20
-38.7692  3.23758e+20
-38.6519  3.2388e+20
-38.5346  3.27161e+20
-38.4173  3.33854e+20
-38.3  3.43999e+20
-38.1827  3.5729e+20
-38.0654  3.73108e+20
-37.9481  3.90484e+20
-37.8308  4.08259e+20
-37.7135  4.25167e+20
-37.5962  4.39978e+20
-37.4789  4.51886e+20
-37.3615  4.60336e+20
-37.2442  4.65224e+20
-37.1269  4.67173e+20
-37.0096  4.66565e+20
-36.8923  4.64646e+20
-36.775  4.6234e+20
-36.6577  4.6068e+20
-36.5404  4.60421e+20
-36.4231  4.6211e+20
-36.3058  4.66123e+20
-36.1885  4.72419e+20
-36.0712  4.80679e+20
-35.9539  4.90308e+20
-35.8366  5.00449e+20
-35.7193  5.10266e+20
-35.602  5.18711e+20
-35.4847  5.24718e+20
-35.3674  5.2777e+20
-35.2501  5.27626e+20
-35.1328  5.24433e+20
-35.0154  5.19218e+20
-34.8981  5.13336e+20
-34.7808  5.08572e+20
-34.6635  5.06644e+20
-34.5462  5.09377e+20
-34.4289  5.17761e+20
-34.3116  5.32385e+20
-34.1943  5.52887e+20
-34.077  5.78342e+20
-33.9597  6.07127e+20
-33.8424  6.37139e+20
-33.7251  6.66298e+20
-33.6078  6.92699e+20
-33.4905  7.14804e+20
-33.3732  7.31658e+20
-33.2559  7.42896e+20
-33.1386  7.4916e+20
-33.0213  7.51375e+20
-32.904  7.51058e+20
-32.7867  7.5039e+20
-32.6693  7.51078e+20
-32.552  7.54942e+20
-32.4347  7.63598e+20
-32.3174  7.77414e+20
-32.2001  7.96707e+20
-32.0828  8.2042e+20
-31.9655  8.47145e+20
-31.8482  8.74888e+20
-31.7309  9.0113e+20
-31.6136  9.23826e+20
-31.4963  9.40932e+20
-31.379  9.51223e+20
-31.2617  9.53935e+20
-31.1444  9.49341e+20
-31.0271  9.38213e+20
-30.9098  9.21883e+20
-30.7925  9.02175e+20
-30.6752  8.80754e+20
-30.5579  8.59076e+20
-30.4406  8.38465e+20
-30.3232  8.20007e+20
-30.2059  8.04185e+20
-30.0886  7.91001e+20
-29.9713  7.80393e+20
-29.854  7.72006e+20
-29.7367  7.65479e+20
-29.6194  7.60576e+20
-29.5021  7.57096e+20
-29.3848  7.55203e+20
-29.2675  7.55482e+20
-29.1502  7.58224e+20
-29.0329  7.64404e+20
-28.9156  7.74695e+20
-28.7983  7.89666e+20
-28.681  8.09789e+20
-28.5637  8.34982e+20
-28.4464  8.65157e+20
-28.3291  8.99539e+20
-28.2118  9.37187e+20
-28.0944  9.77123e+20
-27.9771  1.0178e+21
-27.8598  1.05782e+21
-27.7425  1.09583e+21
-27.6252  1.13033e+21
-27.5079  1.1604e+21
-27.3906  1.18515e+21
-27.2733  1.20448e+21
-27.156  1.21913e+21
-27.0387  1.22988e+21
-26.9214  1.23879e+21
-26.8041  1.24777e+21
-26.6868  1.25908e+21
-26.5695  1.27435e+21
-26.4522  1.29481e+21
-26.3349  1.32109e+21
-26.2176  1.35264e+21
-26.1003  1.38856e+21
-25.983  1.42718e+21
-25.8657  1.46684e+21
-25.7483  1.50646e+21
-25.631  1.54508e+21
-25.5137  1.58289e+21
-25.3964  1.62024e+21
-25.2791  1.65851e+21
-25.1618  1.69907e+21
-25.0445  1.74341e+21
-24.9272  1.79267e+21
-24.8099  1.84744e+21
-24.6926  1.90791e+21
-24.5753  1.97375e+21
-24.458  2.04357e+21
-24.3407  2.11609e+21
-24.2234  2.18935e+21
-24.1061  2.26119e+21
-23.9888  2.32967e+21
-23.8715  2.39284e+21
-23.7542  2.44962e+21
-23.6369  2.49962e+21
-23.5196  2.54357e+21
-23.4023  2.58332e+21
-23.2849  2.62184e+21
-23.1676  2.66268e+21
-23.0503  2.70973e+21
-22.933  2.7665e+21
-22.8157  2.83533e+21
-22.6984  2.91721e+21
-22.5811  3.01137e+21
-22.4638  3.11593e+21
-22.3465  3.22718e+21
-22.2292  3.34137e+21
-22.1119  3.45429e+21
-21.9946  3.56256e+21
-21.8773  3.6639e+21
-21.76  3.75722e+21
-21.6427  3.84317e+21
-21.5254  3.92339e+21
-21.4081  4.00113e+21
-21.2908  4.08005e+21
-21.1735  4.16458e+21
-21.0561  4.25915e+21
-20.9388  4.36742e+21
-20.8215  4.49296e+21
-20.7042  4.63744e+21
-20.5869  4.80108e+21
-20.4696  4.98207e+21
-20.3523  5.17692e+21
-20.235  5.37944e+21
-20.1177  5.58272e+21
-20.0004  5.77888e+21
-19.8831  5.9601e+21
-19.7658  6.11963e+21
-19.6485  6.25267e+21
-19.5312  6.3574e+21
-19.4139  6.43411e+21
-19.2966  6.48607e+21
-19.1793  6.51941e+21
-19.062  6.54113e+21
-18.9447  6.55954e+21
-18.8274  6.58301e+21
-18.71  6.61943e+21
-18.5927  6.6752e+21
-18.4754  6.75568e+21
-18.3581  6.86389e+21
-18.2408  7.0022e+21
-18.1235  7.16984e+21
-18.0062  7.36529e+21
-17.8889  7.58515e+21
-17.7716  7.82565e+21
-17.6543  8.08196e+21
-17.537  8.34908e+21
-17.4197  8.62241e+21
-17.3024  8.89809e+21
-17.1851  9.17337e+21
-17.0678  9.44605e+21
-16.9505  9.7156e+21
-16.8332  9.98152e+21
-16.7159  1.02441e+22
-16.5986  1.05034e+22
-16.4813  1.07595e+22
-16.364  1.10113e+22
-16.2466  1.12568e+22
-16.1293  1.1494e+22
-16.012  1.17199e+22
-15.8947  1.19312e+22
-15.7774  1.21252e+22
-15.6601  1.22998e+22
-15.5428  1.24534e+22
-15.4255  1.25862e+22
-15.3082  1.26995e+22
-15.1909  1.27957e+22
-15.0736  1.28788e+22
-14.9563  1.29535e+22
-14.839  1.30255e+22
-14.7217  1.31001e+22
-14.6044  1.31823e+22
-14.4871  1.32771e+22
-14.3698  1.33873e+22
-14.2525  1.35148e+22
-14.1352  1.36598e+22
-14.0178  1.38214e+22
-13.9005  1.39969e+22
-13.7832  1.41834e+22
-13.6659  1.43768e+22
-13.5486  1.45749e+22
-13.4313  1.47732e+22
-13.314  1.49705e+22
-13.1967  1.51655e+22
-13.0794  1.53582e+22
-12.9621  1.55497e+22
-12.8448  1.57424e+22
-12.7275  1.59385e+22
-12.6102  1.61415e+22
-12.4929  1.63548e+22
-12.3756  1.65804e+22
-12.2583  1.68208e+22
-12.141  1.70767e+22
-12.0237  1.73476e+22
-11.9064  1.76315e+22
-11.7891  1.79258e+22
-11.6718  1.82266e+22
-11.5544  1.85295e+22
-11.4371  1.88302e+22
-11.3198  1.91243e+22
-11.2025  1.94087e+22
-11.0852  1.96815e+22
-10.9679  1.99417e+22
-10.8506  2.01899e+22
-10.7333  2.04276e+22
-10.616  2.06574e+22
-10.4987  2.08824e+22
-10.3814  2.11059e+22
-10.2641  2.13308e+22
-10.1468  2.156e+22
-10.0295  2.17953e+22
-9.91217  2.20373e+22
-9.79487  2.22864e+22
-9.67756  2.25406e+22
-9.56026  2.27976e+22
-9.44295  2.30539e+22
-9.32565  2.33056e+22
-9.20834  2.35484e+22
-9.09104  2.37778e+22
-8.97373  2.39903e+22
-8.85643  2.41835e+22
-8.73913  2.43547e+22
-8.62182  2.45042e+22
-8.50452  2.46326e+22
-8.38721  2.47417e+22
-8.26991  2.48339e+22
-8.1526  2.49124e+22
-8.03529  2.49801e+22
-7.91799  2.50405e+22
-7.80069  2.50969e+22
-7.68338  2.51515e+22
-7.56608  2.52071e+22
-7.44877  2.52657e+22
-7.33146  2.5329e+22
-7.21416  2.53984e+22
-7.09685  2.54752e+22
-6.97955  2.55605e+22
-6.86224  2.56558e+22
-6.74494  2.57628e+22
-6.62763  2.58821e+22
-6.51033  2.60154e+22
-6.39302  2.61643e+22
-6.27572  2.63294e+22
-6.15842  2.65117e+22
-6.04111  2.67109e+22
-5.92381  2.69262e+22
-5.8065  2.71565e+22
-5.68919  2.73992e+22
-5.57189  2.76512e+22
-5.45458  2.79084e+22
-5.33728  2.8167e+22
-5.21997  2.8422e+22
-5.10267  2.86687e+22
-4.98536  2.89025e+22
-4.86806  2.91191e+22
-4.75075  2.93151e+22
-4.63345  2.9488e+22
-4.51614  2.96365e+22
-4.39884  2.97603e+22
-4.28154  2.98613e+22
-4.16423  2.99417e+22
-4.04692  3.00051e+22
-3.92962  3.00554e+22
-3.81231  3.00971e+22
-3.69501  3.01333e+22
-3.5777  3.01673e+22
-3.4604  3.02008e+22
-3.34309  3.02351e+22
-3.22579  3.02702e+22
-3.10849  3.03062e+22
-2.99118  3.03428e+22
-2.87387  3.03796e+22
-2.75657  3.04165e+22
-2.63926  3.04535e+22
-2.52196  3.04909e+22
-2.40465  3.05288e+22
-2.28735  3.05669e+22
-2.17005  3.06061e+22
-2.05274  3.06467e+22
-1.93544  3.06886e+22
-1.81813  3.0733e+22
-1.70083  3.07801e+22
-1.58352  3.08309e+22
-1.46622  3.0886e+22
-1.34891  3.09453e+22
-1.2316  3.1008e+22
-1.1143  3.10732e+22
-0.996995  3.11386e+22
-0.87969  3.12022e+22
-0.762385  3.12607e+22
-0.64508  3.13131e+22
-0.527775  3.13571e+22
-0.41047  3.13918e+22
-0.293165  3.14172e+22
-0.17586  3.14334e+22
-0.058555  3.14411e+22
0.05875  3.14401e+22
0.176055  3.14307e+22
0.29336  3.14124e+22
0.410665  3.13853e+22
0.52797  3.13484e+22
0.645275  3.13025e+22
0.76258  3.12482e+22
0.879885  3.11878e+22
0.99719  3.11223e+22
1.1145  3.10553e+22
1.2318  3.09885e+22
1.3491  3.09241e+22
1.46641  3.08631e+22
1.58371  3.08064e+22
1.70102  3.07538e+22
1.81832  3.07046e+22
1.93563  3.06585e+22
2.05294  3.06142e+22
2.17024  3.05717e+22
2.28754  3.05304e+22
2.40485  3.04897e+22
2.52216  3.04495e+22
2.63946  3.04097e+22
2.75677  3.037e+22
2.87407  3.03305e+22
2.99137  3.02907e+22
3.10868  3.02512e+22
3.22599  3.02122e+22
3.34329  3.0174e+22
3.4606  3.0137e+22
3.5779  3.01004e+22
3.69521  3.00635e+22
3.81251  3.00245e+22
3.92982  2.99796e+22
4.04712  2.9926e+22
4.16443  2.986e+22
4.28173  2.97765e+22
4.39903  2.96726e+22
4.51634  2.95458e+22
4.63364  2.9395e+22
4.75095  2.92197e+22
4.86825  2.90215e+22
4.98556  2.88029e+22
5.10286  2.85678e+22
5.22017  2.83195e+22
5.33748  2.80635e+22
5.45478  2.78041e+22
5.57209  2.75464e+22
5.68939  2.72938e+22
5.8067  2.70509e+22
5.924  2.68203e+22
6.0413  2.66047e+22
6.15861  2.64053e+22
6.27591  2.62226e+22
6.39322  2.60571e+22
6.51052  2.59077e+22
6.62783  2.57733e+22
6.74514  2.56529e+22
6.86244  2.55451e+22
6.97975  2.54486e+22
7.09705  2.53617e+22
7.21436  2.52834e+22
7.33166  2.52122e+22
7.44897  2.51473e+22
7.56627  2.50869e+22
7.68358  2.50293e+22
7.80088  2.49726e+22
7.91819  2.49142e+22
8.03549  2.48517e+22
8.1528  2.47819e+22
8.2701  2.47014e+22
8.38741  2.46071e+22
8.50471  2.44963e+22
8.62202  2.43658e+22
8.73932  2.42142e+22
8.85662  2.40412e+22
8.97393  2.38464e+22
9.09123  2.36321e+22
9.20854  2.34012e+22
9.32584  2.31571e+22
9.44315  2.2904e+22
9.56045  2.26463e+22
9.67776  2.23882e+22
9.79506  2.21329e+22
9.91237  2.18827e+22
10.0297  2.16397e+22
10.147  2.14036e+22
10.2643  2.11736e+22
10.3816  2.09479e+22
10.4989  2.07238e+22
10.6162  2.04979e+22
10.7335  2.02676e+22
10.8508  2.00294e+22
10.9681  1.97807e+22
11.0854  1.95202e+22
11.2027  1.92472e+22
11.32  1.89626e+22
11.4373  1.86686e+22
11.5546  1.83683e+22
11.6719  1.80655e+22
11.7893  1.77652e+22
11.9066  1.74715e+22
12.0239  1.71878e+22
12.1412  1.69177e+22
12.2585  1.66626e+22
12.3758  1.6423e+22
12.4931  1.61978e+22
12.6104  1.59853e+22
12.7277  1.57828e+22
12.845  1.55872e+22
12.9623  1.53951e+22
13.0796  1.52039e+22
13.1969  1.50115e+22
13.3142  1.48173e+22
13.4315  1.46202e+22
13.5488  1.44221e+22
13.6661  1.42247e+22
13.7834  1.40313e+22
13.9007  1.38452e+22
14.018  1.36699e+22
14.1354  1.35086e+22
14.2527  1.33636e+22
14.37  1.32364e+22
14.4873  1.31262e+22
14.6046  1.30313e+22
14.7219  1.29491e+22
14.8392  1.28745e+22
14.9565  1.28024e+22
15.0738  1.27277e+22
15.1911  1.26445e+22
15.3084  1.25482e+22
15.4257  1.2435e+22
15.543  1.23026e+22
15.6603  1.21491e+22
15.7776  1.1975e+22
15.8949  1.17815e+22
16.0122  1.15708e+22
16.1295  1.13458e+22
16.2468  1.11094e+22
16.3641  1.08643e+22
16.4815  1.06137e+22
16.5988  1.03588e+22
16.7161  1.01001e+22
16.8334  9.83855e+21
16.9507  9.57391e+21
17.068  9.30577e+21
17.1853  9.03442e+21
17.3026  8.76085e+21
17.4199  8.48695e+21
17.5372  8.21553e+21
17.6545  7.95068e+21
17.7718  7.69691e+21
17.8891  7.45875e+21
18.0064  7.24156e+21
18.1237  7.04879e+21
18.241  6.88376e+21
18.3583  6.74808e+21
18.4756  6.64196e+21
18.5929  6.56367e+21
18.7102  6.50964e+21
18.8275  6.47492e+21
18.9449  6.45267e+21
19.0622  6.43539e+21
19.1795  6.41447e+21
19.2968  6.38174e+21
19.4141  6.33025e+21
19.5314  6.25412e+21
19.6487  6.14997e+21
19.766  6.01771e+21
19.8833  5.85901e+21
20.0006  5.67911e+21
20.1179  5.48444e+21
20.2352  5.28313e+21
20.3525  5.08262e+21
20.4698  4.89017e+21
20.5871  4.71146e+21
20.7044  4.55022e+21
20.8217  4.40821e+21
20.939  4.28504e+21
21.0563  4.17871e+21
21.1736  4.0863e+21
21.291  4.00355e+21
21.4083  3.92629e+21
21.5256  3.85013e+21
21.6429  3.7713e+21
21.7602  3.68682e+21
21.8775  3.59481e+21
21.9948  3.49485e+21
22.1121  3.38799e+21
22.2294  3.27639e+21
22.3467  3.16387e+21
22.464  3.0542e+21
22.5813  2.95135e+21
22.6986  2.85886e+21
22.8159  2.77884e+21
22.9332  2.71168e+21
23.0505  2.65659e+21
23.1678  2.61092e+21
23.2851  2.57139e+21
23.4024  2.5341e+21
23.5198  2.49551e+21
23.6371  2.45268e+21
23.7544  2.40377e+21
23.8717  2.34813e+21
23.989  2.28611e+21
24.1063  2.2189e+21
24.2236  2.14838e+21
24.3409  2.07643e+21
24.4582  2.0054e+21
24.5755  1.93687e+21
24.6928  1.87258e+21
24.8101  1.81351e+21
24.9274  1.76011e+21
25.0447  1.71223e+21
25.162  1.66916e+21
25.2793  1.62984e+21
25.3966  1.59267e+21
25.5139  1.55631e+21
25.6312  1.5196e+21
25.7485  1.48197e+21
25.8658  1.44345e+21
25.9832  1.40459e+21
26.1005  1.36708e+21
26.2178  1.33224e+21
26.3351  1.30163e+21
26.4524  1.27636e+21
26.5697  1.2568e+21
26.687  1.2423e+21
26.8043  1.23192e+21
26.9216  1.22363e+21
27.0389  1.21524e+21
27.1562  1.20488e+21
27.2735  1.19074e+21
27.3908  1.17167e+21
27.5081  1.14735e+21
27.6254  1.11772e+21
27.7427  1.08367e+21
27.86  1.04618e+21
27.9773  1.0066e+21
28.0946  9.66555e+20
28.212  9.27265e+20
28.3293  8.90149e+20
28.4466  8.56404e+20
28.5639  8.26815e+20
28.6812  8.02262e+20
28.7985  7.82686e+20
28.9158  7.68215e+20
29.0331  7.58472e+20
29.1504  7.52654e+20
29.2677  7.50273e+20
29.385  7.50448e+20
29.5023  7.52591e+20
29.6196  7.563e+20
29.7369  7.61516e+20
29.8542  7.68373e+20
29.9715  7.7707e+20
30.0888  7.8785e+20
30.2061  8.01231e+20
30.3234  8.17291e+20
30.4407  8.35935e+20
30.558  8.56642e+20
30.6754  8.78404e+20
30.7927  8.99903e+20
30.91  9.19648e+20
31.0273  9.35828e+20
31.1446  9.46797e+20
31.2619  9.51183e+20
31.3792  9.48264e+20
31.4965  9.37945e+20
31.6138  9.20806e+20
31.7311  8.97956e+20
31.8484  8.7167e+20
31.9657  8.44075e+20
32.083  8.17354e+20
32.2003  7.93754e+20
32.3176  7.74718e+20
32.4349  7.60942e+20
32.5522  7.52488e+20
32.6695  7.48573e+20
32.7868  7.4794e+20
32.9042  7.48534e+20
33.0215  7.48643e+20
33.1388  7.46266e+20
33.2561  7.39791e+20
33.3734  7.28368e+20
33.4907  7.11301e+20
33.608  6.89052e+20
33.7253  6.62638e+20
33.8426  6.33356e+20
33.9599  6.0344e+20
34.0772  5.74797e+20
34.1945  5.49522e+20
34.3118  5.29133e+20
34.4291  5.1469e+20
34.5464  5.06504e+20
34.6637  5.03977e+20
34.781  5.05927e+20
34.8983  5.10726e+20
35.0156  5.1654e+20
35.1329  5.21643e+20
35.2503  5.24652e+20
35.3676  5.2475e+20
35.4849  5.2157e+20
35.6022  5.15423e+20
35.7195  5.0701e+20
35.8368  4.97159e+20
35.9541  4.86932e+20
36.0714  4.77389e+20
36.1887  4.69183e+20
36.306  4.63012e+20
36.4233  4.59053e+20
36.5406  4.57409e+20
36.6579  4.57717e+20
36.7752  4.59421e+20
36.8925  4.61686e+20
37.0098  4.63591e+20
37.1271  4.64079e+20
37.2444  4.62171e+20
37.3617  4.57175e+20
37.479  4.48712e+20
37.5964  4.3672e+20
37.7137  4.21889e+20
37.831  4.05004e+20
37.9483  3.87294e+20
38.0656  3.69967e+20
38.1829  3.54267e+20
38.3002  3.41082e+20
38.4175  3.31067e+20
38.5348  3.24446e+20
38.6521  3.21288e+20
38.7694  3.21279e+20
38.8867  3.2409e+20
39.004  3.29276e+20
39.1213  3.3645e+20
39.2386  3.45271e+20
39.3559  3.55339e+20
39.4732  3.66219e+20
39.5905  3.77536e+20
39.7078  3.88925e+20
39.8251  4.00091e+20
39.9425  4.1074e+20
40.0598  4.20729e+20
40.1771  4.29944e+20
40.2944  4.38339e+20
40.4117  4.45667e+20
40.529  4.51658e+20
40.6463  4.55824e+20
40.7636  4.57513e+20
40.8809  4.55926e+20
40.9982  4.50653e+20
41.1155  4.4125e+20
41.2328  4.27901e+20
41.3501  4.11063e+20
41.4674  3.91886e+20
41.5847  3.71624e+20
41.702  3.51703e+20
41.8193  3.33488e+20
41.9366  3.17896e+20
42.0539  3.05416e+20
42.1712  2.96027e+20
42.2885  2.8922e+20
42.4059  2.84131e+20
42.5232  2.79801e+20
42.6405  2.75407e+20
42.7578  2.70167e+20
42.8751  2.63675e+20
42.9924  2.55729e+20
43.1097  2.46452e+20
43.227  2.36119e+20
43.3443  2.2527e+20
43.4616  2.14501e+20
43.5789  2.04566e+20
43.6962  1.96289e+20
43.8135  1.9054e+20
43.9308  1.88025e+20
44.0481  1.89185e+20
44.1654  1.94119e+20
44.2827  2.02574e+20
44.4  2.13724e+20
44.5173  2.26382e+20
44.6347  2.39191e+20
44.752  2.50764e+20
44.8693  2.59994e+20
44.9866  2.66341e+20
45.1039  2.69651e+20
45.2212  2.7034e+20
45.3385  2.69338e+20
45.4558  2.67611e+20
45.5731  2.66147e+20
45.6904  2.65774e+20
45.8077  2.66803e+20
45.925  2.69378e+20
46.0423  2.73264e+20
46.1596  2.78046e+20
46.2769  2.83177e+20
46.3942  2.88248e+20
46.5115  2.92838e+20
46.6288  2.96504e+20
46.7461  2.98932e+20
46.8634  2.99786e+20
46.9808  2.98628e+20
47.0981  2.95107e+20
47.2154  2.88996e+20
47.3327  2.8015e+20
47.45  2.68824e+20
47.5673  2.55423e+20
47.6846  2.40697e+20
47.8019  2.25399e+20
47.9192  2.1037e+20
48.0365  1.96309e+20
48.1538  1.83697e+20
48.2711  1.72741e+20
48.3884  1.63429e+20
48.5057  1.55508e+20
48.623  1.4867e+20
48.7403  1.42524e+20
48.8576  1.36704e+20
48.9749  1.31033e+20
49.0922  1.25338e+20
49.2095  1.19494e+20
49.3269  1.13527e+20
49.4442  1.07647e+20
49.5615  1.02041e+20
49.6788  9.7187e+19
49.7961  9.36137e+19
49.9134  9.19691e+19
50.0307  9.29534e+19
50.148  9.71112e+19
50.2653  1.04815e+20
50.3826  1.16096e+20
50.4999  1.30639e+20
50.6172  1.47783e+20
50.7345  1.66617e+20
