#S 1 spectral density
#N 2
#UFWHM 24.1648
#L  abscissas [um]  spectral density
-58.5938  1.57094e+20
-58.4764  1.56772e+20
-58.3591  1.56477e+20
-58.2418  1.55785e+20
-58.1245  1.54302e+20
-58.0072  1.51829e+20
-57.8899  1.4836e+20
-57.7726  1.44177e+20
-57.6553  1.39889e+20
-57.538  1.36225e+20
-57.4207  1.33883e+20
-57.3034  1.33416e+20
-57.1861  1.35041e+20
-57.0688  1.3851e+20
-56.9515  1.43221e+20
-56.8342  1.48147e+20
-56.7169  1.52238e+20
-56.5996  1.5456e+20
-56.4823  1.5455e+20
-56.365  1.52001e+20
-56.2477  1.47408e+20
-56.1303  1.4154e+20
-56.013  1.35564e+20
-55.8957  1.30626e+20
-55.7784  1.2778e+20
-55.6611  1.27606e+20
-55.5438  1.30301e+20
-55.4265  1.35687e+20
-55.3092  1.43107e+20
-55.1919  1.51691e+20
-55.0746  1.60524e+20
-54.9573  1.6865e+20
-54.84  1.75307e+20
-54.7227  1.79898e+20
-54.6054  1.82077e+20
-54.4881  1.81743e+20
-54.3708  1.78881e+20
-54.2535  1.73776e+20
-54.1362  1.66728e+20
-54.0189  1.5818e+20
-53.9016  1.48581e+20
-53.7842  1.38521e+20
-53.6669  1.28474e+20
-53.5496  1.18986e+20
-53.4323  1.10534e+20
-53.315  1.03532e+20
-53.1977  9.83263e+19
-53.0804  9.50994e+19
-52.9631  9.39709e+19
-52.8458  9.49164e+19
-52.7285  9.77699e+19
-52.6112  1.02252e+20
-52.4939  1.08017e+20
-52.3766  1.14718e+20
-52.2593  1.22006e+20
-52.142  1.29628e+20
-52.0247  1.37452e+20
-51.9074  1.45373e+20
-51.7901  1.53406e+20
-51.6728  1.61663e+20
-51.5555  1.70107e+20
-51.4381  1.78624e+20
-51.3208  1.87068e+20
-51.2035  1.95052e+20
-51.0862  2.0225e+20
-50.9689  2.08127e+20
-50.8516  2.12315e+20
-50.7343  2.14459e+20
-50.617  2.14338e+20
-50.4997  2.1192e+20
-50.3824  2.07229e+20
-50.2651  2.0047e+20
-50.1478  1.92054e+20
-50.0305  1.82319e+20
-49.9132  1.71966e+20
-49.7959  1.61548e+20
-49.6786  1.51761e+20
-49.5613  1.43277e+20
-49.444  1.36681e+20
-49.3267  1.32288e+20
-49.2094  1.30234e+20
-49.092  1.30324e+20
-48.9747  1.32126e+20
-48.8574  1.35054e+20
-48.7401  1.38389e+20
-48.6228  1.41592e+20
-48.5055  1.4427e+20
-48.3882  1.46337e+20
-48.2709  1.47899e+20
-48.1536  1.49313e+20
-48.0363  1.5084e+20
-47.919  1.5281e+20
-47.8017  1.55237e+20
-47.6844  1.58005e+20
-47.5671  1.60662e+20
-47.4498  1.62798e+20
-47.3325  1.63879e+20
-47.2152  1.63605e+20
-47.0979  1.6186e+20
-46.9806  1.58804e+20
-46.8633  1.54866e+20
-46.7459  1.5065e+20
-46.6286  1.46894e+20
-46.5113  1.44307e+20
-46.394  1.43659e+20
-46.2767  1.45505e+20
-46.1594  1.50293e+20
-46.0421  1.58156e+20
-45.9248  1.69055e+20
-45.8075  1.82491e+20
-45.6902  1.97536e+20
-45.5729  2.13072e+20
-45.4556  2.27565e+20
-45.3383  2.39485e+20
-45.221  2.47331e+20
-45.1037  2.4995e+20
-44.9864  2.46897e+20
-44.8691  2.38341e+20
-44.7518  2.25091e+20
-44.6345  2.08624e+20
-44.5172  1.90664e+20
-44.3998  1.72997e+20
-44.2825  1.57e+20
-44.1652  1.43803e+20
-44.0479  1.33956e+20
-43.9306  1.27416e+20
-43.8133  1.23981e+20
-43.696  1.23192e+20
-43.5787  1.24667e+20
-43.4614  1.28045e+20
-43.3441  1.33244e+20
-43.2268  1.40175e+20
-43.1095  1.48836e+20
-42.9922  1.58928e+20
-42.8749  1.70165e+20
-42.7576  1.81985e+20
-42.6403  1.9386e+20
-42.523  2.05261e+20
-42.4057  2.15873e+20
-42.2884  2.2561e+20
-42.171  2.34642e+20
-42.0537  2.43269e+20
-41.9364  2.51836e+20
-41.8191  2.60357e+20
-41.7018  2.68755e+20
-41.5845  2.76495e+20
-41.4672  2.82863e+20
-41.3499  2.87128e+20
-41.2326  2.88427e+20
-41.1153  2.86383e+20
-40.998  2.80871e+20
-40.8807  2.72134e+20
-40.7634  2.60873e+20
-40.6461  2.47965e+20
-40.5288  2.34296e+20
-40.4115  2.20689e+20
-40.2942  2.07981e+20
-40.1769  1.96518e+20
-40.0596  1.86714e+20
-39.9423  1.78799e+20
-39.825  1.72939e+20
-39.7076  1.69293e+20
-39.5903  1.67828e+20
-39.473  1.68548e+20
-39.3557  1.71383e+20
-39.2384  1.75961e+20
-39.1211  1.81832e+20
-39.0038  1.88644e+20
-38.8865  1.96014e+20
-38.7692  2.03717e+20
-38.6519  2.11959e+20
-38.5346  2.21092e+20
-38.4173  2.31715e+20
-38.3  2.44431e+20
-38.1827  2.59763e+20
-38.0654  2.77857e+20
-37.9481  2.98431e+20
-37.8308  3.20722e+20
-37.7135  3.4357e+20
-37.5962  3.65506e+20
-37.4789  3.85087e+20
-37.3615  4.01145e+20
-37.2442  4.12788e+20
-37.1269  4.1986e+20
-37.0096  4.2243e+20
-36.8923  4.21374e+20
-36.775  4.17851e+20
-36.6577  4.13232e+20
-36.5404  4.0881e+20
-36.4231  4.05728e+20
-36.3058  4.0494e+20
-36.1885  4.06914e+20
-36.0712  4.11744e+20
-35.9539  4.18988e+20
-35.8366  4.27982e+20
-35.7193  4.37827e+20
-35.602  4.47358e+20
-35.4847  4.55418e+20
-35.3674  4.61211e+20
-35.2501  4.64082e+20
-35.1328  4.63821e+20
-35.0154  4.60769e+20
-34.8981  4.55625e+20
-34.7808  4.49292e+20
-34.6635  4.4265e+20
-34.5462  4.36784e+20
-34.4289  4.32186e+20
-34.3116  4.29215e+20
-34.1943  4.27661e+20
-34.077  4.27246e+20
-33.9597  4.27303e+20
-33.8424  4.27223e+20
-33.7251  4.26281e+20
-33.6078  4.24256e+20
-33.4905  4.20968e+20
-33.3732  4.16599e+20
-33.2559  4.11618e+20
-33.1386  4.06751e+20
-33.0213  4.02812e+20
-32.904  4.00651e+20
-32.7867  4.01305e+20
-32.6693  4.0562e+20
-32.552  4.1414e+20
-32.4347  4.27569e+20
-32.3174  4.45647e+20
-32.2001  4.6829e+20
-32.0828  4.94612e+20
-31.9655  5.23359e+20
-31.8482  5.53073e+20
-31.7309  5.81851e+20
-31.6136  6.07967e+20
-31.4963  6.29782e+20
-31.379  6.46084e+20
-31.2617  6.56018e+20
-31.1444  6.59293e+20
-31.0271  6.56347e+20
-30.9098  6.47898e+20
-30.7925  6.35329e+20
-30.6752  6.20097e+20
-30.5579  6.03776e+20
-30.4406  5.87944e+20
-30.3232  5.74099e+20
-30.2059  5.63413e+20
-30.0886  5.56488e+20
-29.9713  5.5353e+20
-29.854  5.54422e+20
-29.7367  5.58633e+20
-29.6194  5.65224e+20
-29.5021  5.73008e+20
-29.3848  5.80983e+20
-29.2675  5.88311e+20
-29.1502  5.93973e+20
-29.0329  5.97602e+20
-28.9156  5.98993e+20
-28.7983  5.98252e+20
-28.681  5.95719e+20
-28.5637  5.91911e+20
-28.4464  5.87542e+20
-28.3291  5.83355e+20
-28.2118  5.80119e+20
-28.0944  5.78817e+20
-27.9771  5.7995e+20
-27.8598  5.84119e+20
-27.7425  5.91968e+20
-27.6252  6.03595e+20
-27.5079  6.19403e+20
-27.3906  6.39412e+20
-27.2733  6.63796e+20
-27.156  6.93062e+20
-27.0387  7.27152e+20
-26.9214  7.66575e+20
-26.8041  8.11291e+20
-26.6868  8.61089e+20
-26.5695  9.14943e+20
-26.4522  9.71375e+20
-26.3349  1.02824e+21
-26.2176  1.08293e+21
-26.1003  1.1327e+21
-25.983  1.17492e+21
-25.8657  1.20763e+21
-25.7483  1.22994e+21
-25.631  1.24211e+21
-25.5137  1.24568e+21
-25.3964  1.24262e+21
-25.2791  1.23616e+21
-25.1618  1.22908e+21
-25.0445  1.22423e+21
-24.9272  1.22359e+21
-24.8099  1.22832e+21
-24.6926  1.23854e+21
-24.5753  1.25402e+21
-24.458  1.27291e+21
-24.3407  1.29375e+21
-24.2234  1.31429e+21
-24.1061  1.33248e+21
-23.9888  1.34634e+21
-23.8715  1.35436e+21
-23.7542  1.3557e+21
-23.6369  1.35035e+21
-23.5196  1.33921e+21
-23.4023  1.32442e+21
-23.2849  1.30861e+21
-23.1676  1.2953e+21
-23.0503  1.28804e+21
-22.933  1.28993e+21
-22.8157  1.30348e+21
-22.6984  1.32974e+21
-22.5811  1.36882e+21
-22.4638  1.41961e+21
-22.3465  1.47984e+21
-22.2292  1.54721e+21
-22.1119  1.61907e+21
-21.9946  1.69305e+21
-21.8773  1.76755e+21
-21.76  1.8416e+21
-21.6427  1.91503e+21
-21.5254  1.98831e+21
-21.4081  2.0626e+21
-21.2908  2.13945e+21
-21.1735  2.2208e+21
-21.0561  2.30913e+21
-20.9388  2.40661e+21
-20.8215  2.51569e+21
-20.7042  2.63781e+21
-20.5869  2.77384e+21
-20.4696  2.92286e+21
-20.3523  3.08283e+21
-20.235  3.24949e+21
-20.1177  3.41778e+21
-20.0004  3.58158e+21
-19.8831  3.73473e+21
-19.7658  3.87179e+21
-19.6485  3.98948e+21
-19.5312  4.08662e+21
-19.4139  4.16419e+21
-19.2966  4.22587e+21
-19.1793  4.27739e+21
-19.062  4.32539e+21
-18.9447  4.37715e+21
-18.8274  4.43956e+21
-18.71  4.51848e+21
-18.5927  4.6182e+21
-18.4754  4.7414e+21
-18.3581  4.88869e+21
-18.2408  5.05955e+21
-18.1235  5.25121e+21
-18.0062  5.45989e+21
-17.8889  5.68117e+21
-17.7716  5.91002e+21
-17.6543  6.14152e+21
-17.537  6.37128e+21
-17.4197  6.59564e+21
-17.3024  6.81223e+21
-17.1851  7.02027e+21
-17.0678  7.22009e+21
-16.9505  7.41366e+21
-16.8332  7.60327e+21
-16.7159  7.79218e+21
-16.5986  7.98324e+21
-16.4813  8.17919e+21
-16.364  8.38207e+21
-16.2466  8.59229e+21
-16.1293  8.81011e+21
-16.012  9.03478e+21
-15.8947  9.26493e+21
-15.7774  9.49898e+21
-15.6601  9.73552e+21
-15.5428  9.973e+21
-15.4255  1.02103e+22
-15.3082  1.04471e+22
-15.1909  1.06826e+22
-15.0736  1.09171e+22
-14.9563  1.11507e+22
-14.839  1.13844e+22
-14.7217  1.16185e+22
-14.6044  1.18536e+22
-14.4871  1.20908e+22
-14.3698  1.23305e+22
-14.2525  1.25729e+22
-14.1352  1.28187e+22
-14.0178  1.3068e+22
-13.9005  1.33207e+22
-13.7832  1.35773e+22
-13.6659  1.38375e+22
-13.5486  1.41029e+22
-13.4313  1.43724e+22
-13.314  1.46473e+22
-13.1967  1.49277e+22
-13.0794  1.52137e+22
-12.9621  1.55051e+22
-12.8448  1.58014e+22
-12.7275  1.61006e+22
-12.6102  1.64014e+22
-12.4929  1.67013e+22
-12.3756  1.69968e+22
-12.2583  1.72851e+22
-12.141  1.75626e+22
-12.0237  1.78261e+22
-11.9064  1.80731e+22
-11.7891  1.83024e+22
-11.6718  1.85138e+22
-11.5544  1.87085e+22
-11.4371  1.88895e+22
-11.3198  1.90614e+22
-11.2025  1.92294e+22
-11.0852  1.94004e+22
-10.9679  1.95805e+22
-10.8506  1.97755e+22
-10.7333  1.99898e+22
-10.616  2.02262e+22
-10.4987  2.04852e+22
-10.3814  2.07654e+22
-10.2641  2.10632e+22
-10.1468  2.13741e+22
-10.0295  2.16918e+22
-9.91217  2.20102e+22
-9.79487  2.23241e+22
-9.67756  2.26286e+22
-9.56026  2.29199e+22
-9.44295  2.31967e+22
-9.32565  2.34587e+22
-9.20834  2.37071e+22
-9.09104  2.39443e+22
-8.97373  2.41731e+22
-8.85643  2.43984e+22
-8.73913  2.46214e+22
-8.62182  2.48459e+22
-8.50452  2.50731e+22
-8.38721  2.53033e+22
-8.26991  2.55357e+22
-8.1526  2.5768e+22
-8.03529  2.59969e+22
-7.91799  2.6219e+22
-7.80069  2.64315e+22
-7.68338  2.66304e+22
-7.56608  2.68144e+22
-7.44877  2.69823e+22
-7.33146  2.71346e+22
-7.21416  2.72729e+22
-7.09685  2.74003e+22
-6.97955  2.75201e+22
-6.86224  2.76371e+22
-6.74494  2.77552e+22
-6.62763  2.78779e+22
-6.51033  2.80085e+22
-6.39302  2.81489e+22
-6.27572  2.82997e+22
-6.15842  2.84609e+22
-6.04111  2.86308e+22
-5.92381  2.88074e+22
-5.8065  2.89884e+22
-5.68919  2.91721e+22
-5.57189  2.93572e+22
-5.45458  2.95429e+22
-5.33728  2.97309e+22
-5.21997  2.99228e+22
-5.10267  3.01221e+22
-4.98536  3.03322e+22
-4.86806  3.05568e+22
-4.75075  3.07992e+22
-4.63345  3.10615e+22
-4.51614  3.13448e+22
-4.39884  3.16477e+22
-4.28154  3.19676e+22
-4.16423  3.22998e+22
-4.04692  3.26376e+22
-3.92962  3.29737e+22
-3.81231  3.32992e+22
-3.69501  3.36049e+22
-3.5777  3.38824e+22
-3.4604  3.41243e+22
-3.34309  3.4325e+22
-3.22579  3.44816e+22
-3.10849  3.45951e+22
-2.99118  3.46685e+22
-2.87387  3.47081e+22
-2.75657  3.47223e+22
-2.63926  3.47207e+22
-2.52196  3.47127e+22
-2.40465  3.47069e+22
-2.28735  3.4709e+22
-2.17005  3.47236e+22
-2.05274  3.4752e+22
-1.93544  3.47923e+22
-1.81813  3.48413e+22
-1.70083  3.48938e+22
-1.58352  3.49438e+22
-1.46622  3.49858e+22
-1.34891  3.50138e+22
-1.2316  3.50235e+22
-1.1143  3.50122e+22
-0.996995  3.49789e+22
-0.87969  3.49251e+22
-0.762385  3.48532e+22
-0.64508  3.47697e+22
-0.527775  3.46817e+22
-0.41047  3.4597e+22
-0.293165  3.45238e+22
-0.17586  3.44698e+22
-0.058555  3.44408e+22
0.05875  3.44391e+22
0.176055  3.44655e+22
0.29336  3.45164e+22
0.410665  3.45869e+22
0.52797  3.46687e+22
0.645275  3.47542e+22
0.76258  3.48348e+22
0.879885  3.49041e+22
0.99719  3.49557e+22
1.1145  3.4987e+22
1.2318  3.49962e+22
1.3491  3.49847e+22
1.46641  3.49548e+22
1.58371  3.49109e+22
1.70102  3.48589e+22
1.81832  3.48044e+22
1.93563  3.47533e+22
2.05294  3.47105e+22
2.17024  3.46798e+22
2.28754  3.46625e+22
2.40485  3.46571e+22
2.52216  3.46597e+22
2.63946  3.46642e+22
2.75677  3.46619e+22
2.87407  3.46437e+22
2.99137  3.45998e+22
3.10868  3.45221e+22
3.22599  3.44045e+22
3.34329  3.42435e+22
3.4606  3.4039e+22
3.5779  3.37936e+22
3.69521  3.35128e+22
3.81251  3.32043e+22
3.92982  3.28761e+22
4.04712  3.25376e+22
4.16443  3.21976e+22
4.28173  3.18633e+22
4.39903  3.15414e+22
4.51634  3.12366e+22
4.63364  3.09517e+22
4.75095  3.06872e+22
4.86825  3.04427e+22
4.98556  3.02158e+22
5.10286  3.00038e+22
5.22017  2.9802e+22
5.33748  2.96077e+22
5.45478  2.94177e+22
5.57209  2.92297e+22
5.68939  2.90428e+22
5.8067  2.88575e+22
5.924  2.86747e+22
6.0413  2.84969e+22
6.15861  2.83261e+22
6.27591  2.81642e+22
6.39322  2.80127e+22
6.51052  2.78718e+22
6.62783  2.77408e+22
6.74514  2.76175e+22
6.86244  2.74991e+22
6.97975  2.73816e+22
7.09705  2.72609e+22
7.21436  2.71327e+22
7.33166  2.69931e+22
7.44897  2.68396e+22
7.56627  2.66702e+22
7.68358  2.64846e+22
7.80088  2.62839e+22
7.91819  2.60699e+22
8.03549  2.58458e+22
8.1528  2.56152e+22
8.2701  2.53813e+22
8.38741  2.51475e+22
8.50471  2.49158e+22
8.62202  2.46872e+22
8.73932  2.44613e+22
8.85662  2.4237e+22
8.97393  2.40109e+22
9.09123  2.37805e+22
9.20854  2.35422e+22
9.32584  2.32926e+22
9.44315  2.30294e+22
9.56045  2.27512e+22
9.67776  2.24585e+22
9.79506  2.2153e+22
9.91237  2.18374e+22
10.0297  2.15176e+22
10.147  2.11988e+22
10.2643  2.08867e+22
10.3816  2.05877e+22
10.4989  2.03062e+22
10.6162  2.00459e+22
10.7335  1.98083e+22
10.8508  1.95932e+22
10.9681  1.93971e+22
11.0854  1.92161e+22
11.2027  1.90442e+22
11.32  1.88752e+22
11.4373  1.87028e+22
11.5546  1.85215e+22
11.6719  1.83264e+22
11.7893  1.81152e+22
11.9066  1.78863e+22
12.0239  1.76395e+22
12.1412  1.73768e+22
12.2585  1.71004e+22
12.3758  1.68133e+22
12.4931  1.6519e+22
12.6104  1.62206e+22
12.7277  1.59212e+22
12.845  1.56232e+22
12.9623  1.53286e+22
13.0796  1.50385e+22
13.1969  1.47536e+22
13.3142  1.44747e+22
13.4315  1.42011e+22
13.5488  1.39327e+22
13.6661  1.36688e+22
13.7834  1.34095e+22
13.9007  1.31542e+22
14.018  1.29024e+22
14.1354  1.26545e+22
14.2527  1.24097e+22
14.37  1.21685e+22
14.4873  1.19301e+22
14.6046  1.16939e+22
14.7219  1.14601e+22
14.8392  1.12274e+22
14.9565  1.0995e+22
15.0738  1.07629e+22
15.1911  1.05296e+22
15.3084  1.02956e+22
15.4257  1.00606e+22
15.543  9.82507e+21
15.6603  9.58921e+21
15.7776  9.35457e+21
15.8949  9.12233e+21
16.0122  8.89406e+21
16.1295  8.67143e+21
16.2468  8.45559e+21
16.3641  8.247e+21
16.4815  8.04624e+21
16.5988  7.85206e+21
16.7161  7.66262e+21
16.8334  7.47549e+21
16.9507  7.28766e+21
17.068  7.09601e+21
17.1853  6.89798e+21
17.3026  6.69196e+21
17.4199  6.47748e+21
17.5372  6.25535e+21
17.6545  6.02822e+21
17.7718  5.79935e+21
17.8891  5.57303e+21
18.0064  5.35484e+21
18.1237  5.1491e+21
18.241  4.96041e+21
18.3583  4.7926e+21
18.4756  4.64801e+21
18.5929  4.52748e+21
18.7102  4.43009e+21
18.8275  4.35349e+21
18.9449  4.29303e+21
19.0622  4.243e+21
19.1795  4.1965e+21
19.2968  4.14632e+21
19.4141  4.08584e+21
19.5314  4.00943e+21
19.6487  3.91352e+21
19.766  3.79724e+21
19.8833  3.66149e+21
20.0006  3.5103e+21
20.1179  3.34864e+21
20.2352  3.18276e+21
20.3525  3.0185e+21
20.4698  2.86126e+21
20.5871  2.71487e+21
20.7044  2.58149e+21
20.8217  2.4619e+21
20.939  2.35532e+21
21.0563  2.26e+21
21.1736  2.17388e+21
21.291  2.09441e+21
21.4083  2.01947e+21
21.5256  1.94697e+21
21.6429  1.8754e+21
21.7602  1.80359e+21
21.8775  1.73118e+21
21.9948  1.65822e+21
22.1121  1.58588e+21
22.2294  1.51568e+21
22.3467  1.44992e+21
22.464  1.39119e+21
22.5813  1.34198e+21
22.6986  1.30436e+21
22.8159  1.27957e+21
22.9332  1.26738e+21
23.0505  1.26668e+21
23.1678  1.27492e+21
23.2851  1.28901e+21
23.4024  1.30551e+21
23.5198  1.32093e+21
23.6371  1.33247e+21
23.7544  1.33829e+21
23.8717  1.33734e+21
23.989  1.32991e+21
24.1063  1.31654e+21
24.2236  1.29897e+21
24.3409  1.27917e+21
24.4582  1.25905e+21
24.5755  1.24094e+21
24.6928  1.22648e+21
24.8101  1.21705e+21
24.9274  1.21315e+21
25.0447  1.21461e+21
25.162  1.22025e+21
25.2793  1.22793e+21
25.3966  1.23486e+21
25.5139  1.23812e+21
25.6312  1.23484e+21
25.7485  1.2228e+21
25.8658  1.20054e+21
25.9832  1.16784e+21
26.1005  1.12569e+21
26.2178  1.07605e+21
26.3351  1.02149e+21
26.4524  9.6482e+20
26.5697  9.08654e+20
26.687  8.55077e+20
26.8043  8.05832e+20
26.9216  7.61529e+20
27.0389  7.2242e+20
27.1562  6.88658e+20
27.2735  6.59909e+20
27.3908  6.35725e+20
27.5081  6.16054e+20
27.6254  6.00634e+20
27.7427  5.89278e+20
27.86  5.81738e+20
27.9773  5.77678e+20
28.0946  5.76797e+20
28.212  5.78243e+20
28.3293  5.81433e+20
28.4466  5.85656e+20
28.5639  5.89914e+20
28.6812  5.93715e+20
28.7985  5.96084e+20
28.9158  5.96691e+20
29.0331  5.95286e+20
29.1504  5.91424e+20
29.2677  5.85756e+20
29.385  5.7844e+20
29.5023  5.70389e+20
29.6196  5.62554e+20
29.7369  5.56081e+20
29.8542  5.52037e+20
29.9715  5.51223e+20
30.0888  5.54207e+20
30.2061  5.61216e+20
30.3234  5.7198e+20
30.4407  5.85772e+20
30.558  6.01537e+20
30.6754  6.17773e+20
30.7927  6.32893e+20
30.91  6.45355e+20
31.0273  6.5352e+20
31.1446  6.5628e+20
31.2619  6.52681e+20
31.3792  6.42584e+20
31.4965  6.26167e+20
31.6138  6.04265e+20
31.7311  5.77968e+20
31.8484  5.4922e+20
31.9657  5.19615e+20
32.083  4.90899e+20
32.2003  4.64691e+20
32.3176  4.42216e+20
32.4349  4.2419e+20
32.5522  4.10999e+20
32.6695  4.02557e+20
32.7868  3.98469e+20
32.9042  3.97837e+20
33.0215  4.00092e+20
33.1388  4.04076e+20
33.2561  4.09012e+20
33.3734  4.13977e+20
33.4907  4.18317e+20
33.608  4.21631e+20
33.7253  4.23744e+20
33.8426  4.24598e+20
33.9599  4.24778e+20
34.0772  4.24724e+20
34.1945  4.25217e+20
34.3118  4.26739e+20
34.4291  4.2976e+20
34.5464  4.34388e+20
34.6637  4.40342e+20
34.781  4.46892e+20
34.8983  4.53217e+20
35.0156  4.58285e+20
35.1329  4.61212e+20
35.2503  4.61333e+20
35.3676  4.58388e+20
35.4849  4.52545e+20
35.6022  4.44463e+20
35.7195  4.34962e+20
35.8368  4.25166e+20
35.9541  4.16211e+20
36.0714  4.09057e+20
36.1887  4.04323e+20
36.306  4.02515e+20
36.4233  4.03396e+20
36.5406  4.06533e+20
36.6579  4.1099e+20
36.7752  4.15652e+20
36.8925  4.19055e+20
37.0098  4.20015e+20
37.1271  4.17291e+20
37.2444  4.10161e+20
37.3617  3.98392e+20
37.479  3.82279e+20
37.5964  3.62638e+20
37.7137  3.40747e+20
37.831  3.17946e+20
37.9483  2.95772e+20
38.0656  2.75292e+20
38.1829  2.57382e+20
38.3002  2.42188e+20
38.4175  2.29564e+20
38.5348  2.19072e+20
38.6521  2.10031e+20
38.7694  2.0189e+20
38.8867  1.94217e+20
39.004  1.86951e+20
39.1213  1.80229e+20
39.2386  1.74466e+20
39.3559  1.70046e+20
39.4732  1.67379e+20
39.5905  1.66739e+20
39.7078  1.68333e+20
39.8251  1.72158e+20
39.9425  1.78123e+20
40.0598  1.86135e+20
40.1771  1.96007e+20
40.2944  2.07532e+20
40.4117  2.20356e+20
40.529  2.33899e+20
40.6463  2.47624e+20
40.7636  2.60547e+20
40.8809  2.71724e+20
40.9982  2.8038e+20
41.1155  2.85854e+20
41.2328  2.87829e+20
41.3501  2.86415e+20
41.4674  2.82133e+20
41.5847  2.75728e+20
41.702  2.67976e+20
41.8193  2.59655e+20
41.9366  2.51133e+20
42.0539  2.42621e+20
42.1712  2.33987e+20
42.2885  2.2496e+20
42.4059  2.15184e+20
42.5232  2.04546e+20
42.6405  1.93131e+20
42.7578  1.81261e+20
42.8751  1.69439e+20
42.9924  1.58226e+20
43.1097  1.48163e+20
43.227  1.39566e+20
43.3443  1.32689e+20
43.4616  1.27547e+20
43.5789  1.24202e+20
43.6962  1.22809e+20
43.8135  1.23694e+20
43.9308  1.27242e+20
44.0481  1.33824e+20
44.1654  1.43806e+20
44.2827  1.57087e+20
44.4  1.7314e+20
44.5173  1.90896e+20
44.6347  2.08841e+20
44.752  2.25215e+20
44.8693  2.38273e+20
44.9866  2.46656e+20
45.1039  2.49515e+20
45.2212  2.4664e+20
45.3385  2.38649e+20
45.4558  2.26612e+20
45.5731  2.12057e+20
45.6904  1.96516e+20
45.8077  1.81465e+20
45.925  1.68124e+20
46.0423  1.5737e+20
46.1596  1.49614e+20
46.2769  1.44941e+20
46.3942  1.43213e+20
46.5115  1.43963e+20
46.6288  1.46576e+20
46.7461  1.50372e+20
46.8634  1.54598e+20
46.9808  1.58507e+20
47.0981  1.61494e+20
47.2154  1.63206e+20
47.3327  1.63395e+20
47.45  1.62246e+20
47.5673  1.60044e+20
47.6846  1.57361e+20
47.8019  1.54594e+20
47.9192  1.52154e+20
48.0365  1.50189e+20
48.1538  1.48642e+20
48.2711  1.47253e+20
48.3884  1.45686e+20
48.5057  1.43627e+20
48.623  1.40913e+20
48.7403  1.3771e+20
48.8576  1.34417e+20
48.9749  1.31537e+20
49.0922  1.2978e+20
49.2095  1.29786e+20
49.3269  1.31917e+20
49.4442  1.36411e+20
49.5615  1.43106e+20
49.6788  1.51661e+20
49.7961  1.61465e+20
49.9134  1.71934e+20
50.0307  1.82311e+20
50.148  1.91954e+20
50.2653  2.00368e+20
50.3826  2.07024e+20
50.4999  2.11637e+20
50.6172  2.13973e+20
50.7345  2.14003e+20
