#S 1 spectral density
#N 2
#UFWHM 23.9302
#L  abscissas [um]  spectral density
-58.5938  1.19841e+20
-58.4764  1.11854e+20
-58.3591  1.03841e+20
-58.2418  9.60267e+19
-58.1245  8.86592e+19
-58.0072  8.21668e+19
-57.8899  7.70473e+19
-57.7726  7.38769e+19
-57.6553  7.33072e+19
-57.538  7.58939e+19
-57.4207  8.19246e+19
-57.3034  9.1362e+19
-57.1861  1.03785e+20
-57.0688  1.18281e+20
-56.9515  1.33737e+20
-56.8342  1.48736e+20
-56.7169  1.62107e+20
-56.5996  1.72898e+20
-56.4823  1.80722e+20
-56.365  1.85614e+20
-56.2477  1.88231e+20
-56.1303  1.89329e+20
-56.013  1.89953e+20
-55.8957  1.90812e+20
-55.7784  1.92394e+20
-55.6611  1.94564e+20
-55.5438  1.96836e+20
-55.4265  1.98566e+20
-55.3092  1.98868e+20
-55.1919  1.97058e+20
-55.0746  1.9288e+20
-54.9573  1.86309e+20
-54.84  1.77961e+20
-54.7227  1.68623e+20
-54.6054  1.59371e+20
-54.4881  1.51221e+20
-54.3708  1.44925e+20
-54.2535  1.41025e+20
-54.1362  1.39609e+20
-54.0189  1.40403e+20
-53.9016  1.42783e+20
-53.7842  1.45986e+20
-53.6669  1.4922e+20
-53.5496  1.51764e+20
-53.4323  1.53084e+20
-53.315  1.5295e+20
-53.1977  1.51379e+20
-53.0804  1.48613e+20
-52.9631  1.45105e+20
-52.8458  1.41365e+20
-52.7285  1.37867e+20
-52.6112  1.35014e+20
-52.4939  1.33005e+20
-52.3766  1.32002e+20
-52.2593  1.32009e+20
-52.142  1.33031e+20
-52.0247  1.3505e+20
-51.9074  1.38135e+20
-51.7901  1.4238e+20
-51.6728  1.4807e+20
-51.5555  1.55342e+20
-51.4381  1.64306e+20
-51.3208  1.74968e+20
-51.2035  1.87059e+20
-51.0862  2.0023e+20
-50.9689  2.13779e+20
-50.8516  2.26971e+20
-50.7343  2.38906e+20
-50.617  2.48718e+20
-50.4997  2.55597e+20
-50.3824  2.58843e+20
-50.2651  2.57958e+20
-50.1478  2.5282e+20
-50.0305  2.4342e+20
-49.9132  2.30316e+20
-49.7959  2.14096e+20
-49.6786  1.95762e+20
-49.5613  1.7638e+20
-49.444  1.57097e+20
-49.3267  1.38874e+20
-49.2094  1.22552e+20
-49.092  1.08671e+20
-48.9747  9.75135e+19
-48.8574  8.91893e+19
-48.7401  8.36094e+19
-48.6228  8.0676e+19
-48.5055  8.03226e+19
-48.3882  8.24975e+19
-48.2709  8.71473e+19
-48.1536  9.41653e+19
-48.0363  1.03193e+20
-47.919  1.13755e+20
-47.8017  1.25063e+20
-47.6844  1.36245e+20
-47.5671  1.46297e+20
-47.4498  1.5454e+20
-47.3325  1.60482e+20
-47.2152  1.6414e+20
-47.0979  1.66002e+20
-46.9806  1.66903e+20
-46.8633  1.67926e+20
-46.7459  1.70145e+20
-46.6286  1.7446e+20
-46.5113  1.8132e+20
-46.394  1.90883e+20
-46.2767  2.0274e+20
-46.1594  2.16173e+20
-46.0421  2.30119e+20
-45.9248  2.43528e+20
-45.8075  2.55243e+20
-45.6902  2.64113e+20
-45.5729  2.69408e+20
-45.4556  2.7044e+20
-45.3383  2.67049e+20
-45.221  2.59325e+20
-45.1037  2.47821e+20
-44.9864  2.33645e+20
-44.8691  2.18198e+20
-44.7518  2.02996e+20
-44.6345  1.8966e+20
-44.5172  1.79459e+20
-44.3998  1.73188e+20
-44.2825  1.70761e+20
-44.1652  1.71701e+20
-44.0479  1.74896e+20
-43.9306  1.78883e+20
-43.8133  1.82308e+20
-43.696  1.84156e+20
-43.5787  1.84048e+20
-43.4614  1.82111e+20
-43.3441  1.79278e+20
-43.2268  1.76721e+20
-43.1095  1.75835e+20
-42.9922  1.77656e+20
-42.8749  1.82953e+20
-42.7576  1.91827e+20
-42.6403  2.0396e+20
-42.523  2.18561e+20
-42.4057  2.34672e+20
-42.2884  2.51277e+20
-42.171  2.67475e+20
-42.0537  2.82618e+20
-41.9364  2.96239e+20
-41.8191  3.07868e+20
-41.7018  3.17235e+20
-41.5845  3.24061e+20
-41.4672  3.2804e+20
-41.3499  3.29134e+20
-41.2326  3.27161e+20
-41.1153  3.22403e+20
-40.998  3.15246e+20
-40.8807  3.06226e+20
-40.7634  2.96084e+20
-40.6461  2.85499e+20
-40.5288  2.74941e+20
-40.4115  2.64691e+20
-40.2942  2.54965e+20
-40.1769  2.45469e+20
-40.0596  2.36083e+20
-39.9423  2.26616e+20
-39.825  2.17038e+20
-39.7076  2.07542e+20
-39.5903  1.98436e+20
-39.473  1.90241e+20
-39.3557  1.83651e+20
-39.2384  1.7924e+20
-39.1211  1.77481e+20
-39.0038  1.7895e+20
-38.8865  1.83915e+20
-38.7692  1.92594e+20
-38.6519  2.05204e+20
-38.5346  2.21699e+20
-38.4173  2.41917e+20
-38.3  2.65434e+20
-38.1827  2.91607e+20
-38.0654  3.19456e+20
-37.9481  3.47805e+20
-37.8308  3.75335e+20
-37.7135  4.00762e+20
-37.5962  4.22966e+20
-37.4789  4.41201e+20
-37.3615  4.5525e+20
-37.2442  4.65202e+20
-37.1269  4.71785e+20
-37.0096  4.75546e+20
-36.8923  4.77499e+20
-36.775  4.78372e+20
-36.6577  4.78723e+20
-36.5404  4.78687e+20
-36.4231  4.78146e+20
-36.3058  4.76907e+20
-36.1885  4.74555e+20
-36.0712  4.70826e+20
-35.9539  4.65465e+20
-35.8366  4.58635e+20
-35.7193  4.50713e+20
-35.602  4.42265e+20
-35.4847  4.33942e+20
-35.3674  4.26655e+20
-35.2501  4.21138e+20
-35.1328  4.18018e+20
-35.0154  4.17803e+20
-34.8981  4.20666e+20
-34.7808  4.26388e+20
-34.6635  4.34258e+20
-34.5462  4.435e+20
-34.4289  4.52816e+20
-34.3116  4.61038e+20
-34.1943  4.66987e+20
-34.077  4.70061e+20
-33.9597  4.70022e+20
-33.8424  4.67341e+20
-33.7251  4.62935e+20
-33.6078  4.58437e+20
-33.4905  4.55595e+20
-33.3732  4.56175e+20
-33.2559  4.61678e+20
-33.1386  4.73165e+20
-33.0213  4.90898e+20
-32.904  5.14397e+20
-32.7867  5.42796e+20
-32.6693  5.74395e+20
-32.552  6.07198e+20
-32.4347  6.39459e+20
-32.3174  6.68795e+20
-32.2001  6.93786e+20
-32.0828  7.12899e+20
-31.9655  7.2514e+20
-31.8482  7.30211e+20
-31.7309  7.27944e+20
-31.6136  7.19038e+20
-31.4963  7.04417e+20
-31.379  6.85525e+20
-31.2617  6.63846e+20
-31.1444  6.41046e+20
-31.0271  6.18844e+20
-30.9098  5.9851e+20
-30.7925  5.81303e+20
-30.6752  5.67882e+20
-30.5579  5.58519e+20
-30.4406  5.53206e+20
-30.3232  5.51783e+20
-30.2059  5.53881e+20
-30.0886  5.58881e+20
-29.9713  5.66298e+20
-29.854  5.75735e+20
-29.7367  5.86918e+20
-29.6194  5.99518e+20
-29.5021  6.13217e+20
-29.3848  6.2785e+20
-29.2675  6.43311e+20
-29.1502  6.5892e+20
-29.0329  6.74316e+20
-28.9156  6.88748e+20
-28.7983  7.01385e+20
-28.681  7.11352e+20
-28.5637  7.17738e+20
-28.4464  7.20038e+20
-28.3291  7.17872e+20
-28.2118  7.11419e+20
-28.0944  7.01692e+20
-27.9771  6.89691e+20
-27.8598  6.77211e+20
-27.7425  6.66417e+20
-27.6252  6.59282e+20
-27.5079  6.58061e+20
-27.3906  6.64415e+20
-27.2733  6.79886e+20
-27.156  7.05641e+20
-27.0387  7.41811e+20
-26.9214  7.88392e+20
-26.8041  8.44473e+20
-26.6868  9.08563e+20
-26.5695  9.78323e+20
-26.4522  1.05106e+21
-26.3349  1.12382e+21
-26.2176  1.19345e+21
-26.1003  1.25731e+21
-25.983  1.31307e+21
-25.8657  1.3594e+21
-25.7483  1.39607e+21
-25.631  1.4237e+21
-25.5137  1.44383e+21
-25.3964  1.4578e+21
-25.2791  1.46779e+21
-25.1618  1.47489e+21
-25.0445  1.48009e+21
-24.9272  1.48352e+21
-24.8099  1.48486e+21
-24.6926  1.48341e+21
-24.5753  1.47903e+21
-24.458  1.47109e+21
-24.3407  1.4604e+21
-24.2234  1.44782e+21
-24.1061  1.43499e+21
-23.9888  1.42388e+21
-23.8715  1.41648e+21
-23.7542  1.41485e+21
-23.6369  1.42067e+21
-23.5196  1.43522e+21
-23.4023  1.45945e+21
-23.2849  1.49357e+21
-23.1676  1.53745e+21
-23.0503  1.59032e+21
-22.933  1.65084e+21
-22.8157  1.71728e+21
-22.6984  1.78732e+21
-22.5811  1.85895e+21
-22.4638  1.93051e+21
-22.3465  2.00071e+21
-22.2292  2.06975e+21
-22.1119  2.13864e+21
-21.9946  2.20932e+21
-21.8773  2.28466e+21
-21.76  2.36754e+21
-21.6427  2.46058e+21
-21.5254  2.56528e+21
-21.4081  2.68214e+21
-21.2908  2.80983e+21
-21.1735  2.94588e+21
-21.0561  3.08696e+21
-20.9388  3.2288e+21
-20.8215  3.36765e+21
-20.7042  3.49979e+21
-20.5869  3.62255e+21
-20.4696  3.73396e+21
-20.3523  3.83354e+21
-20.235  3.92126e+21
-20.1177  3.99865e+21
-20.0004  4.06802e+21
-19.8831  4.1325e+21
-19.7658  4.19588e+21
-19.6485  4.26293e+21
-19.5312  4.33864e+21
-19.4139  4.42732e+21
-19.2966  4.53276e+21
-19.1793  4.6576e+21
-19.062  4.80225e+21
-18.9447  4.96535e+21
-18.8274  5.14362e+21
-18.71  5.33213e+21
-18.5927  5.525e+21
-18.4754  5.71641e+21
-18.3581  5.90075e+21
-18.2408  6.07473e+21
-18.1235  6.2359e+21
-18.0062  6.38419e+21
-17.8889  6.52146e+21
-17.7716  6.65124e+21
-17.6543  6.77805e+21
-17.537  6.90685e+21
-17.4197  7.04252e+21
-17.3024  7.18914e+21
-17.1851  7.35011e+21
-17.0678  7.52695e+21
-16.9505  7.72024e+21
-16.8332  7.92874e+21
-16.7159  8.15037e+21
-16.5986  8.38191e+21
-16.4813  8.62013e+21
-16.364  8.86171e+21
-16.2466  9.10347e+21
-16.1293  9.34368e+21
-16.012  9.58155e+21
-15.8947  9.81748e+21
-15.7774  1.00531e+22
-15.6601  1.02909e+22
-15.5428  1.05334e+22
-15.4255  1.07832e+22
-15.3082  1.10421e+22
-15.1909  1.13107e+22
-15.0736  1.15881e+22
-14.9563  1.18723e+22
-14.839  1.216e+22
-14.7217  1.24467e+22
-14.6044  1.27274e+22
-14.4871  1.2998e+22
-14.3698  1.32537e+22
-14.2525  1.34915e+22
-14.1352  1.37096e+22
-14.0178  1.39082e+22
-13.9005  1.40884e+22
-13.7832  1.42537e+22
-13.6659  1.4408e+22
-13.5486  1.45574e+22
-13.4313  1.47061e+22
-13.314  1.48601e+22
-13.1967  1.50234e+22
-13.0794  1.51994e+22
-12.9621  1.53901e+22
-12.8448  1.5596e+22
-12.7275  1.58158e+22
-12.6102  1.60481e+22
-12.4929  1.62903e+22
-12.3756  1.6539e+22
-12.2583  1.67921e+22
-12.141  1.70472e+22
-12.0237  1.73028e+22
-11.9064  1.75582e+22
-11.7891  1.78145e+22
-11.6718  1.80726e+22
-11.5544  1.83348e+22
-11.4371  1.86036e+22
-11.3198  1.8881e+22
-11.2025  1.91691e+22
-11.0852  1.94691e+22
-10.9679  1.97805e+22
-10.8506  2.01018e+22
-10.7333  2.04293e+22
-10.616  2.07586e+22
-10.4987  2.10837e+22
-10.3814  2.13987e+22
-10.2641  2.16973e+22
-10.1468  2.19747e+22
-10.0295  2.22272e+22
-9.91217  2.24531e+22
-9.79487  2.26532e+22
-9.67756  2.28301e+22
-9.56026  2.29879e+22
-9.44295  2.31328e+22
-9.32565  2.32712e+22
-9.20834  2.34097e+22
-9.09104  2.3554e+22
-8.97373  2.37086e+22
-8.85643  2.38779e+22
-8.73913  2.40616e+22
-8.62182  2.42606e+22
-8.50452  2.44727e+22
-8.38721  2.46943e+22
-8.26991  2.49218e+22
-8.1526  2.51504e+22
-8.03529  2.53752e+22
-7.91799  2.55929e+22
-7.80069  2.58009e+22
-7.68338  2.59972e+22
-7.56608  2.61821e+22
-7.44877  2.63571e+22
-7.33146  2.65244e+22
-7.21416  2.66871e+22
-7.09685  2.6849e+22
-6.97955  2.70129e+22
-6.86224  2.7182e+22
-6.74494  2.73582e+22
-6.62763  2.75414e+22
-6.51033  2.77312e+22
-6.39302  2.79257e+22
-6.27572  2.81214e+22
-6.15842  2.83152e+22
-6.04111  2.85026e+22
-5.92381  2.86799e+22
-5.8065  2.88443e+22
-5.68919  2.89941e+22
-5.57189  2.91294e+22
-5.45458  2.92514e+22
-5.33728  2.93642e+22
-5.21997  2.94725e+22
-5.10267  2.95826e+22
-4.98536  2.97013e+22
-4.86806  2.98354e+22
-4.75075  2.99911e+22
-4.63345  3.01733e+22
-4.51614  3.03859e+22
-4.39884  3.06298e+22
-4.28154  3.09045e+22
-4.16423  3.12073e+22
-4.04692  3.15327e+22
-3.92962  3.18744e+22
-3.81231  3.22237e+22
-3.69501  3.2571e+22
-3.5777  3.29065e+22
-3.4604  3.32203e+22
-3.34309  3.35036e+22
-3.22579  3.37493e+22
-3.10849  3.39533e+22
-2.99118  3.41133e+22
-2.87387  3.42297e+22
-2.75657  3.43055e+22
-2.63926  3.4345e+22
-2.52196  3.4354e+22
-2.40465  3.43382e+22
-2.28735  3.43028e+22
-2.17005  3.42529e+22
-2.05274  3.41931e+22
-1.93544  3.41256e+22
-1.81813  3.40535e+22
-1.70083  3.39782e+22
-1.58352  3.39013e+22
-1.46622  3.38236e+22
-1.34891  3.37456e+22
-1.2316  3.36677e+22
-1.1143  3.35901e+22
-0.996995  3.35127e+22
-0.87969  3.34364e+22
-0.762385  3.33607e+22
-0.64508  3.32882e+22
-0.527775  3.32208e+22
-0.41047  3.31611e+22
-0.293165  3.31122e+22
-0.17586  3.30773e+22
-0.058555  3.30589e+22
0.05875  3.30579e+22
0.176055  3.30747e+22
0.29336  3.31075e+22
0.410665  3.31547e+22
0.52797  3.32122e+22
0.645275  3.32777e+22
0.76258  3.33481e+22
0.879885  3.34216e+22
0.99719  3.3496e+22
1.1145  3.35714e+22
1.2318  3.36468e+22
1.3491  3.37226e+22
1.46641  3.37982e+22
1.58371  3.38734e+22
1.70102  3.39478e+22
1.81832  3.40202e+22
1.93563  3.40894e+22
2.05294  3.41534e+22
2.17024  3.42103e+22
2.28754  3.42567e+22
2.40485  3.42885e+22
2.52216  3.43005e+22
2.63946  3.42878e+22
2.75677  3.42442e+22
2.87407  3.41646e+22
2.99137  3.40441e+22
3.10868  3.38803e+22
3.22599  3.36726e+22
3.34329  3.34231e+22
3.4606  3.31366e+22
3.5779  3.282e+22
3.69521  3.2482e+22
3.81251  3.21327e+22
3.92982  3.17813e+22
4.04712  3.14378e+22
4.16443  3.1111e+22
4.28173  3.08068e+22
4.39903  3.05306e+22
4.51634  3.02854e+22
4.63364  3.00718e+22
4.75095  2.98878e+22
4.86825  2.97304e+22
4.98556  2.95943e+22
5.10286  2.94739e+22
5.22017  2.93614e+22
5.33748  2.92509e+22
5.45478  2.91359e+22
5.57209  2.90115e+22
5.68939  2.88739e+22
5.8067  2.87219e+22
5.924  2.85553e+22
6.0413  2.83762e+22
6.15861  2.81872e+22
6.27591  2.7992e+22
6.39322  2.7795e+22
6.51052  2.75996e+22
6.62783  2.74089e+22
6.74514  2.72249e+22
6.86244  2.70485e+22
6.97975  2.68789e+22
7.09705  2.67144e+22
7.21436  2.65521e+22
7.33166  2.63886e+22
7.44897  2.62207e+22
7.56627  2.6045e+22
7.68358  2.5859e+22
7.80088  2.56616e+22
7.91819  2.54524e+22
8.03549  2.52332e+22
8.1528  2.50068e+22
8.2701  2.47767e+22
8.38741  2.45478e+22
8.50471  2.43244e+22
8.62202  2.41108e+22
8.73932  2.391e+22
8.85662  2.37246e+22
8.97393  2.3554e+22
9.09123  2.33973e+22
9.20854  2.32514e+22
9.32584  2.31112e+22
9.44315  2.29709e+22
9.56045  2.2824e+22
9.67776  2.26642e+22
9.79506  2.24857e+22
9.91237  2.22834e+22
10.0297  2.20558e+22
10.147  2.18017e+22
10.2643  2.15227e+22
10.3816  2.12227e+22
10.4989  2.09065e+22
10.6162  2.05802e+22
10.7335  2.02502e+22
10.8508  1.99222e+22
10.9681  1.96005e+22
11.0854  1.92889e+22
11.2027  1.89888e+22
11.32  1.87007e+22
11.4373  1.84235e+22
11.5546  1.81553e+22
11.6719  1.78934e+22
11.7893  1.76358e+22
11.9066  1.73805e+22
12.0239  1.71255e+22
12.1412  1.68709e+22
12.2585  1.66169e+22
12.3758  1.63649e+22
12.4931  1.6117e+22
12.6104  1.5876e+22
12.7277  1.56447e+22
12.845  1.54257e+22
12.9623  1.52209e+22
13.0796  1.5031e+22
13.1969  1.48554e+22
13.3142  1.46929e+22
13.4315  1.45395e+22
13.5488  1.43912e+22
13.6661  1.42425e+22
13.7834  1.40884e+22
13.9007  1.39238e+22
14.018  1.37437e+22
14.1354  1.35459e+22
14.2527  1.33282e+22
14.37  1.30913e+22
14.4873  1.28365e+22
14.6046  1.25669e+22
14.7219  1.22873e+22
14.8392  1.20019e+22
14.9565  1.17154e+22
15.0738  1.14327e+22
15.1911  1.11564e+22
15.3084  1.08892e+22
15.4257  1.06316e+22
15.543  1.03833e+22
15.6603  1.01419e+22
15.7776  9.90556e+21
15.8949  9.67126e+21
16.0122  9.43677e+21
16.1295  9.2006e+21
16.2468  8.96225e+21
16.3641  8.72212e+21
16.4815  8.48285e+21
16.5988  8.24689e+21
16.7161  8.0175e+21
16.8334  7.79839e+21
16.9507  7.59245e+21
17.068  7.40179e+21
17.1853  7.22738e+21
17.3026  7.06882e+21
17.4199  6.92432e+21
17.5372  6.79054e+21
17.6545  6.6636e+21
17.7718  6.53842e+21
17.8891  6.40981e+21
18.0064  6.27399e+21
18.1237  6.12704e+21
18.241  5.96714e+21
18.3583  5.79465e+21
18.4756  5.6117e+21
18.5929  5.42211e+21
18.7102  5.23106e+21
18.8275  5.04476e+21
18.9449  4.86875e+21
19.0622  4.70801e+21
19.1795  4.56578e+21
19.2968  4.44332e+21
19.4141  4.34014e+21
19.5314  4.25362e+21
19.6487  4.17993e+21
19.766  4.11478e+21
19.8833  4.05295e+21
20.0006  3.99029e+21
20.1179  3.92263e+21
20.2352  3.84698e+21
20.3525  3.76085e+21
20.4698  3.66311e+21
20.5871  3.55347e+21
20.7044  3.4326e+21
20.8217  3.30247e+21
20.939  3.16572e+21
21.0563  3.02587e+21
21.1736  2.8871e+21
21.291  2.75322e+21
21.4083  2.62781e+21
21.5256  2.51325e+21
21.6429  2.41069e+21
21.7602  2.31973e+21
21.8775  2.23879e+21
21.9948  2.16522e+21
22.1121  2.09624e+21
22.2294  2.02897e+21
22.3467  1.96146e+21
22.464  1.89261e+21
22.5813  1.8225e+21
22.6986  1.75226e+21
22.8159  1.68375e+21
22.9332  1.61883e+21
23.0505  1.55984e+21
23.1678  1.50839e+21
23.2851  1.46587e+21
23.4024  1.43314e+21
23.5198  1.41025e+21
23.6371  1.39686e+21
23.7544  1.39218e+21
23.8717  1.39479e+21
23.989  1.40318e+21
24.1063  1.41512e+21
24.2236  1.42871e+21
24.3409  1.442e+21
24.4582  1.45333e+21
24.5755  1.46178e+21
24.6928  1.46691e+21
24.8101  1.4689e+21
24.9274  1.46817e+21
25.0447  1.46536e+21
25.162  1.46082e+21
25.2793  1.4543e+21
25.3966  1.44486e+21
25.5139  1.43117e+21
25.6312  1.41152e+21
25.7485  1.38423e+21
25.8658  1.34787e+21
25.9832  1.3017e+21
26.1005  1.24628e+21
26.2178  1.18283e+21
26.3351  1.11356e+21
26.4524  1.0413e+21
26.5697  9.69111e+20
26.687  8.99936e+20
26.8043  8.36746e+20
26.9216  7.81453e+20
27.0389  7.35528e+20
27.1562  7.00019e+20
27.2735  6.75051e+20
27.3908  6.60035e+20
27.5081  6.54164e+20
27.6254  6.55868e+20
27.7427  6.633e+20
27.86  6.74343e+20
27.9773  6.86854e+20
28.0946  6.98986e+20
28.212  7.08753e+20
28.3293  7.15045e+20
28.4466  7.1717e+20
28.5639  7.14737e+20
28.6812  7.0836e+20
28.7985  6.98287e+20
28.9158  6.85602e+20
29.0331  6.71286e+20
29.1504  6.55787e+20
29.2677  6.40284e+20
29.385  6.24968e+20
29.5023  6.10356e+20
29.6196  5.96677e+20
29.7369  5.8425e+20
29.8542  5.73282e+20
29.9715  5.63972e+20
30.0888  5.56632e+20
30.2061  5.5176e+20
30.3234  5.49842e+20
30.4407  5.51365e+20
30.558  5.56786e+20
30.6754  5.66256e+20
30.7927  5.79776e+20
30.91  5.97042e+20
31.0273  6.17266e+20
31.1446  6.39414e+20
31.2619  6.61961e+20
31.3792  6.83465e+20
31.4965  7.02181e+20
31.6138  7.16589e+20
31.7311  7.25119e+20
31.8484  7.27121e+20
31.9657  7.21925e+20
32.083  7.09384e+20
32.2003  6.9011e+20
32.3176  6.65089e+20
32.4349  6.35594e+20
32.5522  6.03489e+20
32.6695  5.70716e+20
32.7868  5.39351e+20
32.9042  5.1109e+20
33.0215  4.87786e+20
33.1388  4.7027e+20
33.2561  4.58977e+20
33.3734  4.53605e+20
33.4907  4.53071e+20
33.608  4.55949e+20
33.7253  4.6049e+20
33.8426  4.64704e+20
33.9599  4.67327e+20
34.0772  4.67197e+20
34.1945  4.64019e+20
34.3118  4.57876e+20
34.4291  4.49571e+20
34.5464  4.40225e+20
34.6637  4.31054e+20
34.781  4.23184e+20
34.8983  4.17566e+20
35.0156  4.14779e+20
35.1329  4.15053e+20
35.2503  4.18208e+20
35.3676  4.23796e+20
35.4849  4.31129e+20
35.6022  4.39481e+20
35.7195  4.4795e+20
35.8368  4.55858e+20
35.9541  4.62638e+20
36.0714  4.67971e+20
36.1887  4.71672e+20
36.306  4.74079e+20
36.4233  4.75307e+20
36.5406  4.75842e+20
36.6579  4.75874e+20
36.7752  4.7556e+20
36.8925  4.74599e+20
37.0098  4.72571e+20
37.1271  4.68669e+20
37.2444  4.62052e+20
37.3617  4.51958e+20
37.479  4.37826e+20
37.5964  4.19479e+20
37.7137  3.97263e+20
37.831  3.71833e+20
37.9483  3.444e+20
38.0656  3.1613e+20
38.1829  2.88484e+20
38.3002  2.62533e+20
38.4175  2.39234e+20
38.5348  2.19274e+20
38.6521  2.0302e+20
38.7694  1.90646e+20
38.8867  1.82138e+20
39.004  1.77326e+20
39.1213  1.76004e+20
39.2386  1.77864e+20
39.3559  1.82422e+20
39.4732  1.8911e+20
39.5905  1.97304e+20
39.7078  2.06453e+20
39.8251  2.16021e+20
39.9425  2.25616e+20
40.0598  2.35101e+20
40.1771  2.44496e+20
40.2944  2.54042e+20
40.4117  2.63869e+20
40.529  2.74076e+20
40.6463  2.84709e+20
40.7636  2.95345e+20
40.8809  3.05444e+20
40.9982  3.14412e+20
41.1155  3.21556e+20
41.2328  3.26259e+20
41.3501  3.28118e+20
41.4674  3.2699e+20
41.5847  3.22933e+20
41.702  3.16058e+20
41.8193  3.06687e+20
41.9366  2.95016e+20
42.0539  2.81418e+20
42.1712  2.66267e+20
42.2885  2.50098e+20
42.4059  2.33535e+20
42.5232  2.17503e+20
42.6405  2.03026e+20
42.7578  1.91033e+20
42.8751  1.82296e+20
42.9924  1.77151e+20
43.1097  1.75448e+20
43.227  1.76434e+20
43.3443  1.7904e+20
43.4616  1.81868e+20
43.5789  1.83721e+20
43.6962  1.83784e+20
43.8135  1.81839e+20
43.9308  1.78401e+20
44.0481  1.74387e+20
44.1654  1.7121e+20
44.2827  1.70325e+20
44.4  1.72836e+20
44.5173  1.79294e+20
44.6347  1.89612e+20
44.752  2.03006e+20
44.8693  2.18181e+20
44.9866  2.33624e+20
45.1039  2.47733e+20
45.2212  2.5907e+20
45.3385  2.66681e+20
45.4558  2.69929e+20
45.5731  2.68745e+20
45.6904  2.63343e+20
45.8077  2.54312e+20
45.925  2.42548e+20
46.0423  2.29146e+20
46.1596  2.15186e+20
46.2769  2.01785e+20
46.3942  1.90007e+20
46.5115  1.80547e+20
46.6288  1.73729e+20
46.7461  1.69499e+20
46.8634  1.67345e+20
46.9808  1.66334e+20
47.0981  1.65398e+20
47.2154  1.6353e+20
47.3327  1.59785e+20
47.45  1.53766e+20
47.5673  1.45463e+20
47.6846  1.35375e+20
47.8019  1.24199e+20
47.9192  1.12906e+20
48.0365  1.02388e+20
48.1538  9.34133e+19
48.2711  8.64986e+19
48.3884  8.19407e+19
48.5057  7.98779e+19
48.623  8.03214e+19
48.7403  8.33335e+19
48.8576  8.90344e+19
48.9749  9.74716e+19
49.0922  1.0872e+20
49.2095  1.22724e+20
49.3269  1.39127e+20
49.4442  1.57417e+20
49.5615  1.7675e+20
49.6788  1.96119e+20
49.7961  2.14359e+20
49.9134  2.30493e+20
50.0307  2.43485e+20
50.148  2.52638e+20
50.2653  2.57629e+20
50.3826  2.58274e+20
50.4999  2.54845e+20
50.6172  2.47815e+20
50.7345  2.37883e+20
50.8518  2.25863e+20
