#S 1 spectral density
#N 2
#UFWHM 30.2647
#L  abscissas [um]  spectral density
-58.5938  1.60823e+20
-58.4764  1.63487e+20
-58.3591  1.65122e+20
-58.2418  1.65828e+20
-58.1245  1.65866e+20
-58.0072  1.65793e+20
-57.8899  1.66143e+20
-57.7726  1.67698e+20
-57.6553  1.71238e+20
-57.538  1.77387e+20
-57.4207  1.86576e+20
-57.3034  1.98844e+20
-57.1861  2.13772e+20
-57.0688  2.30368e+20
-56.9515  2.47441e+20
-56.8342  2.63442e+20
-56.7169  2.7691e+20
-56.5996  2.86706e+20
-56.4823  2.92129e+20
-56.365  2.932e+20
-56.2477  2.9041e+20
-56.1303  2.84664e+20
-56.013  2.77277e+20
-55.8957  2.69345e+20
-55.7784  2.61985e+20
-55.6611  2.55578e+20
-55.5438  2.50299e+20
-55.4265  2.45841e+20
-55.3092  2.41664e+20
-55.1919  2.36949e+20
-55.0746  2.31137e+20
-54.9573  2.23641e+20
-54.84  2.14454e+20
-54.7227  2.03608e+20
-54.6054  1.91597e+20
-54.4881  1.78919e+20
-54.3708  1.66325e+20
-54.2535  1.54535e+20
-54.1362  1.44151e+20
-54.0189  1.3574e+20
-53.9016  1.29646e+20
-53.7842  1.26057e+20
-53.6669  1.24981e+20
-53.5496  1.26358e+20
-53.4323  1.30004e+20
-53.315  1.35633e+20
-53.1977  1.42949e+20
-53.0804  1.51731e+20
-52.9631  1.61649e+20
-52.8458  1.72387e+20
-52.7285  1.83772e+20
-52.6112  1.95577e+20
-52.4939  2.07611e+20
-52.3766  2.19725e+20
-52.2593  2.31882e+20
-52.142  2.44139e+20
-52.0247  2.56371e+20
-51.9074  2.68744e+20
-51.7901  2.8104e+20
-51.6728  2.93155e+20
-51.5555  3.04699e+20
-51.4381  3.15141e+20
-51.3208  3.23779e+20
-51.2035  3.29737e+20
-51.0862  3.32487e+20
-50.9689  3.31407e+20
-50.8516  3.26354e+20
-50.7343  3.17591e+20
-50.617  3.05788e+20
-50.4997  2.91942e+20
-50.3824  2.77265e+20
-50.2651  2.63135e+20
-50.1478  2.50845e+20
-50.0305  2.41471e+20
-49.9132  2.35856e+20
-49.7959  2.34326e+20
-49.6786  2.37018e+20
-49.5613  2.43541e+20
-49.444  2.53249e+20
-49.3267  2.65183e+20
-49.2094  2.78217e+20
-49.092  2.91106e+20
-48.9747  3.02636e+20
-48.8574  3.11716e+20
-48.7401  3.17767e+20
-48.6228  3.20518e+20
-48.5055  3.20335e+20
-48.3882  3.18219e+20
-48.2709  3.15296e+20
-48.1536  3.13069e+20
-48.0363  3.12979e+20
-47.919  3.16069e+20
-47.8017  3.22813e+20
-47.6844  3.33133e+20
-47.5671  3.46224e+20
-47.4498  3.60855e+20
-47.3325  3.75504e+20
-47.2152  3.88567e+20
-47.0979  3.9878e+20
-46.9806  4.05084e+20
-46.8633  4.06979e+20
-46.7459  4.04673e+20
-46.6286  3.98526e+20
-46.5113  3.89508e+20
-46.394  3.78461e+20
-46.2767  3.66745e+20
-46.1594  3.55459e+20
-46.0421  3.4551e+20
-45.9248  3.37661e+20
-45.8075  3.32405e+20
-45.6902  3.29741e+20
-45.5729  3.29551e+20
-45.4556  3.31116e+20
-45.3383  3.33871e+20
-45.221  3.36966e+20
-45.1037  3.39874e+20
-44.9864  3.42467e+20
-44.8691  3.44686e+20
-44.7518  3.47082e+20
-44.6345  3.50438e+20
-44.5172  3.55644e+20
-44.3998  3.63422e+20
-44.2825  3.74252e+20
-44.1652  3.88054e+20
-44.0479  4.04403e+20
-43.9306  4.22363e+20
-43.8133  4.40778e+20
-43.696  4.58437e+20
-43.5787  4.74271e+20
-43.4614  4.87478e+20
-43.3441  4.97655e+20
-43.2268  5.0465e+20
-43.1095  5.08774e+20
-42.9922  5.10377e+20
-42.8749  5.10046e+20
-42.7576  5.08313e+20
-42.6403  5.06097e+20
-42.523  5.0405e+20
-42.4057  5.03077e+20
-42.2884  5.03843e+20
-42.171  5.07114e+20
-42.0537  5.1332e+20
-41.9364  5.22478e+20
-41.8191  5.34274e+20
-41.7018  5.47671e+20
-41.5845  5.61665e+20
-41.4672  5.74723e+20
-41.3499  5.85515e+20
-41.2326  5.92953e+20
-41.1153  5.9644e+20
-40.998  5.961e+20
-40.8807  5.92504e+20
-40.7634  5.86721e+20
-40.6461  5.80321e+20
-40.5288  5.7459e+20
-40.4115  5.7099e+20
-40.2942  5.70605e+20
-40.1769  5.73782e+20
-40.0596  5.80654e+20
-39.9423  5.90842e+20
-39.825  6.03269e+20
-39.7076  6.16932e+20
-39.5903  6.30227e+20
-39.473  6.41755e+20
-39.3557  6.50186e+20
-39.2384  6.54345e+20
-39.1211  6.53552e+20
-39.0038  6.47691e+20
-38.8865  6.37489e+20
-38.7692  6.24284e+20
-38.6519  6.10239e+20
-38.5346  5.97607e+20
-38.4173  5.89147e+20
-38.3  5.87047e+20
-38.1827  5.9294e+20
-38.0654  6.07594e+20
-37.9481  6.30586e+20
-37.8308  6.60704e+20
-37.7135  6.95604e+20
-37.5962  7.32589e+20
-37.4789  7.69046e+20
-37.3615  8.02083e+20
-37.2442  8.299e+20
-37.1269  8.51219e+20
-37.0096  8.65432e+20
-36.8923  8.73041e+20
-36.775  8.74784e+20
-36.6577  8.72243e+20
-36.5404  8.66852e+20
-36.4231  8.6004e+20
-36.3058  8.53433e+20
-36.1885  8.47731e+20
-36.0712  8.43698e+20
-35.9539  8.41142e+20
-35.8366  8.39747e+20
-35.7193  8.38642e+20
-35.602  8.36661e+20
-35.4847  8.32461e+20
-35.3674  8.24981e+20
-35.2501  8.13083e+20
-35.1328  7.96424e+20
-35.0154  7.75301e+20
-34.8981  7.50431e+20
-34.7808  7.23144e+20
-34.6635  6.95321e+20
-34.5462  6.68959e+20
-34.4289  6.45819e+20
-34.3116  6.27744e+20
-34.1943  6.15855e+20
-34.077  6.10887e+20
-33.9597  6.13131e+20
-33.8424  6.2199e+20
-33.7251  6.36795e+20
-33.6078  6.56376e+20
-33.4905  6.79406e+20
-33.3732  7.04579e+20
-33.2559  7.30451e+20
-33.1386  7.5617e+20
-33.0213  7.80895e+20
-32.904  8.04354e+20
-32.7867  8.2693e+20
-32.6693  8.49116e+20
-32.552  8.72018e+20
-32.4347  8.96877e+20
-32.3174  9.24658e+20
-32.2001  9.56386e+20
-32.0828  9.9234e+20
-31.9655  1.03247e+21
-31.8482  1.07598e+21
-31.7309  1.1214e+21
-31.6136  1.16733e+21
-31.4963  1.21185e+21
-31.379  1.25336e+21
-31.2617  1.29024e+21
-31.1444  1.3218e+21
-31.0271  1.34778e+21
-30.9098  1.36841e+21
-30.7925  1.38463e+21
-30.6752  1.39751e+21
-30.5579  1.40827e+21
-30.4406  1.41843e+21
-30.3232  1.42899e+21
-30.2059  1.44081e+21
-30.0886  1.45387e+21
-29.9713  1.46796e+21
-29.854  1.48233e+21
-29.7367  1.49592e+21
-29.6194  1.50767e+21
-29.5021  1.51647e+21
-29.3848  1.52183e+21
-29.2675  1.52364e+21
-29.1502  1.52237e+21
-29.0329  1.51891e+21
-28.9156  1.51493e+21
-28.7983  1.51198e+21
-28.681  1.51179e+21
-28.5637  1.51601e+21
-28.4464  1.5259e+21
-28.3291  1.5423e+21
-28.2118  1.56556e+21
-28.0944  1.59563e+21
-27.9771  1.63207e+21
-27.8598  1.67401e+21
-27.7425  1.72055e+21
-27.6252  1.77049e+21
-27.5079  1.82274e+21
-27.3906  1.87639e+21
-27.2733  1.93083e+21
-27.156  1.98621e+21
-27.0387  2.04287e+21
-26.9214  2.10185e+21
-26.8041  2.1646e+21
-26.6868  2.23239e+21
-26.5695  2.30635e+21
-26.4522  2.38679e+21
-26.3349  2.47359e+21
-26.2176  2.56508e+21
-26.1003  2.65944e+21
-25.983  2.75338e+21
-25.8657  2.84386e+21
-25.7483  2.92799e+21
-25.631  3.00295e+21
-25.5137  3.06727e+21
-25.3964  3.12038e+21
-25.2791  3.16242e+21
-25.1618  3.19513e+21
-25.0445  3.22107e+21
-24.9272  3.24312e+21
-24.8099  3.26487e+21
-24.6926  3.29039e+21
-24.5753  3.32328e+21
-24.458  3.36698e+21
-24.3407  3.42395e+21
-24.2234  3.49617e+21
-24.1061  3.58362e+21
-23.9888  3.68517e+21
-23.8715  3.79847e+21
-23.7542  3.91969e+21
-23.6369  4.04433e+21
-23.5196  4.16777e+21
-23.4023  4.28585e+21
-23.2849  4.39527e+21
-23.1676  4.49405e+21
-23.0503  4.58194e+21
-22.933  4.66053e+21
-22.8157  4.73217e+21
-22.6984  4.80072e+21
-22.5811  4.86996e+21
-22.4638  4.94467e+21
-22.3465  5.02845e+21
-22.2292  5.12468e+21
-22.1119  5.2353e+21
-21.9946  5.36134e+21
-21.8773  5.50222e+21
-21.76  5.65538e+21
-21.6427  5.81736e+21
-21.5254  5.98289e+21
-21.4081  6.1469e+21
-21.2908  6.30304e+21
-21.1735  6.44638e+21
-21.0561  6.57309e+21
-20.9388  6.68078e+21
-20.8215  6.7696e+21
-20.7042  6.84159e+21
-20.5869  6.90036e+21
-20.4696  6.95149e+21
-20.3523  7.00094e+21
-20.235  7.05447e+21
-20.1177  7.11723e+21
-20.0004  7.19381e+21
-19.8831  7.28729e+21
-19.7658  7.39928e+21
-19.6485  7.53019e+21
-19.5312  7.67964e+21
-19.4139  7.84579e+21
-19.2966  8.02608e+21
-19.1793  8.21777e+21
-19.062  8.41672e+21
-18.9447  8.61909e+21
-18.8274  8.82091e+21
-18.71  9.01879e+21
-18.5927  9.20961e+21
-18.4754  9.39144e+21
-18.3581  9.56321e+21
-18.2408  9.72577e+21
-18.1235  9.87943e+21
-18.0062  1.00259e+22
-17.8889  1.01667e+22
-17.7716  1.03036e+22
-17.6543  1.04372e+22
-17.537  1.05682e+22
-17.4197  1.06962e+22
-17.3024  1.08213e+22
-17.1851  1.09433e+22
-17.0678  1.10621e+22
-16.9505  1.11784e+22
-16.8332  1.12935e+22
-16.7159  1.14094e+22
-16.5986  1.15285e+22
-16.4813  1.16536e+22
-16.364  1.17877e+22
-16.2466  1.19337e+22
-16.1293  1.2094e+22
-16.012  1.22702e+22
-15.8947  1.24632e+22
-15.7774  1.26729e+22
-15.6601  1.28982e+22
-15.5428  1.31364e+22
-15.4255  1.33842e+22
-15.3082  1.36372e+22
-15.1909  1.38908e+22
-15.0736  1.41399e+22
-14.9563  1.43797e+22
-14.839  1.46066e+22
-14.7217  1.48178e+22
-14.6044  1.50112e+22
-14.4871  1.51875e+22
-14.3698  1.53471e+22
-14.2525  1.54926e+22
-14.1352  1.56266e+22
-14.0178  1.57532e+22
-13.9005  1.58755e+22
-13.7832  1.59969e+22
-13.6659  1.612e+22
-13.5486  1.62472e+22
-13.4313  1.63791e+22
-13.314  1.65158e+22
-13.1967  1.66568e+22
-13.0794  1.68006e+22
-12.9621  1.69449e+22
-12.8448  1.70876e+22
-12.7275  1.72261e+22
-12.6102  1.73591e+22
-12.4929  1.74854e+22
-12.3756  1.76047e+22
-12.2583  1.77177e+22
-12.141  1.78262e+22
-12.0237  1.7932e+22
-11.9064  1.80378e+22
-11.7891  1.81467e+22
-11.6718  1.82608e+22
-11.5544  1.83831e+22
-11.4371  1.85158e+22
-11.3198  1.86596e+22
-11.2025  1.88158e+22
-11.0852  1.89841e+22
-10.9679  1.91642e+22
-10.8506  1.9355e+22
-10.7333  1.95549e+22
-10.616  1.97614e+22
-10.4987  1.99731e+22
-10.3814  2.01873e+22
-10.2641  2.04019e+22
-10.1468  2.06152e+22
-10.0295  2.08258e+22
-9.91217  2.1032e+22
-9.79487  2.12332e+22
-9.67756  2.14283e+22
-9.56026  2.16163e+22
-9.44295  2.17962e+22
-9.32565  2.19676e+22
-9.20834  2.21289e+22
-9.09104  2.22795e+22
-8.97373  2.24188e+22
-8.85643  2.25466e+22
-8.73913  2.26626e+22
-8.62182  2.27681e+22
-8.50452  2.28645e+22
-8.38721  2.29539e+22
-8.26991  2.30381e+22
-8.1526  2.312e+22
-8.03529  2.32013e+22
-7.91799  2.32842e+22
-7.80069  2.33703e+22
-7.68338  2.34599e+22
-7.56608  2.35534e+22
-7.44877  2.36502e+22
-7.33146  2.37481e+22
-7.21416  2.3845e+22
-7.09685  2.39385e+22
-6.97955  2.40252e+22
-6.86224  2.41026e+22
-6.74494  2.41692e+22
-6.62763  2.42226e+22
-6.51033  2.42637e+22
-6.39302  2.42931e+22
-6.27572  2.43134e+22
-6.15842  2.43281e+22
-6.04111  2.43414e+22
-5.92381  2.43579e+22
-5.8065  2.4383e+22
-5.68919  2.44207e+22
-5.57189  2.44751e+22
-5.45458  2.45487e+22
-5.33728  2.46437e+22
-5.21997  2.47597e+22
-5.10267  2.48957e+22
-4.98536  2.5049e+22
-4.86806  2.52154e+22
-4.75075  2.53904e+22
-4.63345  2.5569e+22
-4.51614  2.57461e+22
-4.39884  2.59171e+22
-4.28154  2.60795e+22
-4.16423  2.62308e+22
-4.04692  2.63704e+22
-3.92962  2.64993e+22
-3.81231  2.66195e+22
-3.69501  2.67325e+22
-3.5777  2.68411e+22
-3.4604  2.69469e+22
-3.34309  2.70513e+22
-3.22579  2.71542e+22
-3.10849  2.72554e+22
-2.99118  2.73533e+22
-2.87387  2.74459e+22
-2.75657  2.75308e+22
-2.63926  2.76043e+22
-2.52196  2.76632e+22
-2.40465  2.77042e+22
-2.28735  2.77234e+22
-2.17005  2.77184e+22
-2.05274  2.76879e+22
-1.93544  2.76306e+22
-1.81813  2.75486e+22
-1.70083  2.74441e+22
-1.58352  2.73214e+22
-1.46622  2.71857e+22
-1.34891  2.70428e+22
-1.2316  2.68979e+22
-1.1143  2.67567e+22
-0.996995  2.66227e+22
-0.87969  2.64999e+22
-0.762385  2.63893e+22
-0.64508  2.62935e+22
-0.527775  2.62126e+22
-0.41047  2.61471e+22
-0.293165  2.60976e+22
-0.17586  2.60642e+22
-0.058555  2.60477e+22
0.05875  2.60475e+22
0.176055  2.6064e+22
0.29336  2.60967e+22
0.410665  2.6146e+22
0.52797  2.62107e+22
0.645275  2.62909e+22
0.76258  2.63859e+22
0.879885  2.64951e+22
0.99719  2.66166e+22
1.1145  2.67489e+22
1.2318  2.68882e+22
1.3491  2.70313e+22
1.46641  2.7172e+22
1.58371  2.73054e+22
1.70102  2.74257e+22
1.81832  2.75277e+22
1.93563  2.76072e+22
2.05294  2.76617e+22
2.17024  2.76902e+22
2.28754  2.76931e+22
2.40485  2.76716e+22
2.52216  2.76289e+22
2.63946  2.75682e+22
2.75677  2.74927e+22
2.87407  2.74063e+22
2.99137  2.73119e+22
3.10868  2.72122e+22
3.22599  2.71093e+22
3.34329  2.70046e+22
3.4606  2.68988e+22
3.5779  2.6791e+22
3.69521  2.66804e+22
3.81251  2.65655e+22
3.92982  2.64432e+22
4.04712  2.63122e+22
4.16443  2.61706e+22
4.28173  2.60173e+22
4.39903  2.58532e+22
4.51634  2.56802e+22
4.63364  2.55017e+22
4.75095  2.53215e+22
4.86825  2.51451e+22
4.98556  2.49774e+22
5.10286  2.48233e+22
5.22017  2.46862e+22
5.33748  2.45693e+22
5.45478  2.44736e+22
5.57209  2.43991e+22
5.68939  2.43436e+22
5.8067  2.43049e+22
5.924  2.42787e+22
6.0413  2.4261e+22
6.15861  2.42464e+22
6.27591  2.42303e+22
6.39322  2.42086e+22
6.51052  2.41778e+22
6.62783  2.41352e+22
6.74514  2.40801e+22
6.86244  2.40128e+22
6.97975  2.3934e+22
7.09705  2.38462e+22
7.21436  2.3752e+22
7.33166  2.3654e+22
7.44897  2.35553e+22
7.56627  2.34581e+22
7.68358  2.33638e+22
7.80088  2.32732e+22
7.91819  2.31862e+22
8.03549  2.31022e+22
8.1528  2.30201e+22
8.2701  2.29368e+22
8.38741  2.28509e+22
8.50471  2.27601e+22
8.62202  2.26617e+22
8.73932  2.2554e+22
8.85662  2.2436e+22
8.97393  2.23062e+22
9.09123  2.21648e+22
9.20854  2.2012e+22
9.32584  2.18487e+22
9.44315  2.16752e+22
9.56045  2.14932e+22
9.67776  2.13034e+22
9.79506  2.11067e+22
9.91237  2.09039e+22
10.0297  2.06964e+22
10.147  2.04848e+22
10.2643  2.02707e+22
10.3816  2.00552e+22
10.4989  1.98405e+22
10.6162  1.96285e+22
10.7335  1.94216e+22
10.8508  1.92217e+22
10.9681  1.90306e+22
11.0854  1.88507e+22
11.2027  1.86822e+22
11.32  1.85259e+22
11.4373  1.83819e+22
11.5546  1.82494e+22
11.6719  1.81267e+22
11.7893  1.80122e+22
11.9066  1.79035e+22
12.0239  1.77971e+22
12.1412  1.7691e+22
12.2585  1.75824e+22
12.3758  1.7469e+22
12.4931  1.73494e+22
12.6104  1.72227e+22
12.7277  1.70894e+22
12.845  1.69508e+22
12.9623  1.68079e+22
13.0796  1.66635e+22
13.1969  1.65197e+22
13.3142  1.63787e+22
13.4315  1.62415e+22
13.5488  1.61098e+22
13.6661  1.59826e+22
13.7834  1.58591e+22
13.9007  1.57374e+22
14.018  1.56149e+22
14.1354  1.5488e+22
14.2527  1.53531e+22
14.37  1.52072e+22
14.4873  1.50468e+22
14.6046  1.48699e+22
14.7219  1.46758e+22
14.8392  1.44641e+22
14.9565  1.42369e+22
15.0738  1.39967e+22
15.1911  1.37475e+22
15.3084  1.34938e+22
15.4257  1.32408e+22
15.543  1.29933e+22
15.6603  1.27552e+22
15.7776  1.25306e+22
15.8949  1.23212e+22
16.0122  1.21287e+22
16.1295  1.19531e+22
16.2468  1.17935e+22
16.3641  1.16479e+22
16.4815  1.15144e+22
16.5988  1.13901e+22
16.7161  1.12713e+22
16.8334  1.11561e+22
16.9507  1.10415e+22
17.068  1.09258e+22
17.1853  1.08076e+22
17.3026  1.06861e+22
17.4199  1.05617e+22
17.5372  1.04342e+22
17.6545  1.03039e+22
17.7718  1.0171e+22
17.8891  1.00349e+22
18.0064  9.8948e+21
18.1237  9.74899e+21
18.241  9.59624e+21
18.3583  9.43474e+21
18.4756  9.26368e+21
18.5929  9.08304e+21
18.7102  8.89355e+21
18.8275  8.69721e+21
18.9449  8.49677e+21
19.0622  8.29624e+21
19.1795  8.09903e+21
19.2968  7.90926e+21
19.4141  7.7307e+21
19.5314  7.56634e+21
19.6487  7.41863e+21
19.766  7.28929e+21
19.8833  7.17877e+21
20.0006  7.08649e+21
20.1179  7.01081e+21
20.2352  6.9489e+21
20.3525  6.89596e+21
20.4698  6.84712e+21
20.5871  6.79625e+21
20.7044  6.73758e+21
20.8217  6.66588e+21
20.939  6.57729e+21
21.0563  6.46971e+21
21.1736  6.34363e+21
21.291  6.2009e+21
21.4083  6.04552e+21
21.5256  5.8829e+21
21.6429  5.71851e+21
21.7602  5.55821e+21
21.8775  5.40668e+21
21.9948  5.26763e+21
22.1121  5.14335e+21
22.2294  5.03417e+21
22.3467  4.93957e+21
22.464  4.85733e+21
22.5813  4.78396e+21
22.6986  4.7159e+21
22.8159  4.64861e+21
22.9332  4.57794e+21
23.0505  4.50035e+21
23.1678  4.41331e+21
23.2851  4.31555e+21
23.4024  4.20721e+21
23.5198  4.09029e+21
23.6371  3.96809e+21
23.7544  3.84487e+21
23.8717  3.72517e+21
23.989  3.61339e+21
24.1063  3.51334e+21
24.2236  3.42756e+21
24.3409  3.35693e+21
24.4582  3.30136e+21
24.5755  3.25903e+21
24.6928  3.22732e+21
24.8101  3.20293e+21
24.9274  3.18215e+21
25.0447  3.16107e+21
25.162  3.1361e+21
25.2793  3.10416e+21
25.3966  3.06285e+21
25.5139  3.01077e+21
25.6312  2.94729e+21
25.7485  2.8731e+21
25.8658  2.79015e+21
25.9832  2.70059e+21
26.1005  2.60784e+21
26.2178  2.51491e+21
26.3351  2.42458e+21
26.4524  2.33923e+21
26.5697  2.2601e+21
26.687  2.18754e+21
26.8043  2.1211e+21
26.9216  2.05963e+21
27.0389  2.00184e+21
27.1562  1.94639e+21
27.2735  1.89215e+21
27.3908  1.83885e+21
27.5081  1.78637e+21
27.6254  1.73521e+21
27.7427  1.68639e+21
27.86  1.64093e+21
27.9773  1.60004e+21
28.0946  1.56466e+21
28.212  1.53555e+21
28.3293  1.51331e+21
28.4466  1.49776e+21
28.5639  1.48871e+21
28.6812  1.48521e+21
28.7985  1.486e+21
28.9158  1.48962e+21
29.0331  1.49417e+21
29.1504  1.49814e+21
29.2677  1.49992e+21
29.385  1.49863e+21
29.5023  1.49378e+21
29.6196  1.48549e+21
29.7369  1.47437e+21
29.8542  1.46136e+21
29.9715  1.44769e+21
30.0888  1.43418e+21
30.2061  1.42174e+21
30.3234  1.4106e+21
30.4407  1.40059e+21
30.558  1.391e+21
30.6754  1.38056e+21
30.7927  1.36825e+21
30.91  1.35256e+21
31.0273  1.33224e+21
31.1446  1.30665e+21
31.2619  1.27549e+21
31.3792  1.23891e+21
31.4965  1.19805e+21
31.6138  1.15415e+21
31.7311  1.10883e+21
31.8484  1.06398e+21
31.9657  1.02115e+21
32.083  9.81701e+20
32.2003  9.46354e+20
32.3176  9.15254e+20
32.4349  8.87981e+20
32.5522  8.63615e+20
32.6695  8.41059e+20
32.7868  8.19244e+20
32.9042  7.97061e+20
33.0215  7.73839e+20
33.1388  7.49423e+20
33.2561  7.23976e+20
33.3734  6.98449e+20
33.4907  6.73704e+20
33.608  6.51042e+20
33.7253  6.31862e+20
33.8426  6.17486e+20
33.9599  6.09058e+20
34.0772  6.07321e+20
34.1945  6.12642e+20
34.3118  6.24829e+20
34.4291  6.43164e+20
34.5464  6.66546e+20
34.6637  6.93187e+20
34.781  7.21028e+20
34.8983  7.48226e+20
35.0156  7.73033e+20
35.1329  7.941e+20
35.2503  8.10603e+20
35.3676  8.22402e+20
35.4849  8.29886e+20
35.6022  8.34038e+20
35.7195  8.36068e+20
35.8368  8.37147e+20
35.9541  8.38601e+20
36.0714  8.41178e+20
36.1887  8.45415e+20
36.306  8.51177e+20
36.4233  8.57864e+20
36.5406  8.64594e+20
36.6579  8.69917e+20
36.7752  8.72285e+20
36.8925  8.70359e+20
37.0098  8.62575e+20
37.1271  8.48105e+20
37.2444  8.26638e+20
37.3617  7.98597e+20
37.479  7.6543e+20
37.5964  7.28982e+20
37.7137  6.91991e+20
37.831  6.57229e+20
37.9483  6.27308e+20
38.0656  6.046e+20
38.1829  5.90201e+20
38.3002  5.84504e+20
38.4175  5.86829e+20
38.5348  5.9532e+20
38.6521  6.07941e+20
38.7694  6.21946e+20
38.8867  6.34988e+20
39.004  6.44952e+20
39.1213  6.50565e+20
39.2386  6.51242e+20
39.3559  6.46926e+20
39.4732  6.38443e+20
39.5905  6.26809e+20
39.7078  6.13473e+20
39.8251  5.99881e+20
39.9425  5.87519e+20
40.0598  5.77535e+20
40.1771  5.70742e+20
40.2944  5.67616e+20
40.4117  5.68209e+20
40.529  5.71742e+20
40.6463  5.774e+20
40.7636  5.83826e+20
40.8809  5.89471e+20
40.9982  5.9301e+20
41.1155  5.93149e+20
41.2328  5.89445e+20
41.3501  5.81842e+20
41.4674  5.70914e+20
41.5847  5.57797e+20
41.702  5.43734e+20
41.8193  5.30348e+20
41.9366  5.18632e+20
42.0539  5.09547e+20
42.1712  5.03492e+20
42.2885  5.00233e+20
42.4059  4.9951e+20
42.5232  5.00581e+20
42.6405  5.02711e+20
42.7578  5.04955e+20
42.8751  5.06614e+20
42.9924  5.07002e+20
43.1097  5.05473e+20
43.227  5.01285e+20
43.3443  4.94288e+20
43.4616  4.8408e+20
43.5789  4.7088e+20
43.6962  4.54996e+20
43.8135  4.37381e+20
43.9308  4.18986e+20
44.0481  4.01059e+20
44.1654  3.8485e+20
44.2827  3.71121e+20
44.4  3.60409e+20
44.5173  3.52747e+20
44.6347  3.47649e+20
44.752  3.44339e+20
44.8693  3.41955e+20
44.9866  3.39786e+20
45.1039  3.37281e+20
45.2212  3.34371e+20
45.3385  3.31312e+20
45.4558  3.28651e+20
45.5731  3.2715e+20
45.6904  3.27558e+20
45.8077  3.30254e+20
45.925  3.35655e+20
46.0423  3.43568e+20
46.1596  3.5364e+20
46.2769  3.64973e+20
46.3942  3.76677e+20
46.5115  3.87641e+20
46.6288  3.96628e+20
46.7461  4.02662e+20
46.8634  4.04915e+20
46.9808  4.02856e+20
47.0981  3.96487e+20
47.2154  3.86225e+20
47.3327  3.73167e+20
47.45  3.58508e+20
47.5673  3.43959e+20
47.6846  3.31001e+20
47.8019  3.20876e+20
47.9192  3.14242e+20
48.0365  3.11333e+20
48.1538  3.11539e+20
48.2711  3.13806e+20
48.3884  3.167e+20
48.5057  3.18856e+20
48.623  3.18918e+20
48.7403  3.16069e+20
48.8576  3.09895e+20
48.9749  3.00689e+20
49.0922  2.89149e+20
49.2095  2.76298e+20
49.3269  2.63323e+20
49.4442  2.51483e+20
49.5615  2.41859e+20
49.6788  2.35543e+20
49.7961  2.33033e+20
49.9134  2.34729e+20
50.0307  2.40551e+20
50.148  2.50013e+20
50.2653  2.6239e+20
50.3826  2.76575e+20
50.4999  2.91232e+20
50.6172  3.05069e+20
50.7345  3.16842e+20
