#S 1 spectral density
#N 2
#UFWHM 42.9336
#L  abscissas [um]  spectral density
-58.5938  4.49204e+20
-58.4764  4.30905e+20
-58.3591  4.13364e+20
-58.2418  3.97736e+20
-58.1245  3.8461e+20
-58.0072  3.74131e+20
-57.8899  3.66122e+20
-57.7726  3.6023e+20
-57.6553  3.56028e+20
-57.538  3.52988e+20
-57.4207  3.50849e+20
-57.3034  3.49339e+20
-57.1861  3.48434e+20
-57.0688  3.47902e+20
-56.9515  3.47835e+20
-56.8342  3.48239e+20
-56.7169  3.49179e+20
-56.5996  3.51077e+20
-56.4823  3.54202e+20
-56.365  3.59134e+20
-56.2477  3.66516e+20
-56.1303  3.76802e+20
-56.013  3.90296e+20
-55.8957  4.0687e+20
-55.7784  4.26179e+20
-55.6611  4.47254e+20
-55.5438  4.68818e+20
-55.4265  4.89588e+20
-55.3092  5.08124e+20
-55.1919  5.23155e+20
-55.0746  5.33867e+20
-54.9573  5.39829e+20
-54.84  5.41192e+20
-54.7227  5.38461e+20
-54.6054  5.32535e+20
-54.4881  5.24566e+20
-54.3708  5.15898e+20
-54.2535  5.07768e+20
-54.1362  5.01127e+20
-54.0189  4.96824e+20
-53.9016  4.95215e+20
-53.7842  4.96448e+20
-53.6669  4.99987e+20
-53.5496  5.05232e+20
-53.4323  5.11473e+20
-53.315  5.17593e+20
-53.1977  5.22787e+20
-53.0804  5.26345e+20
-52.9631  5.27879e+20
-52.8458  5.27075e+20
-52.7285  5.24328e+20
-52.6112  5.19983e+20
-52.4939  5.14969e+20
-52.3766  5.09988e+20
-52.2593  5.06057e+20
-52.142  5.04028e+20
-52.0247  5.043e+20
-51.9074  5.07341e+20
-51.7901  5.12885e+20
-51.6728  5.20288e+20
-51.5555  5.28685e+20
-51.4381  5.36734e+20
-51.3208  5.43043e+20
-51.2035  5.4607e+20
-51.0862  5.44832e+20
-50.9689  5.38617e+20
-50.8516  5.27377e+20
-50.7343  5.11914e+20
-50.617  4.93455e+20
-50.4997  4.73743e+20
-50.3824  4.54879e+20
-50.2651  4.38898e+20
-50.1478  4.27593e+20
-50.0305  4.22355e+20
-49.9132  4.23947e+20
-49.7959  4.326e+20
-49.6786  4.48032e+20
-49.5613  4.69384e+20
-49.444  4.95312e+20
-49.3267  5.2429e+20
-49.2094  5.54527e+20
-49.092  5.84277e+20
-48.9747  6.11656e+20
-48.8574  6.34968e+20
-48.7401  6.53234e+20
-48.6228  6.65546e+20
-48.5055  6.71835e+20
-48.3882  6.72835e+20
-48.2709  6.69633e+20
-48.1536  6.63763e+20
-48.0363  6.57229e+20
-47.919  6.5165e+20
-47.8017  6.48521e+20
-47.6844  6.48798e+20
-47.5671  6.52662e+20
-47.4498  6.5988e+20
-47.3325  6.69472e+20
-47.2152  6.80256e+20
-47.0979  6.90812e+20
-46.9806  6.99651e+20
-46.8633  7.05692e+20
-46.7459  7.08205e+20
-46.6286  7.06866e+20
-46.5113  7.01804e+20
-46.394  6.93498e+20
-46.2767  6.83029e+20
-46.1594  6.71602e+20
-46.0421  6.60538e+20
-45.9248  6.51082e+20
-45.8075  6.44306e+20
-45.6902  6.40909e+20
-45.5729  6.41117e+20
-45.4556  6.44634e+20
-45.3383  6.50832e+20
-45.221  6.58841e+20
-45.1037  6.67802e+20
-44.9864  6.77107e+20
-44.8691  6.86374e+20
-44.7518  6.95627e+20
-44.6345  7.05241e+20
-44.5172  7.1606e+20
-44.3998  7.28667e+20
-44.2825  7.43726e+20
-44.1652  7.61302e+20
-44.0479  7.8129e+20
-43.9306  8.03124e+20
-43.8133  8.25823e+20
-43.696  8.48455e+20
-43.5787  8.69951e+20
-43.4614  8.8945e+20
-43.3441  9.06287e+20
-43.2268  9.20009e+20
-43.1095  9.30317e+20
-42.9922  9.37244e+20
-42.8749  9.40619e+20
-42.7576  9.40703e+20
-42.6403  9.37915e+20
-42.523  9.32731e+20
-42.4057  9.25983e+20
-42.2884  9.18524e+20
-42.171  9.11367e+20
-42.0537  9.05751e+20
-41.9364  9.02314e+20
-41.8191  9.01768e+20
-41.7018  9.04004e+20
-41.5845  9.08905e+20
-41.4672  9.15853e+20
-41.3499  9.23935e+20
-41.2326  9.32278e+20
-41.1153  9.40166e+20
-40.998  9.47054e+20
-40.8807  9.52805e+20
-40.7634  9.57422e+20
-40.6461  9.61376e+20
-40.5288  9.65191e+20
-40.4115  9.69886e+20
-40.2942  9.76535e+20
-40.1769  9.86343e+20
-40.0596  1.00067e+21
-39.9423  1.02081e+21
-39.825  1.04824e+21
-39.7076  1.08366e+21
-39.5903  1.12757e+21
-39.473  1.17955e+21
-39.3557  1.23821e+21
-39.2384  1.30163e+21
-39.1211  1.36679e+21
-39.0038  1.4305e+21
-38.8865  1.48958e+21
-38.7692  1.54143e+21
-38.6519  1.5841e+21
-38.5346  1.61699e+21
-38.4173  1.64064e+21
-38.3  1.65689e+21
-38.1827  1.66822e+21
-38.0654  1.6778e+21
-37.9481  1.68902e+21
-37.8308  1.70477e+21
-37.7135  1.72739e+21
-37.5962  1.75811e+21
-37.4789  1.79734e+21
-37.3615  1.84448e+21
-37.2442  1.89763e+21
-37.1269  1.95444e+21
-37.0096  2.01174e+21
-36.8923  2.06634e+21
-36.775  2.11492e+21
-36.6577  2.1546e+21
-36.5404  2.1831e+21
-36.4231  2.1992e+21
-36.3058  2.20262e+21
-36.1885  2.19423e+21
-36.0712  2.17588e+21
-35.9539  2.15032e+21
-35.8366  2.12041e+21
-35.7193  2.08979e+21
-35.602  2.06153e+21
-35.4847  2.03828e+21
-35.3674  2.0222e+21
-35.2501  2.0147e+21
-35.1328  2.01644e+21
-35.0154  2.02753e+21
-34.8981  2.04744e+21
-34.7808  2.07552e+21
-34.6635  2.11065e+21
-34.5462  2.15199e+21
-34.4289  2.19848e+21
-34.3116  2.24953e+21
-34.1943  2.30469e+21
-34.077  2.3641e+21
-33.9597  2.4282e+21
-33.8424  2.49766e+21
-33.7251  2.57329e+21
-33.6078  2.65599e+21
-33.4905  2.74616e+21
-33.3732  2.84369e+21
-33.2559  2.94805e+21
-33.1386  3.05764e+21
-33.0213  3.17021e+21
-32.904  3.28273e+21
-32.7867  3.39221e+21
-32.6693  3.49514e+21
-32.552  3.58846e+21
-32.4347  3.66962e+21
-32.3174  3.73695e+21
-32.2001  3.78952e+21
-32.0828  3.82765e+21
-31.9655  3.85243e+21
-31.8482  3.86601e+21
-31.7309  3.87104e+21
-31.6136  3.87074e+21
-31.4963  3.86817e+21
-31.379  3.86676e+21
-31.2617  3.86915e+21
-31.1444  3.87722e+21
-31.0271  3.89271e+21
-30.9098  3.91595e+21
-30.7925  3.94676e+21
-30.6752  3.98432e+21
-30.5579  4.02762e+21
-30.4406  4.07488e+21
-30.3232  4.12509e+21
-30.2059  4.1769e+21
-30.0886  4.22965e+21
-29.9713  4.28275e+21
-29.854  4.33655e+21
-29.7367  4.39121e+21
-29.6194  4.44747e+21
-29.5021  4.50592e+21
-29.3848  4.56751e+21
-29.2675  4.63309e+21
-29.1502  4.70279e+21
-29.0329  4.77644e+21
-28.9156  4.85369e+21
-28.7983  4.9334e+21
-28.681  5.01401e+21
-28.5637  5.09391e+21
-28.4464  5.17142e+21
-28.3291  5.2448e+21
-28.2118  5.31308e+21
-28.0944  5.37635e+21
-27.9771  5.43468e+21
-27.8598  5.48966e+21
-27.7425  5.54329e+21
-27.6252  5.59816e+21
-27.5079  5.65688e+21
-27.3906  5.72202e+21
-27.2733  5.79599e+21
-27.156  5.88071e+21
-27.0387  5.97674e+21
-26.9214  6.08464e+21
-26.8041  6.20303e+21
-26.6868  6.33056e+21
-26.5695  6.46415e+21
-26.4522  6.60018e+21
-26.3349  6.73452e+21
-26.2176  6.86249e+21
-26.1003  6.97982e+21
-25.983  7.08279e+21
-25.8657  7.16907e+21
-25.7483  7.23718e+21
-25.631  7.28812e+21
-25.5137  7.32396e+21
-25.3964  7.34812e+21
-25.2791  7.36468e+21
-25.1618  7.37872e+21
-25.0445  7.39432e+21
-24.9272  7.41534e+21
-24.8099  7.44419e+21
-24.6926  7.48266e+21
-24.5753  7.53166e+21
-24.458  7.5905e+21
-24.3407  7.65798e+21
-24.2234  7.73298e+21
-24.1061  7.8135e+21
-23.9888  7.89784e+21
-23.8715  7.98441e+21
-23.7542  8.07194e+21
-23.6369  8.15918e+21
-23.5196  8.24565e+21
-23.4023  8.3318e+21
-23.2849  8.41755e+21
-23.1676  8.50369e+21
-23.0503  8.59123e+21
-22.933  8.68082e+21
-22.8157  8.77288e+21
-22.6984  8.8673e+21
-22.5811  8.96369e+21
-22.4638  9.06163e+21
-22.3465  9.15928e+21
-22.2292  9.25624e+21
-22.1119  9.351e+21
-21.9946  9.44346e+21
-21.8773  9.53272e+21
-21.76  9.6189e+21
-21.6427  9.7021e+21
-21.5254  9.7824e+21
-21.4081  9.85996e+21
-21.2908  9.9352e+21
-21.1735  1.00086e+22
-21.0561  1.00809e+22
-20.9388  1.01536e+22
-20.8215  1.02284e+22
-20.7042  1.03065e+22
-20.5869  1.03892e+22
-20.4696  1.0478e+22
-20.3523  1.05726e+22
-20.235  1.06723e+22
-20.1177  1.07748e+22
-20.0004  1.08776e+22
-19.8831  1.09783e+22
-19.7658  1.10736e+22
-19.6485  1.11611e+22
-19.5312  1.12403e+22
-19.4139  1.13109e+22
-19.2966  1.13742e+22
-19.1793  1.14322e+22
-19.062  1.1488e+22
-18.9447  1.15441e+22
-18.8274  1.16033e+22
-18.71  1.16685e+22
-18.5927  1.17408e+22
-18.4754  1.18212e+22
-18.3581  1.19101e+22
-18.2408  1.20062e+22
-18.1235  1.21084e+22
-18.0062  1.2214e+22
-17.8889  1.23202e+22
-17.7716  1.24242e+22
-17.6543  1.25221e+22
-17.537  1.26114e+22
-17.4197  1.26897e+22
-17.3024  1.2756e+22
-17.1851  1.28103e+22
-17.0678  1.28542e+22
-16.9505  1.28905e+22
-16.8332  1.29227e+22
-16.7159  1.29549e+22
-16.5986  1.2991e+22
-16.4813  1.3034e+22
-16.364  1.30866e+22
-16.2466  1.31503e+22
-16.1293  1.32257e+22
-16.012  1.33113e+22
-15.8947  1.34057e+22
-15.7774  1.35065e+22
-15.6601  1.36114e+22
-15.5428  1.37175e+22
-15.4255  1.38221e+22
-15.3082  1.39226e+22
-15.1909  1.40183e+22
-15.0736  1.41071e+22
-14.9563  1.41891e+22
-14.839  1.42649e+22
-14.7217  1.43358e+22
-14.6044  1.44032e+22
-14.4871  1.44698e+22
-14.3698  1.45379e+22
-14.2525  1.46099e+22
-14.1352  1.46874e+22
-14.0178  1.47723e+22
-13.9005  1.48647e+22
-13.7832  1.49644e+22
-13.6659  1.5071e+22
-13.5486  1.51821e+22
-13.4313  1.52959e+22
-13.314  1.54095e+22
-13.1967  1.55204e+22
-13.0794  1.56263e+22
-12.9621  1.57243e+22
-12.8448  1.58134e+22
-12.7275  1.5892e+22
-12.6102  1.59599e+22
-12.4929  1.60174e+22
-12.3756  1.60649e+22
-12.2583  1.61043e+22
-12.141  1.61368e+22
-12.0237  1.61643e+22
-11.9064  1.61875e+22
-11.7891  1.62075e+22
-11.6718  1.62251e+22
-11.5544  1.62405e+22
-11.4371  1.62549e+22
-11.3198  1.62672e+22
-11.2025  1.62789e+22
-11.0852  1.629e+22
-10.9679  1.63022e+22
-10.8506  1.63166e+22
-10.7333  1.63347e+22
-10.616  1.63579e+22
-10.4987  1.63888e+22
-10.3814  1.64273e+22
-10.2641  1.64754e+22
-10.1468  1.6533e+22
-10.0295  1.66006e+22
-9.91217  1.66769e+22
-9.79487  1.6761e+22
-9.67756  1.68507e+22
-9.56026  1.69437e+22
-9.44295  1.70368e+22
-9.32565  1.71276e+22
-9.20834  1.72128e+22
-9.09104  1.72902e+22
-8.97373  1.73586e+22
-8.85643  1.74166e+22
-8.73913  1.74648e+22
-8.62182  1.75043e+22
-8.50452  1.75372e+22
-8.38721  1.7567e+22
-8.26991  1.75958e+22
-8.1526  1.76281e+22
-8.03529  1.76661e+22
-7.91799  1.77124e+22
-7.80069  1.77684e+22
-7.68338  1.78343e+22
-7.56608  1.79098e+22
-7.44877  1.79928e+22
-7.33146  1.80807e+22
-7.21416  1.81693e+22
-7.09685  1.82544e+22
-6.97955  1.8332e+22
-6.86224  1.8398e+22
-6.74494  1.84504e+22
-6.62763  1.84862e+22
-6.51033  1.85063e+22
-6.39302  1.85116e+22
-6.27572  1.85053e+22
-6.15842  1.84912e+22
-6.04111  1.84739e+22
-5.92381  1.8458e+22
-5.8065  1.84488e+22
-5.68919  1.84489e+22
-5.57189  1.8462e+22
-5.45458  1.84887e+22
-5.33728  1.85296e+22
-5.21997  1.85828e+22
-5.10267  1.86458e+22
-4.98536  1.87147e+22
-4.86806  1.87854e+22
-4.75075  1.88532e+22
-4.63345  1.8914e+22
-4.51614  1.89641e+22
-4.39884  1.90011e+22
-4.28154  1.90246e+22
-4.16423  1.90349e+22
-4.04692  1.90341e+22
-3.92962  1.90256e+22
-3.81231  1.90131e+22
-3.69501  1.90015e+22
-3.5777  1.89938e+22
-3.4604  1.89943e+22
-3.34309  1.90049e+22
-3.22579  1.90269e+22
-3.10849  1.90603e+22
-2.99118  1.91043e+22
-2.87387  1.91573e+22
-2.75657  1.92168e+22
-2.63926  1.92794e+22
-2.52196  1.93413e+22
-2.40465  1.93984e+22
-2.28735  1.94463e+22
-2.17005  1.9481e+22
-2.05274  1.95001e+22
-1.93544  1.95005e+22
-1.81813  1.94827e+22
-1.70083  1.94471e+22
-1.58352  1.93969e+22
-1.46622  1.93355e+22
-1.34891  1.92678e+22
-1.2316  1.9198e+22
-1.1143  1.91308e+22
-0.996995  1.90689e+22
-0.87969  1.90151e+22
-0.762385  1.89699e+22
-0.64508  1.89338e+22
-0.527775  1.89061e+22
-0.41047  1.88857e+22
-0.293165  1.88715e+22
-0.17586  1.88625e+22
-0.058555  1.88583e+22
0.05875  1.88581e+22
0.176055  1.8862e+22
0.29336  1.88704e+22
0.410665  1.88842e+22
0.52797  1.89041e+22
0.645275  1.89311e+22
0.76258  1.89663e+22
0.879885  1.90105e+22
0.99719  1.90632e+22
1.1145  1.91236e+22
1.2318  1.91896e+22
1.3491  1.92581e+22
1.46641  1.93244e+22
1.58371  1.93842e+22
1.70102  1.94328e+22
1.81832  1.94669e+22
1.93563  1.94835e+22
2.05294  1.94817e+22
2.17024  1.94622e+22
2.28754  1.94268e+22
2.40485  1.93785e+22
2.52216  1.93211e+22
2.63946  1.92594e+22
2.75677  1.91967e+22
2.87407  1.91374e+22
2.99137  1.90843e+22
3.10868  1.90402e+22
3.22599  1.90064e+22
3.34329  1.89845e+22
3.4606  1.89737e+22
3.5779  1.89728e+22
3.69521  1.89794e+22
3.81251  1.89905e+22
3.92982  1.90017e+22
4.04712  1.90092e+22
4.16443  1.90089e+22
4.28173  1.89974e+22
4.39903  1.89728e+22
4.51634  1.89344e+22
4.63364  1.88833e+22
4.75095  1.88215e+22
4.86825  1.87527e+22
4.98556  1.86813e+22
5.10286  1.86115e+22
5.22017  1.8548e+22
5.33748  1.84941e+22
5.45478  1.84526e+22
5.57209  1.84252e+22
5.68939  1.84112e+22
5.8067  1.84101e+22
5.924  1.84186e+22
6.0413  1.84333e+22
6.15861  1.84494e+22
6.27591  1.84623e+22
6.39322  1.84671e+22
6.51052  1.84603e+22
6.62783  1.84387e+22
6.74514  1.84012e+22
6.86244  1.83479e+22
6.97975  1.82807e+22
7.09705  1.82022e+22
7.21436  1.81161e+22
7.33166  1.8027e+22
7.44897  1.79388e+22
7.56627  1.78556e+22
7.68358  1.77799e+22
7.80088  1.77136e+22
7.91819  1.76573e+22
8.03549  1.7611e+22
8.1528  1.75731e+22
8.2701  1.75404e+22
8.38741  1.75107e+22
8.50471  1.74807e+22
8.62202  1.74468e+22
8.73932  1.74064e+22
8.85662  1.73575e+22
8.97393  1.72985e+22
9.09123  1.72292e+22
9.20854  1.71507e+22
9.32584  1.70647e+22
9.44315  1.69731e+22
9.56045  1.6879e+22
9.67776  1.67855e+22
9.79506  1.66952e+22
9.91237  1.66107e+22
10.0297  1.65338e+22
10.147  1.64661e+22
10.2643  1.64083e+22
10.3816  1.63598e+22
10.4989  1.6321e+22
10.6162  1.62902e+22
10.7335  1.62666e+22
10.8508  1.6248e+22
10.9681  1.62332e+22
11.0854  1.62206e+22
11.2027  1.62087e+22
11.32  1.61962e+22
11.4373  1.61827e+22
11.5546  1.61677e+22
11.6719  1.61511e+22
11.7893  1.61324e+22
11.9066  1.61113e+22
12.0239  1.60869e+22
12.1412  1.60585e+22
12.2585  1.60249e+22
12.3758  1.59845e+22
12.4931  1.59358e+22
12.6104  1.58773e+22
12.7277  1.58088e+22
12.845  1.57299e+22
12.9623  1.56401e+22
13.0796  1.55415e+22
13.1969  1.54355e+22
13.3142  1.53243e+22
13.4315  1.52104e+22
13.5488  1.50968e+22
13.6661  1.49856e+22
13.7834  1.4879e+22
13.9007  1.4779e+22
14.018  1.46867e+22
14.1354  1.46017e+22
14.2527  1.45237e+22
14.37  1.44516e+22
14.4873  1.4383e+22
14.6046  1.4316e+22
14.7219  1.4248e+22
14.8392  1.41768e+22
14.9565  1.41008e+22
15.0738  1.40181e+22
15.1911  1.39291e+22
15.3084  1.38331e+22
15.4257  1.3732e+22
15.543  1.36271e+22
15.6603  1.35208e+22
15.7776  1.34159e+22
15.8949  1.33148e+22
16.0122  1.32198e+22
16.1295  1.31338e+22
16.2468  1.30582e+22
16.3641  1.29939e+22
16.4815  1.29407e+22
16.5988  1.2897e+22
16.7161  1.28602e+22
16.8334  1.28273e+22
16.9507  1.27942e+22
17.068  1.2757e+22
17.1853  1.27122e+22
17.3026  1.26569e+22
17.4199  1.259e+22
17.5372  1.25113e+22
17.6545  1.24214e+22
17.7718  1.23233e+22
17.8891  1.22194e+22
18.0064  1.21131e+22
18.1237  1.20075e+22
18.241  1.1906e+22
18.3583  1.18101e+22
18.4756  1.17217e+22
18.5929  1.16415e+22
18.7102  1.15697e+22
18.8275  1.15048e+22
18.9449  1.14456e+22
19.0622  1.13895e+22
19.1795  1.13336e+22
19.2968  1.12754e+22
19.4141  1.12119e+22
19.5314  1.1141e+22
19.6487  1.10617e+22
19.766  1.09735e+22
19.8833  1.08782e+22
20.0006  1.07774e+22
20.1179  1.06742e+22
20.2352  1.05716e+22
20.3525  1.0472e+22
20.4698  1.03777e+22
20.5871  1.02892e+22
20.7044  1.02061e+22
20.8217  1.01281e+22
20.939  1.00535e+22
21.0563  9.98064e+21
21.1736  9.90826e+21
21.291  9.83501e+21
21.4083  9.75947e+21
21.5256  9.68204e+21
21.6429  9.60171e+21
21.7602  9.51856e+21
21.8775  9.43225e+21
21.9948  9.3429e+21
22.1121  9.25062e+21
22.2294  9.15586e+21
22.3467  9.05886e+21
22.464  8.96125e+21
22.5813  8.8637e+21
22.6986  8.76741e+21
22.8159  8.67308e+21
22.9332  8.58153e+21
23.0505  8.4923e+21
23.1678  8.40522e+21
23.2851  8.3195e+21
23.4024  8.23445e+21
23.5198  8.14893e+21
23.6371  8.06291e+21
23.7544  7.97626e+21
23.8717  7.88925e+21
23.989  7.80329e+21
24.1063  7.71952e+21
24.2236  7.63949e+21
24.3409  7.5652e+21
24.4582  7.49803e+21
24.5755  7.43985e+21
24.6928  7.39126e+21
24.8101  7.35292e+21
24.9274  7.32417e+21
25.0447  7.30324e+21
25.162  7.28785e+21
25.2793  7.27398e+21
25.3966  7.25703e+21
25.5139  7.23269e+21
25.6312  7.19665e+21
25.7485  7.1453e+21
25.8658  7.07694e+21
25.9832  6.99077e+21
26.1005  6.8875e+21
26.2178  6.77041e+21
26.3351  6.64275e+21
26.4524  6.50894e+21
26.5697  6.37339e+21
26.687  6.24053e+21
26.8043  6.11378e+21
26.9216  5.99611e+21
27.0389  5.8891e+21
27.1562  5.79392e+21
27.2735  5.71019e+21
27.3908  5.6369e+21
27.5081  5.57244e+21
27.6254  5.51451e+21
27.7427  5.46031e+21
27.86  5.40731e+21
27.9773  5.35299e+21
28.0946  5.29528e+21
28.212  5.23266e+21
28.3293  5.16489e+21
28.4466  5.09214e+21
28.5639  5.01526e+21
28.6812  4.93595e+21
28.7985  4.85595e+21
28.9158  4.77687e+21
29.0331  4.70034e+21
29.1504  4.62725e+21
29.2677  4.5583e+21
29.385  4.49337e+21
29.5023  4.43224e+21
29.6196  4.37432e+21
29.7369  4.31856e+21
29.8542  4.26466e+21
29.9715  4.21163e+21
30.0888  4.15905e+21
30.2061  4.10701e+21
30.3234  4.05583e+21
30.4407  4.00627e+21
30.558  3.95967e+21
30.6754  3.9172e+21
30.7927  3.88018e+21
30.91  3.85001e+21
31.0273  3.8274e+21
31.1446  3.81242e+21
31.2619  3.8046e+21
31.3792  3.80267e+21
31.4965  3.8043e+21
31.6138  3.80693e+21
31.7311  3.80737e+21
31.8484  3.80252e+21
31.9657  3.78902e+21
32.083  3.76434e+21
32.2003  3.72639e+21
32.3176  3.67407e+21
32.4349  3.60716e+21
32.5522  3.52652e+21
32.6695  3.43396e+21
32.7868  3.33189e+21
32.9042  3.22331e+21
33.0215  3.11178e+21
33.1388  3.00041e+21
33.2561  2.89202e+21
33.3734  2.78876e+21
33.4907  2.69235e+21
33.608  2.60333e+21
33.7253  2.52173e+21
33.8426  2.44709e+21
33.9599  2.37865e+21
34.0772  2.31551e+21
34.1945  2.25698e+21
34.3118  2.20268e+21
34.4291  2.1525e+21
34.5464  2.10695e+21
34.6637  2.06658e+21
34.781  2.03226e+21
34.8983  2.0051e+21
35.0156  1.98588e+21
35.1329  1.97547e+21
35.2503  1.97439e+21
35.3676  1.9824e+21
35.4849  1.99888e+21
35.6022  2.02248e+21
35.7195  2.051e+21
35.8368  2.08168e+21
35.9541  2.11151e+21
36.0714  2.13716e+21
36.1887  2.1554e+21
36.306  2.16376e+21
36.4233  2.16034e+21
36.5406  2.14445e+21
36.6579  2.11609e+21
36.7752  2.07684e+21
36.8925  2.02872e+21
37.0098  1.97469e+21
37.1271  1.91811e+21
37.2444  1.86211e+21
37.3617  1.80984e+21
37.479  1.76371e+21
37.5964  1.72521e+21
37.7137  1.69529e+21
37.831  1.67341e+21
37.9483  1.65833e+21
38.0656  1.64748e+21
38.1829  1.63824e+21
38.3002  1.62723e+21
38.4175  1.61122e+21
38.5348  1.58776e+21
38.6521  1.55503e+21
38.7694  1.51264e+21
38.8867  1.46125e+21
39.004  1.40265e+21
39.1213  1.33962e+21
39.2386  1.27523e+21
39.3559  1.21283e+21
39.4732  1.15509e+21
39.5905  1.10416e+21
39.7078  1.06119e+21
39.8251  1.02664e+21
39.9425  1.00011e+21
40.0598  9.80544e+20
40.1771  9.6684e+20
40.2944  9.57613e+20
40.4117  9.51397e+20
40.529  9.47027e+20
40.6463  9.4351e+20
40.7636  9.39893e+20
40.8809  9.3551e+20
40.9982  9.3013e+20
41.1155  9.23497e+20
41.2328  9.15969e+20
41.3501  9.07876e+20
41.4674  9.00243e+20
41.5847  8.93703e+20
41.702  8.89097e+20
41.8193  8.87216e+20
41.9366  8.8815e+20
42.0539  8.91888e+20
42.1712  8.97867e+20
42.2885  9.05182e+20
42.4059  9.12903e+20
42.5232  9.19799e+20
42.6405  9.25193e+20
42.7578  9.28065e+20
42.8751  9.28099e+20
42.9924  9.24861e+20
43.1097  9.18179e+20
43.227  9.0804e+20
43.3443  8.94505e+20
43.4616  8.77903e+20
43.5789  8.58634e+20
43.6962  8.3741e+20
43.8135  8.15109e+20
43.9308  7.92692e+20
44.0481  7.71293e+20
44.1654  7.51632e+20
44.2827  7.34407e+20
44.4  7.19774e+20
44.5173  7.07488e+20
44.6347  6.97053e+20
44.752  6.8757e+20
44.8693  6.78588e+20
44.9866  6.69684e+20
45.1039  6.60593e+20
45.2212  6.51836e+20
45.3385  6.44096e+20
45.4558  6.38148e+20
45.5731  6.34915e+20
45.6904  6.35065e+20
45.8077  6.38731e+20
45.925  6.45769e+20
46.0423  6.55381e+20
46.1596  6.66652e+20
46.2769  6.78253e+20
46.3942  6.88756e+20
46.5115  6.97104e+20
46.6288  7.02148e+20
46.7461  7.03512e+20
46.8634  7.01001e+20
46.9808  6.94976e+20
47.0981  6.86235e+20
47.2154  6.7577e+20
47.3327  6.65182e+20
47.45  6.55768e+20
47.5673  6.48745e+20
47.6846  6.45102e+20
47.8019  6.45041e+20
47.9192  6.48324e+20
48.0365  6.54032e+20
48.1538  6.60678e+20
48.2711  6.66488e+20
48.3884  6.69637e+20
48.5057  6.68561e+20
48.623  6.62092e+20
48.7403  6.49675e+20
48.8576  6.31283e+20
48.9749  6.07783e+20
49.0922  5.80441e+20
49.2095  5.50775e+20
49.3269  5.20673e+20
49.4442  4.91807e+20
49.5615  4.66122e+20
49.6788  4.4516e+20
49.7961  4.30049e+20
49.9134  4.21665e+20
50.0307  4.20421e+20
50.148  4.25949e+20
50.2653  4.3748e+20
50.3826  4.53653e+20
50.4999  4.72612e+20
50.6172  4.92301e+20
50.7345  5.10753e+20
50.8518  5.26075e+20
