#S 1 spectral density
#N 2
#UFWHM 60.1775
#L  abscissas [um]  spectral density
-58.5938  6.4348e+20
-58.4764  6.46919e+20
-58.3591  6.5077e+20
-58.2418  6.5598e+20
-58.1245  6.63563e+20
-58.0072  6.74327e+20
-57.8899  6.88901e+20
-57.7726  7.0777e+20
-57.6553  7.31138e+20
-57.538  7.5902e+20
-57.4207  7.91069e+20
-57.3034  8.26622e+20
-57.1861  8.64584e+20
-57.0688  9.03464e+20
-56.9515  9.41442e+20
-56.8342  9.76838e+20
-56.7169  1.00794e+21
-56.5996  1.03358e+21
-56.4823  1.05301e+21
-56.365  1.06622e+21
-56.2477  1.07377e+21
-56.1303  1.07691e+21
-56.013  1.07692e+21
-55.8957  1.07548e+21
-55.7784  1.07376e+21
-55.6611  1.07285e+21
-55.5438  1.07327e+21
-55.4265  1.07499e+21
-55.3092  1.07779e+21
-55.1919  1.08095e+21
-55.0746  1.08377e+21
-54.9573  1.08553e+21
-54.84  1.08557e+21
-54.7227  1.08365e+21
-54.6054  1.07956e+21
-54.4881  1.07374e+21
-54.3708  1.0668e+21
-54.2535  1.05952e+21
-54.1362  1.05291e+21
-54.0189  1.04831e+21
-53.9016  1.04672e+21
-53.7842  1.04917e+21
-53.6669  1.05643e+21
-53.5496  1.06891e+21
-53.4323  1.08669e+21
-53.315  1.1095e+21
-53.1977  1.13663e+21
-53.0804  1.16711e+21
-52.9631  1.19975e+21
-52.8458  1.23328e+21
-52.7285  1.26644e+21
-52.6112  1.29816e+21
-52.4939  1.32751e+21
-52.3766  1.3539e+21
-52.2593  1.37703e+21
-52.142  1.39706e+21
-52.0247  1.41432e+21
-51.9074  1.42965e+21
-51.7901  1.44358e+21
-51.6728  1.45676e+21
-51.5555  1.46977e+21
-51.4381  1.4828e+21
-51.3208  1.49556e+21
-51.2035  1.5077e+21
-51.0862  1.51854e+21
-50.9689  1.52746e+21
-50.8516  1.53378e+21
-50.7343  1.53714e+21
-50.617  1.53757e+21
-50.4997  1.53526e+21
-50.3824  1.53084e+21
-50.2651  1.52521e+21
-50.1478  1.5194e+21
-50.0305  1.51475e+21
-49.9132  1.51231e+21
-49.7959  1.51366e+21
-49.6786  1.52002e+21
-49.5613  1.53252e+21
-49.444  1.552e+21
-49.3267  1.57916e+21
-49.2094  1.61384e+21
-49.092  1.65549e+21
-48.9747  1.70263e+21
-48.8574  1.75354e+21
-48.7401  1.80575e+21
-48.6228  1.85691e+21
-48.5055  1.90448e+21
-48.3882  1.94659e+21
-48.2709  1.98169e+21
-48.1536  2.00914e+21
-48.0363  2.02913e+21
-47.919  2.04243e+21
-47.8017  2.05039e+21
-47.6844  2.05469e+21
-47.5671  2.05718e+21
-47.4498  2.05956e+21
-47.3325  2.0633e+21
-47.2152  2.06976e+21
-47.0979  2.07938e+21
-46.9806  2.09219e+21
-46.8633  2.10811e+21
-46.7459  2.1262e+21
-46.6286  2.14514e+21
-46.5113  2.16362e+21
-46.394  2.18025e+21
-46.2767  2.19401e+21
-46.1594  2.20415e+21
-46.0421  2.21068e+21
-45.9248  2.21436e+21
-45.8075  2.21625e+21
-45.6902  2.21824e+21
-45.5729  2.22226e+21
-45.4556  2.23043e+21
-45.3383  2.24472e+21
-45.221  2.26646e+21
-45.1037  2.29693e+21
-44.9864  2.33668e+21
-44.8691  2.38559e+21
-44.7518  2.44298e+21
-44.6345  2.50772e+21
-44.5172  2.57787e+21
-44.3998  2.6515e+21
-44.2825  2.7256e+21
-44.1652  2.79763e+21
-44.0479  2.86483e+21
-43.9306  2.92486e+21
-43.8133  2.97593e+21
-43.696  3.01722e+21
-43.5787  3.04851e+21
-43.4614  3.07057e+21
-43.3441  3.0852e+21
-43.2268  3.09411e+21
-43.1095  3.09954e+21
-42.9922  3.10342e+21
-42.8749  3.10755e+21
-42.7576  3.11298e+21
-42.6403  3.12048e+21
-42.523  3.13061e+21
-42.4057  3.14333e+21
-42.2884  3.1584e+21
-42.171  3.17626e+21
-42.0537  3.19668e+21
-41.9364  3.21959e+21
-41.8191  3.24503e+21
-41.7018  3.27298e+21
-41.5845  3.30343e+21
-41.4672  3.33632e+21
-41.3499  3.37166e+21
-41.2326  3.40967e+21
-41.1153  3.45019e+21
-40.998  3.49352e+21
-40.8807  3.53939e+21
-40.7634  3.5875e+21
-40.6461  3.63718e+21
-40.5288  3.68699e+21
-40.4115  3.73552e+21
-40.2942  3.78107e+21
-40.1769  3.82174e+21
-40.0596  3.8561e+21
-39.9423  3.88314e+21
-39.825  3.90246e+21
-39.7076  3.9152e+21
-39.5903  3.92219e+21
-39.473  3.92557e+21
-39.3557  3.92792e+21
-39.2384  3.93172e+21
-39.1211  3.93954e+21
-39.0038  3.95383e+21
-38.8865  3.97639e+21
-38.7692  4.00861e+21
-38.6519  4.05176e+21
-38.5346  4.10566e+21
-38.4173  4.1701e+21
-38.3  4.24385e+21
-38.1827  4.32504e+21
-38.0654  4.41097e+21
-37.9481  4.4985e+21
-37.8308  4.58442e+21
-37.7135  4.66531e+21
-37.5962  4.73785e+21
-37.4789  4.80038e+21
-37.3615  4.85129e+21
-37.2442  4.8903e+21
-37.1269  4.91822e+21
-37.0096  4.93649e+21
-36.8923  4.94741e+21
-36.775  4.95341e+21
-36.6577  4.95703e+21
-36.5404  4.96058e+21
-36.4231  4.96548e+21
-36.3058  4.97321e+21
-36.1885  4.98405e+21
-36.0712  4.9981e+21
-35.9539  5.01474e+21
-35.8366  5.03288e+21
-35.7193  5.05153e+21
-35.602  5.06967e+21
-35.4847  5.08613e+21
-35.3674  5.10042e+21
-35.2501  5.11234e+21
-35.1328  5.12224e+21
-35.0154  5.13182e+21
-34.8981  5.14227e+21
-34.7808  5.15551e+21
-34.6635  5.17391e+21
-34.5462  5.1992e+21
-34.4289  5.23296e+21
-34.3116  5.27639e+21
-34.1943  5.32947e+21
-34.077  5.39184e+21
-33.9597  5.46295e+21
-33.8424  5.54065e+21
-33.7251  5.62325e+21
-33.6078  5.70863e+21
-33.4905  5.79459e+21
-33.3732  5.87891e+21
-33.2559  5.95962e+21
-33.1386  6.03531e+21
-33.0213  6.10468e+21
-32.904  6.16669e+21
-32.7867  6.2219e+21
-32.6693  6.27029e+21
-32.552  6.31277e+21
-32.4347  6.35077e+21
-32.3174  6.3853e+21
-32.2001  6.41805e+21
-32.0828  6.45003e+21
-31.9655  6.4824e+21
-31.8482  6.51559e+21
-31.7309  6.54958e+21
-31.6136  6.58459e+21
-31.4963  6.6199e+21
-31.379  6.65515e+21
-31.2617  6.68969e+21
-31.1444  6.72303e+21
-31.0271  6.75502e+21
-30.9098  6.78573e+21
-30.7925  6.8151e+21
-30.6752  6.84356e+21
-30.5579  6.87138e+21
-30.4406  6.89908e+21
-30.3232  6.92747e+21
-30.2059  6.95679e+21
-30.0886  6.98672e+21
-29.9713  7.01743e+21
-29.854  7.04813e+21
-29.7367  7.07801e+21
-29.6194  7.10638e+21
-29.5021  7.1319e+21
-29.3848  7.15406e+21
-29.2675  7.17315e+21
-29.1502  7.18882e+21
-29.0329  7.2023e+21
-28.9156  7.21531e+21
-28.7983  7.22993e+21
-28.681  7.24854e+21
-28.5637  7.27394e+21
-28.4464  7.3088e+21
-28.3291  7.35536e+21
-28.2118  7.41504e+21
-28.0944  7.48936e+21
-27.9771  7.5779e+21
-27.8598  7.67951e+21
-27.7425  7.79207e+21
-27.6252  7.91136e+21
-27.5079  8.03321e+21
-27.3906  8.15197e+21
-27.2733  8.26267e+21
-27.156  8.36013e+21
-27.0387  8.43997e+21
-26.9214  8.50008e+21
-26.8041  8.53911e+21
-26.6868  8.55805e+21
-26.5695  8.55918e+21
-26.4522  8.5462e+21
-26.3349  8.52403e+21
-26.2176  8.49779e+21
-26.1003  8.47227e+21
-25.983  8.45187e+21
-25.8657  8.44001e+21
-25.7483  8.43933e+21
-25.631  8.45114e+21
-25.5137  8.47577e+21
-25.3964  8.51134e+21
-25.2791  8.5561e+21
-25.1618  8.6065e+21
-25.0445  8.65861e+21
-24.9272  8.70864e+21
-24.8099  8.75226e+21
-24.6926  8.78669e+21
-24.5753  8.81066e+21
-24.458  8.82312e+21
-24.3407  8.82589e+21
-24.2234  8.8218e+21
-24.1061  8.81505e+21
-23.9888  8.81041e+21
-23.8715  8.81331e+21
-23.7542  8.82837e+21
-23.6369  8.85977e+21
-23.5196  8.90989e+21
-23.4023  8.98058e+21
-23.2849  9.07129e+21
-23.1676  9.18013e+21
-23.0503  9.30406e+21
-22.933  9.43755e+21
-22.8157  9.57525e+21
-22.6984  9.71032e+21
-22.5811  9.83663e+21
-22.4638  9.94842e+21
-22.3465  1.00405e+22
-22.2292  1.01107e+22
-22.1119  1.01577e+22
-21.9946  1.01831e+22
-21.8773  1.01896e+22
-21.76  1.01821e+22
-21.6427  1.01666e+22
-21.5254  1.01491e+22
-21.4081  1.0135e+22
-21.2908  1.0129e+22
-21.1735  1.01344e+22
-21.0561  1.01534e+22
-20.9388  1.01864e+22
-20.8215  1.02332e+22
-20.7042  1.02905e+22
-20.5869  1.03556e+22
-20.4696  1.0424e+22
-20.3523  1.04907e+22
-20.235  1.05508e+22
-20.1177  1.05992e+22
-20.0004  1.06322e+22
-19.8831  1.06478e+22
-19.7658  1.06445e+22
-19.6485  1.0624e+22
-19.5312  1.05893e+22
-19.4139  1.0545e+22
-19.2966  1.04963e+22
-19.1793  1.04496e+22
-19.062  1.04097e+22
-18.9447  1.03812e+22
-18.8274  1.03664e+22
-18.71  1.03671e+22
-18.5927  1.0383e+22
-18.4754  1.04128e+22
-18.3581  1.04551e+22
-18.2408  1.05067e+22
-18.1235  1.05657e+22
-18.0062  1.06296e+22
-17.8889  1.06965e+22
-17.7716  1.07652e+22
-17.6543  1.08337e+22
-17.537  1.09022e+22
-17.4197  1.09701e+22
-17.3024  1.10376e+22
-17.1851  1.1105e+22
-17.0678  1.11732e+22
-16.9505  1.12433e+22
-16.8332  1.13158e+22
-16.7159  1.13909e+22
-16.5986  1.14678e+22
-16.4813  1.15449e+22
-16.364  1.16204e+22
-16.2466  1.16911e+22
-16.1293  1.17548e+22
-16.012  1.18076e+22
-15.8947  1.18474e+22
-15.7774  1.18725e+22
-15.6601  1.18818e+22
-15.5428  1.1876e+22
-15.4255  1.18566e+22
-15.3082  1.18258e+22
-15.1909  1.17877e+22
-15.0736  1.17456e+22
-14.9563  1.1704e+22
-14.839  1.16672e+22
-14.7217  1.1639e+22
-14.6044  1.16225e+22
-14.4871  1.16203e+22
-14.3698  1.16332e+22
-14.2525  1.16615e+22
-14.1352  1.17038e+22
-14.0178  1.1758e+22
-13.9005  1.18211e+22
-13.7832  1.18896e+22
-13.6659  1.19607e+22
-13.5486  1.20303e+22
-13.4313  1.20968e+22
-13.314  1.2158e+22
-13.1967  1.22134e+22
-13.0794  1.22632e+22
-12.9621  1.23077e+22
-12.8448  1.23491e+22
-12.7275  1.23888e+22
-12.6102  1.24288e+22
-12.4929  1.24703e+22
-12.3756  1.25143e+22
-12.2583  1.25615e+22
-12.141  1.26113e+22
-12.0237  1.26624e+22
-11.9064  1.27128e+22
-11.7891  1.27595e+22
-11.6718  1.28e+22
-11.5544  1.28316e+22
-11.4371  1.28528e+22
-11.3198  1.28618e+22
-11.2025  1.28586e+22
-11.0852  1.28447e+22
-10.9679  1.28221e+22
-10.8506  1.27939e+22
-10.7333  1.27642e+22
-10.616  1.27365e+22
-10.4987  1.27154e+22
-10.3814  1.27031e+22
-10.2641  1.27024e+22
-10.1468  1.27141e+22
-10.0295  1.27385e+22
-9.91217  1.27738e+22
-9.79487  1.28177e+22
-9.67756  1.28665e+22
-9.56026  1.29163e+22
-9.44295  1.29626e+22
-9.32565  1.3001e+22
-9.20834  1.30279e+22
-9.09104  1.30405e+22
-8.97373  1.3038e+22
-8.85643  1.30197e+22
-8.73913  1.29876e+22
-8.62182  1.29448e+22
-8.50452  1.28952e+22
-8.38721  1.28436e+22
-8.26991  1.27946e+22
-8.1526  1.27532e+22
-8.03529  1.27234e+22
-7.91799  1.27081e+22
-7.80069  1.27087e+22
-7.68338  1.27256e+22
-7.56608  1.27584e+22
-7.44877  1.28043e+22
-7.33146  1.28607e+22
-7.21416  1.29235e+22
-7.09685  1.29884e+22
-6.97955  1.30515e+22
-6.86224  1.31089e+22
-6.74494  1.31591e+22
-6.62763  1.31996e+22
-6.51033  1.32307e+22
-6.39302  1.32536e+22
-6.27572  1.32707e+22
-6.15842  1.3285e+22
-6.04111  1.33e+22
-5.92381  1.33192e+22
-5.8065  1.33459e+22
-5.68919  1.33817e+22
-5.57189  1.34276e+22
-5.45458  1.34834e+22
-5.33728  1.35477e+22
-5.21997  1.36172e+22
-5.10267  1.3688e+22
-4.98536  1.37553e+22
-4.86806  1.3814e+22
-4.75075  1.3859e+22
-4.63345  1.38858e+22
-4.51614  1.38913e+22
-4.39884  1.38737e+22
-4.28154  1.38338e+22
-4.16423  1.37734e+22
-4.04692  1.36969e+22
-3.92962  1.361e+22
-3.81231  1.3519e+22
-3.69501  1.34306e+22
-3.5777  1.33506e+22
-3.4604  1.32844e+22
-3.34309  1.32353e+22
-3.22579  1.32054e+22
-3.10849  1.31949e+22
-2.99118  1.32025e+22
-2.87387  1.32266e+22
-2.75657  1.32634e+22
-2.63926  1.33098e+22
-2.52196  1.33615e+22
-2.40465  1.34142e+22
-2.28735  1.34647e+22
-2.17005  1.35089e+22
-2.05274  1.3546e+22
-1.93544  1.35736e+22
-1.81813  1.3592e+22
-1.70083  1.36027e+22
-1.58352  1.36077e+22
-1.46622  1.36097e+22
-1.34891  1.36117e+22
-1.2316  1.36159e+22
-1.1143  1.36247e+22
-0.996995  1.3638e+22
-0.87969  1.36561e+22
-0.762385  1.36775e+22
-0.64508  1.37008e+22
-0.527775  1.37238e+22
-0.41047  1.37445e+22
-0.293165  1.37616e+22
-0.17586  1.37737e+22
-0.058555  1.378e+22
0.05875  1.378e+22
0.176055  1.37739e+22
0.29336  1.37616e+22
0.410665  1.37446e+22
0.52797  1.37235e+22
0.645275  1.37001e+22
0.76258  1.36766e+22
0.879885  1.36545e+22
0.99719  1.36359e+22
1.1145  1.36217e+22
1.2318  1.36123e+22
1.3491  1.36073e+22
1.46641  1.36046e+22
1.58371  1.36017e+22
1.70102  1.35958e+22
1.81832  1.35845e+22
1.93563  1.35652e+22
2.05294  1.35372e+22
2.17024  1.35001e+22
2.28754  1.34551e+22
2.40485  1.34048e+22
2.52216  1.33516e+22
2.63946  1.33004e+22
2.75677  1.32542e+22
2.87407  1.32173e+22
2.99137  1.31934e+22
3.10868  1.31857e+22
3.22599  1.31961e+22
3.34329  1.3226e+22
3.4606  1.32747e+22
3.5779  1.33406e+22
3.69521  1.34198e+22
3.81251  1.35075e+22
3.92982  1.35975e+22
4.04712  1.36834e+22
4.16443  1.37587e+22
4.28173  1.38179e+22
4.39903  1.38568e+22
4.51634  1.38733e+22
4.63364  1.38671e+22
4.75095  1.38396e+22
4.86825  1.37943e+22
4.98556  1.37353e+22
5.10286  1.3668e+22
5.22017  1.35973e+22
5.33748  1.35281e+22
5.45478  1.34643e+22
5.57209  1.34086e+22
5.68939  1.33629e+22
5.8067  1.33272e+22
5.924  1.33007e+22
6.0413  1.32814e+22
6.15861  1.32661e+22
6.27591  1.32513e+22
6.39322  1.32336e+22
6.51052  1.32101e+22
6.62783  1.3178e+22
6.74514  1.31368e+22
6.86244  1.30862e+22
6.97975  1.30276e+22
7.09705  1.2964e+22
7.21436  1.28982e+22
7.33166  1.28353e+22
7.44897  1.27786e+22
7.56627  1.27322e+22
7.68358  1.26992e+22
7.80088  1.2682e+22
7.91819  1.2681e+22
8.03549  1.26963e+22
8.1528  1.2726e+22
8.2701  1.2767e+22
8.38741  1.28154e+22
8.50471  1.28666e+22
8.62202  1.29156e+22
8.73932  1.29577e+22
8.85662  1.29889e+22
8.97393  1.30064e+22
9.09123  1.30082e+22
9.20854  1.29948e+22
9.32584  1.29674e+22
9.44315  1.29284e+22
9.56045  1.28819e+22
9.67776  1.28317e+22
9.79506  1.27828e+22
9.91237  1.27389e+22
10.0297  1.27037e+22
10.147  1.26797e+22
10.2643  1.26681e+22
10.3816  1.2669e+22
10.4989  1.26814e+22
10.6162  1.27028e+22
10.7335  1.27304e+22
10.8508  1.276e+22
10.9681  1.27878e+22
11.0854  1.281e+22
11.2027  1.28235e+22
11.32  1.28258e+22
11.4373  1.28162e+22
11.5546  1.27944e+22
11.6719  1.27619e+22
11.7893  1.27207e+22
11.9066  1.2673e+22
12.0239  1.26222e+22
12.1412  1.25707e+22
12.2585  1.25204e+22
12.3758  1.24726e+22
12.4931  1.24282e+22
12.6104  1.23862e+22
12.7277  1.23461e+22
12.845  1.23062e+22
12.9623  1.22645e+22
13.0796  1.22195e+22
13.1969  1.21695e+22
13.3142  1.21138e+22
13.4315  1.20522e+22
13.5488  1.19854e+22
13.6661  1.19152e+22
13.7834  1.18439e+22
13.9007  1.17749e+22
14.018  1.17117e+22
14.1354  1.16572e+22
14.2527  1.16146e+22
14.37  1.1586e+22
14.4873  1.15727e+22
14.6046  1.15748e+22
14.7219  1.15909e+22
14.8392  1.16189e+22
14.9565  1.16554e+22
15.0738  1.16965e+22
15.1911  1.17383e+22
15.3084  1.17761e+22
15.4257  1.18063e+22
15.543  1.18252e+22
15.6603  1.18305e+22
15.7776  1.18205e+22
15.8949  1.17952e+22
16.0122  1.17546e+22
16.1295  1.17011e+22
16.2468  1.1637e+22
16.3641  1.15655e+22
16.4815  1.14898e+22
16.5988  1.14119e+22
16.7161  1.13348e+22
16.8334  1.12596e+22
16.9507  1.11868e+22
17.068  1.11164e+22
17.1853  1.1048e+22
17.3026  1.09804e+22
17.4199  1.09132e+22
17.5372  1.08458e+22
17.6545  1.07775e+22
17.7718  1.07092e+22
17.8891  1.0641e+22
18.0064  1.05743e+22
18.1237  1.05106e+22
18.241  1.04518e+22
18.3583  1.04003e+22
18.4756  1.03581e+22
18.5929  1.0328e+22
18.7102  1.0312e+22
18.8275  1.03108e+22
18.9449  1.03249e+22
19.0622  1.03529e+22
19.1795  1.03917e+22
19.2968  1.04377e+22
19.4141  1.04851e+22
19.5314  1.05284e+22
19.6487  1.05622e+22
19.766  1.05816e+22
19.8833  1.05841e+22
20.0006  1.05681e+22
20.1179  1.05346e+22
20.2352  1.04859e+22
20.3525  1.04261e+22
20.4698  1.03598e+22
20.5871  1.02922e+22
20.7044  1.02277e+22
20.8217  1.01709e+22
20.939  1.01249e+22
21.0563  1.00923e+22
21.1736  1.00738e+22
21.291  1.00685e+22
21.4083  1.00746e+22
21.5256  1.00886e+22
21.6429  1.01058e+22
21.7602  1.01205e+22
21.8775  1.01269e+22
21.9948  1.01192e+22
22.1121  1.00931e+22
22.2294  1.00453e+22
22.3467  9.97414e+21
22.464  9.88117e+21
22.5813  9.76895e+21
22.6986  9.6423e+21
22.8159  9.5071e+21
22.9332  9.36966e+21
23.0505  9.2365e+21
23.1678  9.11312e+21
23.2851  9.0047e+21
23.4024  8.91469e+21
23.5198  8.8445e+21
23.6371  8.79465e+21
23.7544  8.76363e+21
23.8717  8.74854e+21
23.989  8.74568e+21
24.1063  8.74994e+21
24.2236  8.75614e+21
24.3409  8.75977e+21
24.4582  8.75612e+21
24.5755  8.74297e+21
24.6928  8.71854e+21
24.8101  8.68329e+21
24.9274  8.6388e+21
25.0447  8.58856e+21
25.162  8.53622e+21
25.2793  8.48589e+21
25.3966  8.44111e+21
25.5139  8.40536e+21
25.6312  8.38097e+21
25.7485  8.36922e+21
25.8658  8.37012e+21
25.9832  8.38196e+21
26.1005  8.40224e+21
26.2178  8.42778e+21
26.3351  8.45385e+21
26.4524  8.47549e+21
26.5697  8.48779e+21
26.687  8.48596e+21
26.8043  8.4665e+21
26.9216  8.42705e+21
27.0389  8.36631e+21
27.1562  8.28589e+21
27.2735  8.18823e+21
27.3908  8.07736e+21
27.5081  7.95868e+21
27.6254  7.83726e+21
27.7427  7.7185e+21
27.86  7.60671e+21
27.9773  7.5059e+21
28.0946  7.41841e+21
28.212  7.34508e+21
28.3293  7.28614e+21
28.4466  7.24051e+21
28.5639  7.20636e+21
28.6812  7.18159e+21
28.7985  7.16333e+21
28.9158  7.14894e+21
29.0331  7.13612e+21
29.1504  7.12229e+21
29.2677  7.10645e+21
29.385  7.08721e+21
29.5023  7.06443e+21
29.6196  7.03815e+21
29.7369  7.00933e+21
29.8542  6.97902e+21
29.9715  6.9479e+21
30.0888  6.91666e+21
30.2061  6.88609e+21
30.3234  6.85651e+21
30.4407  6.82785e+21
30.558  6.79992e+21
30.6754  6.77199e+21
30.7927  6.74343e+21
30.91  6.71422e+21
31.0273  6.68371e+21
31.1446  6.65174e+21
31.2619  6.61844e+21
31.3792  6.58404e+21
31.4965  6.54898e+21
31.6138  6.51399e+21
31.7311  6.47905e+21
31.8484  6.44508e+21
31.9657  6.41202e+21
32.083  6.3796e+21
32.2003  6.34759e+21
32.3176  6.31481e+21
32.4349  6.28024e+21
32.5522  6.2422e+21
32.6695  6.1997e+21
32.7868  6.15147e+21
32.9042  6.09642e+21
33.0215  6.03437e+21
33.1388  5.96536e+21
33.2561  5.89003e+21
33.3734  5.80972e+21
33.4907  5.72582e+21
33.608  5.64044e+21
33.7253  5.55567e+21
33.8426  5.47346e+21
33.9599  5.39638e+21
34.0772  5.32598e+21
34.1945  5.26396e+21
34.3118  5.21122e+21
34.4291  5.16822e+21
34.5464  5.13491e+21
34.6637  5.10992e+21
34.781  5.09161e+21
34.8983  5.0783e+21
35.0156  5.06795e+21
35.1329  5.05846e+21
35.2503  5.04843e+21
35.3676  5.03656e+21
35.4849  5.02214e+21
35.6022  5.0058e+21
35.7195  4.98777e+21
35.8368  4.96904e+21
35.9541  4.9508e+21
36.0714  4.93423e+21
36.1887  4.92016e+21
36.306  4.9094e+21
36.4233  4.90151e+21
36.5406  4.89648e+21
36.6579  4.8929e+21
36.7752  4.88903e+21
36.8925  4.8828e+21
37.0098  4.87168e+21
37.1271  4.85325e+21
37.2444  4.82518e+21
37.3617  4.78608e+21
37.479  4.73533e+21
37.5964  4.67295e+21
37.7137  4.60051e+21
37.831  4.5202e+21
37.9483  4.43486e+21
38.0656  4.34798e+21
38.1829  4.26275e+21
38.3002  4.18248e+21
38.4175  4.10962e+21
38.5348  4.04587e+21
38.6521  3.9928e+21
38.7694  3.95044e+21
38.8867  3.91873e+21
39.004  3.89666e+21
39.1213  3.88278e+21
39.2386  3.87539e+21
39.3559  3.87183e+21
39.4732  3.86951e+21
39.5905  3.86604e+21
39.7078  3.85906e+21
39.8251  3.84632e+21
39.9425  3.82679e+21
40.0598  3.79973e+21
40.1771  3.76521e+21
40.2944  3.72466e+21
40.4117  3.67919e+21
40.529  3.63067e+21
40.6463  3.58093e+21
40.7636  3.53158e+21
40.8809  3.4837e+21
40.9982  3.43816e+21
41.1155  3.39508e+21
41.2328  3.3549e+21
41.3501  3.31731e+21
41.4674  3.2823e+21
41.5847  3.2498e+21
41.702  3.21981e+21
41.8193  3.19232e+21
41.9366  3.16737e+21
42.0539  3.14486e+21
42.1712  3.12502e+21
42.2885  3.10749e+21
42.4059  3.09264e+21
42.5232  3.08031e+21
42.6405  3.07049e+21
42.7578  3.0631e+21
42.8751  3.05775e+21
42.9924  3.05385e+21
43.1097  3.05004e+21
43.227  3.04454e+21
43.3443  3.03574e+21
43.4616  3.02116e+21
43.5789  2.99905e+21
43.6962  2.96779e+21
43.8135  2.9267e+21
43.9308  2.87593e+21
44.0481  2.81627e+21
44.1654  2.74949e+21
44.2827  2.67804e+21
44.4  2.60465e+21
44.5173  2.53187e+21
44.6347  2.46248e+21
44.752  2.39861e+21
44.8693  2.34192e+21
44.9866  2.29386e+21
45.1039  2.25486e+21
45.2212  2.22493e+21
45.3385  2.20368e+21
45.4558  2.18993e+21
45.5731  2.18212e+21
45.6904  2.17843e+21
45.8077  2.1766e+21
45.925  2.17493e+21
46.0423  2.17142e+21
46.1596  2.16501e+21
46.2769  2.15496e+21
46.3942  2.14139e+21
46.5115  2.12496e+21
46.6288  2.10672e+21
46.7461  2.08801e+21
46.8634  2.07033e+21
46.9808  2.05459e+21
47.0981  2.04203e+21
47.2154  2.03268e+21
47.3327  2.02653e+21
47.45  2.02286e+21
47.5673  2.02054e+21
47.6846  2.01825e+21
47.8019  2.01405e+21
47.9192  2.00607e+21
48.0365  1.9929e+21
48.1538  1.97295e+21
48.2711  1.94565e+21
48.3884  1.9107e+21
48.5057  1.86891e+21
48.623  1.82169e+21
48.7403  1.77104e+21
48.8576  1.71931e+21
48.9749  1.66902e+21
49.0922  1.62252e+21
49.2095  1.58153e+21
49.3269  1.54746e+21
49.4442  1.52091e+21
49.5615  1.5018e+21
49.6788  1.48978e+21
49.7961  1.48384e+21
49.9134  1.48273e+21
50.0307  1.48539e+21
50.148  1.49031e+21
50.2653  1.49628e+21
50.3826  1.50216e+21
50.4999  1.50669e+21
50.6172  1.50923e+21
50.7345  1.50903e+21
50.8518  1.50589e+21
50.9691  1.49976e+21
