#S 1 spectral density
#N 2
#UFWHM 68.0369
#L  abscissas [um]  spectral density
-58.5938  1.26867e+21
-58.4764  1.27835e+21
-58.3591  1.29098e+21
-58.2418  1.30679e+21
-58.1245  1.32596e+21
-58.0072  1.3482e+21
-57.8899  1.37318e+21
-57.7726  1.40053e+21
-57.6553  1.42981e+21
-57.538  1.46068e+21
-57.4207  1.49305e+21
-57.3034  1.52653e+21
-57.1861  1.56093e+21
-57.0688  1.5957e+21
-56.9515  1.63039e+21
-56.8342  1.66431e+21
-56.7169  1.69687e+21
-56.5996  1.72766e+21
-56.4823  1.75623e+21
-56.365  1.78238e+21
-56.2477  1.80632e+21
-56.1303  1.82832e+21
-56.013  1.8484e+21
-55.8957  1.86689e+21
-55.7784  1.8835e+21
-55.6611  1.898e+21
-55.5438  1.9099e+21
-55.4265  1.91854e+21
-55.3092  1.92348e+21
-55.1919  1.92422e+21
-55.0746  1.92082e+21
-54.9573  1.91348e+21
-54.84  1.90283e+21
-54.7227  1.88996e+21
-54.6054  1.87583e+21
-54.4881  1.86208e+21
-54.3708  1.85016e+21
-54.2535  1.84125e+21
-54.1362  1.83639e+21
-54.0189  1.83659e+21
-53.9016  1.84228e+21
-53.7842  1.85362e+21
-53.6669  1.87051e+21
-53.5496  1.89233e+21
-53.4323  1.91851e+21
-53.315  1.94805e+21
-53.1977  1.98004e+21
-53.0804  2.01358e+21
-52.9631  2.0478e+21
-52.8458  2.082e+21
-52.7285  2.11595e+21
-52.6112  2.14923e+21
-52.4939  2.18197e+21
-52.3766  2.21425e+21
-52.2593  2.24649e+21
-52.142  2.27905e+21
-52.0247  2.31232e+21
-51.9074  2.34677e+21
-51.7901  2.38229e+21
-51.6728  2.41843e+21
-51.5555  2.45476e+21
-51.4381  2.49026e+21
-51.3208  2.52334e+21
-51.2035  2.55271e+21
-51.0862  2.57672e+21
-50.9689  2.59423e+21
-50.8516  2.60444e+21
-50.7343  2.60718e+21
-50.617  2.603e+21
-50.4997  2.59287e+21
-50.3824  2.57851e+21
-50.2651  2.56172e+21
-50.1478  2.54457e+21
-50.0305  2.52911e+21
-49.9132  2.51686e+21
-49.7959  2.50969e+21
-49.6786  2.50882e+21
-49.5613  2.51498e+21
-49.444  2.52849e+21
-49.3267  2.54942e+21
-49.2094  2.57712e+21
-49.092  2.61061e+21
-48.9747  2.64844e+21
-48.8574  2.68867e+21
-48.7401  2.72953e+21
-48.6228  2.76904e+21
-48.5055  2.80567e+21
-48.3882  2.8383e+21
-48.2709  2.86633e+21
-48.1536  2.88987e+21
-48.0363  2.90979e+21
-47.919  2.92695e+21
-47.8017  2.94275e+21
-47.6844  2.95856e+21
-47.5671  2.97565e+21
-47.4498  2.99491e+21
-47.3325  3.01703e+21
-47.2152  3.04238e+21
-47.0979  3.07067e+21
-46.9806  3.10114e+21
-46.8633  3.13319e+21
-46.7459  3.16571e+21
-46.6286  3.19717e+21
-46.5113  3.2266e+21
-46.394  3.25253e+21
-46.2767  3.27441e+21
-46.1594  3.29182e+21
-46.0421  3.305e+21
-45.9248  3.31483e+21
-45.8075  3.32245e+21
-45.6902  3.32972e+21
-45.5729  3.33833e+21
-45.4556  3.35002e+21
-45.3383  3.36636e+21
-45.221  3.38813e+21
-45.1037  3.41628e+21
-44.9864  3.45101e+21
-44.8691  3.49185e+21
-44.7518  3.5379e+21
-44.6345  3.588e+21
-44.5172  3.64038e+21
-44.3998  3.69326e+21
-44.2825  3.74449e+21
-44.1652  3.79168e+21
-44.0479  3.83299e+21
-43.9306  3.86668e+21
-43.8133  3.8918e+21
-43.696  3.90806e+21
-43.5787  3.91586e+21
-43.4614  3.91643e+21
-43.3441  3.9119e+21
-43.2268  3.90396e+21
-43.1095  3.89489e+21
-42.9922  3.88651e+21
-42.8749  3.88028e+21
-42.7576  3.87719e+21
-42.6403  3.87786e+21
-42.523  3.88268e+21
-42.4057  3.89187e+21
-42.2884  3.90534e+21
-42.171  3.92375e+21
-42.0537  3.94747e+21
-41.9364  3.97682e+21
-41.8191  4.01246e+21
-41.7018  4.05427e+21
-41.5845  4.10264e+21
-41.4672  4.15725e+21
-41.3499  4.21773e+21
-41.2326  4.28353e+21
-41.1153  4.35366e+21
-40.998  4.42741e+21
-40.8807  4.50343e+21
-40.7634  4.5801e+21
-40.6461  4.65575e+21
-40.5288  4.72792e+21
-40.4115  4.7947e+21
-40.2942  4.85386e+21
-40.1769  4.90335e+21
-40.0596  4.94164e+21
-39.9423  4.968e+21
-39.825  4.98243e+21
-39.7076  4.98627e+21
-39.5903  4.98123e+21
-39.473  4.96939e+21
-39.3557  4.95373e+21
-39.2384  4.93691e+21
-39.1211  4.92145e+21
-39.0038  4.90976e+21
-38.8865  4.90349e+21
-38.7692  4.90402e+21
-38.6519  4.91263e+21
-38.5346  4.92932e+21
-38.4173  4.95429e+21
-38.3  4.987e+21
-38.1827  5.02642e+21
-38.0654  5.07111e+21
-37.9481  5.11932e+21
-37.8308  5.169e+21
-37.7135  5.21831e+21
-37.5962  5.26501e+21
-37.4789  5.30825e+21
-37.3615  5.34728e+21
-37.2442  5.38186e+21
-37.1269  5.41286e+21
-37.0096  5.44074e+21
-36.8923  5.46718e+21
-36.775  5.49325e+21
-36.6577  5.52008e+21
-36.5404  5.54851e+21
-36.4231  5.57853e+21
-36.3058  5.61043e+21
-36.1885  5.64348e+21
-36.0712  5.67682e+21
-35.9539  5.70938e+21
-35.8366  5.73972e+21
-35.7193  5.76705e+21
-35.602  5.79042e+21
-35.4847  5.80905e+21
-35.3674  5.82264e+21
-35.2501  5.83142e+21
-35.1328  5.83601e+21
-35.0154  5.83803e+21
-34.8981  5.83915e+21
-34.7808  5.84095e+21
-34.6635  5.84575e+21
-34.5462  5.85518e+21
-34.4289  5.87049e+21
-34.3116  5.8929e+21
-34.1943  5.9223e+21
-34.077  5.95842e+21
-33.9597  6.00081e+21
-33.8424  6.04761e+21
-33.7251  6.09759e+21
-33.6078  6.14905e+21
-33.4905  6.20019e+21
-33.3732  6.24942e+21
-33.2559  6.29546e+21
-33.1386  6.33708e+21
-33.0213  6.37377e+21
-32.904  6.40475e+21
-32.7867  6.43064e+21
-32.6693  6.45204e+21
-32.552  6.46983e+21
-32.4347  6.48568e+21
-32.3174  6.50042e+21
-32.2001  6.51602e+21
-32.0828  6.53348e+21
-31.9655  6.55384e+21
-31.8482  6.57776e+21
-31.7309  6.60517e+21
-31.6136  6.63659e+21
-31.4963  6.67157e+21
-31.379  6.70975e+21
-31.2617  6.75078e+21
-31.1444  6.79412e+21
-31.0271  6.83997e+21
-30.9098  6.88813e+21
-30.7925  6.93842e+21
-30.6752  6.99066e+21
-30.5579  7.04467e+21
-30.4406  7.1002e+21
-30.3232  7.15701e+21
-30.2059  7.21469e+21
-30.0886  7.27183e+21
-29.9713  7.32768e+21
-29.854  7.38072e+21
-29.7367  7.42926e+21
-29.6194  7.47212e+21
-29.5021  7.50761e+21
-29.3848  7.53487e+21
-29.2675  7.55382e+21
-29.1502  7.56401e+21
-29.0329  7.56658e+21
-28.9156  7.56305e+21
-28.7983  7.55525e+21
-28.681  7.54557e+21
-28.5637  7.5368e+21
-28.4464  7.53146e+21
-28.3291  7.53228e+21
-28.2118  7.54107e+21
-28.0944  7.55976e+21
-27.9771  7.58936e+21
-27.8598  7.62983e+21
-27.7425  7.68067e+21
-27.6252  7.73929e+21
-27.5079  7.80363e+21
-27.3906  7.86991e+21
-27.2733  7.93465e+21
-27.156  7.99424e+21
-27.0387  8.04531e+21
-26.9214  8.0862e+21
-26.8041  8.11586e+21
-26.6868  8.13441e+21
-26.5695  8.14338e+21
-26.4522  8.14476e+21
-26.3349  8.14197e+21
-26.2176  8.13801e+21
-26.1003  8.13584e+21
-25.983  8.13788e+21
-25.8657  8.14607e+21
-25.7483  8.16169e+21
-25.631  8.18527e+21
-25.5137  8.21687e+21
-25.3964  8.25471e+21
-25.2791  8.29746e+21
-25.1618  8.34243e+21
-25.0445  8.38673e+21
-24.9272  8.42757e+21
-24.8099  8.46192e+21
-24.6926  8.48775e+21
-24.5753  8.50433e+21
-24.458  8.51099e+21
-24.3407  8.50926e+21
-24.2234  8.50154e+21
-24.1061  8.49097e+21
-23.9888  8.48124e+21
-23.8715  8.47635e+21
-23.7542  8.47967e+21
-23.6369  8.49417e+21
-23.5196  8.52163e+21
-23.4023  8.56295e+21
-23.2849  8.61812e+21
-23.1676  8.68557e+21
-23.0503  8.76345e+21
-22.933  8.84759e+21
-22.8157  8.93477e+21
-22.6984  9.02026e+21
-22.5811  9.09967e+21
-22.4638  9.16903e+21
-22.3465  9.22478e+21
-22.2292  9.26548e+21
-22.1119  9.29059e+21
-21.9946  9.30096e+21
-21.8773  9.29916e+21
-21.76  9.28838e+21
-21.6427  9.27332e+21
-21.5254  9.25812e+21
-21.4081  9.24671e+21
-21.2908  9.24218e+21
-21.1735  9.24678e+21
-21.0561  9.26199e+21
-20.9388  9.28805e+21
-20.8215  9.32511e+21
-20.7042  9.37089e+21
-20.5869  9.42369e+21
-20.4696  9.48045e+21
-20.3523  9.53779e+21
-20.235  9.59213e+21
-20.1177  9.63967e+21
-20.0004  9.67737e+21
-19.8831  9.70345e+21
-19.7658  9.71642e+21
-19.6485  9.71703e+21
-19.5312  9.70726e+21
-19.4139  9.69012e+21
-19.2966  9.66941e+21
-19.1793  9.64928e+21
-19.062  9.63315e+21
-18.9447  9.62388e+21
-18.8274  9.62297e+21
-18.71  9.63067e+21
-18.5927  9.64662e+21
-18.4754  9.66922e+21
-18.3581  9.69724e+21
-18.2408  9.72783e+21
-18.1235  9.76006e+21
-18.0062  9.7923e+21
-17.8889  9.82337e+21
-17.7716  9.85285e+21
-17.6543  9.88009e+21
-17.537  9.90562e+21
-17.4197  9.92993e+21
-17.3024  9.95363e+21
-17.1851  9.97799e+21
-17.0678  1.0004e+22
-16.9505  1.00336e+22
-16.8332  1.00677e+22
-16.7159  1.0107e+22
-16.5986  1.01513e+22
-16.4813  1.01996e+22
-16.364  1.02505e+22
-16.2466  1.03015e+22
-16.1293  1.03507e+22
-16.012  1.03945e+22
-15.8947  1.04309e+22
-15.7774  1.0458e+22
-15.6601  1.04747e+22
-15.5428  1.04807e+22
-15.4255  1.04768e+22
-15.3082  1.04645e+22
-15.1909  1.04464e+22
-15.0736  1.04247e+22
-14.9563  1.04028e+22
-14.839  1.03836e+22
-14.7217  1.037e+22
-14.6044  1.03643e+22
-14.4871  1.03682e+22
-14.3698  1.03827e+22
-14.2525  1.04078e+22
-14.1352  1.04423e+22
-14.0178  1.04845e+22
-13.9005  1.05323e+22
-13.7832  1.05827e+22
-13.6659  1.06337e+22
-13.5486  1.0682e+22
-13.4313  1.07262e+22
-13.314  1.07652e+22
-13.1967  1.07981e+22
-13.0794  1.08254e+22
-12.9621  1.08474e+22
-12.8448  1.08659e+22
-12.7275  1.08823e+22
-12.6102  1.0898e+22
-12.4929  1.09144e+22
-12.3756  1.09322e+22
-12.2583  1.09524e+22
-12.141  1.09748e+22
-12.0237  1.09986e+22
-11.9064  1.10223e+22
-11.7891  1.10439e+22
-11.6718  1.10616e+22
-11.5544  1.10731e+22
-11.4371  1.10777e+22
-11.3198  1.10737e+22
-11.2025  1.10613e+22
-11.0852  1.10414e+22
-10.9679  1.10158e+22
-10.8506  1.0987e+22
-10.7333  1.09578e+22
-10.616  1.09315e+22
-10.4987  1.09112e+22
-10.3814  1.08993e+22
-10.2641  1.08977e+22
-10.1468  1.09073e+22
-10.0295  1.09281e+22
-9.91217  1.09591e+22
-9.79487  1.09984e+22
-9.67756  1.1043e+22
-9.56026  1.10899e+22
-9.44295  1.11352e+22
-9.32565  1.11749e+22
-9.20834  1.12062e+22
-9.09104  1.12262e+22
-8.97373  1.1234e+22
-8.85643  1.12286e+22
-8.73913  1.12115e+22
-8.62182  1.1185e+22
-8.50452  1.11519e+22
-8.38721  1.11164e+22
-8.26991  1.1082e+22
-8.1526  1.10531e+22
-8.03529  1.1033e+22
-7.91799  1.10241e+22
-7.80069  1.10279e+22
-7.68338  1.10446e+22
-7.56608  1.10738e+22
-7.44877  1.11136e+22
-7.33146  1.11612e+22
-7.21416  1.12133e+22
-7.09685  1.12662e+22
-6.97955  1.13163e+22
-6.86224  1.13601e+22
-6.74494  1.13964e+22
-6.62763  1.14227e+22
-6.51033  1.14393e+22
-6.39302  1.14474e+22
-6.27572  1.14489e+22
-6.15842  1.14467e+22
-6.04111  1.1444e+22
-5.92381  1.14441e+22
-5.8065  1.14501e+22
-5.68919  1.14642e+22
-5.57189  1.14875e+22
-5.45458  1.15207e+22
-5.33728  1.15626e+22
-5.21997  1.16112e+22
-5.10267  1.16639e+22
-4.98536  1.17165e+22
-4.86806  1.17652e+22
-4.75075  1.18055e+22
-4.63345  1.18332e+22
-4.51614  1.18458e+22
-4.39884  1.18409e+22
-4.28154  1.18193e+22
-4.16423  1.17815e+22
-4.04692  1.17312e+22
-3.92962  1.16727e+22
-3.81231  1.16108e+22
-3.69501  1.1551e+22
-3.5777  1.14977e+22
-3.4604  1.14552e+22
-3.34309  1.1426e+22
-3.22579  1.14114e+22
-3.10849  1.14112e+22
-2.99118  1.1424e+22
-2.87387  1.14484e+22
-2.75657  1.14813e+22
-2.63926  1.15195e+22
-2.52196  1.15594e+22
-2.40465  1.15978e+22
-2.28735  1.16313e+22
-2.17005  1.16568e+22
-2.05274  1.16734e+22
-1.93544  1.16792e+22
-1.81813  1.16746e+22
-1.70083  1.1661e+22
-1.58352  1.16406e+22
-1.46622  1.16159e+22
-1.34891  1.15901e+22
-1.2316  1.15661e+22
-1.1143  1.15459e+22
-0.996995  1.15305e+22
-0.87969  1.15204e+22
-0.762385  1.15151e+22
-0.64508  1.15135e+22
-0.527775  1.15144e+22
-0.41047  1.15168e+22
-0.293165  1.15193e+22
-0.17586  1.15216e+22
-0.058555  1.1523e+22
0.05875  1.15231e+22
0.176055  1.15222e+22
0.29336  1.152e+22
0.410665  1.15178e+22
0.52797  1.15154e+22
0.645275  1.15143e+22
0.76258  1.15157e+22
0.879885  1.15206e+22
0.99719  1.15304e+22
1.1145  1.1545e+22
1.2318  1.15646e+22
1.3491  1.15881e+22
1.46641  1.16131e+22
1.58371  1.16369e+22
1.70102  1.16565e+22
1.81832  1.16694e+22
1.93563  1.16733e+22
2.05294  1.16671e+22
2.17024  1.16503e+22
2.28754  1.16242e+22
2.40485  1.15908e+22
2.52216  1.15521e+22
2.63946  1.15125e+22
2.75677  1.14745e+22
2.87407  1.14416e+22
2.99137  1.14174e+22
3.10868  1.14043e+22
3.22599  1.14044e+22
3.34329  1.14189e+22
3.4606  1.1448e+22
3.5779  1.14901e+22
3.69521  1.15428e+22
3.81251  1.1602e+22
3.92982  1.16631e+22
4.04712  1.17209e+22
4.16443  1.17702e+22
4.28173  1.1807e+22
4.39903  1.18281e+22
4.51634  1.18321e+22
4.63364  1.18193e+22
4.75095  1.1791e+22
4.86825  1.17508e+22
4.98556  1.1702e+22
5.10286  1.16496e+22
5.22017  1.15972e+22
5.33748  1.15488e+22
5.45478  1.15073e+22
5.57209  1.14746e+22
5.68939  1.14514e+22
5.8067  1.14374e+22
5.924  1.14315e+22
6.0413  1.14313e+22
6.15861  1.14338e+22
6.27591  1.14356e+22
6.39322  1.14335e+22
6.51052  1.14249e+22
6.62783  1.14075e+22
6.74514  1.13806e+22
6.86244  1.1344e+22
6.97975  1.12992e+22
7.09705  1.12488e+22
7.21436  1.11952e+22
7.33166  1.1143e+22
7.44897  1.10953e+22
7.56627  1.10553e+22
7.68358  1.1026e+22
7.80088  1.10091e+22
7.91819  1.10051e+22
8.03549  1.10139e+22
8.1528  1.1034e+22
8.2701  1.10625e+22
8.38741  1.10964e+22
8.50471  1.11315e+22
8.62202  1.1164e+22
8.73932  1.11901e+22
8.85662  1.12063e+22
8.97393  1.1211e+22
9.09123  1.12027e+22
9.20854  1.1182e+22
9.32584  1.11503e+22
9.44315  1.11101e+22
9.56045  1.10647e+22
9.67776  1.10176e+22
9.79506  1.09731e+22
9.91237  1.09338e+22
10.0297  1.09029e+22
10.147  1.08824e+22
10.2643  1.08731e+22
10.3816  1.0875e+22
10.4989  1.0887e+22
10.6162  1.09075e+22
10.7335  1.09339e+22
10.8508  1.0963e+22
10.9681  1.09917e+22
11.0854  1.10169e+22
11.2027  1.10365e+22
11.32  1.10483e+22
11.4373  1.10518e+22
11.5546  1.10467e+22
11.6719  1.10343e+22
11.7893  1.10163e+22
11.9066  1.09937e+22
12.0239  1.09697e+22
12.1412  1.09456e+22
12.2585  1.09228e+22
12.3758  1.09022e+22
12.4931  1.08839e+22
12.6104  1.08673e+22
12.7277  1.08514e+22
12.845  1.0835e+22
12.9623  1.08162e+22
13.0796  1.07938e+22
13.1969  1.07664e+22
13.3142  1.07332e+22
13.4315  1.06942e+22
13.5488  1.06495e+22
13.6661  1.06009e+22
13.7834  1.05498e+22
13.9007  1.0499e+22
14.018  1.04511e+22
14.1354  1.04085e+22
14.2527  1.03738e+22
14.37  1.03484e+22
14.4873  1.03337e+22
14.6046  1.03294e+22
14.7219  1.03348e+22
14.8392  1.03481e+22
14.9565  1.0367e+22
15.0738  1.03886e+22
15.1911  1.04099e+22
15.3084  1.04278e+22
15.4257  1.04397e+22
15.543  1.04432e+22
15.6603  1.04368e+22
15.7776  1.04196e+22
15.8949  1.03922e+22
16.0122  1.03553e+22
16.1295  1.0311e+22
16.2468  1.02616e+22
16.3641  1.02099e+22
16.4815  1.01588e+22
16.5988  1.01098e+22
16.7161  1.00655e+22
16.8334  1.00262e+22
16.9507  9.99186e+21
17.068  9.96213e+21
17.1853  9.93586e+21
17.3026  9.91153e+21
17.4199  9.88791e+21
17.5372  9.864e+21
17.6545  9.83862e+21
17.7718  9.81156e+21
17.8891  9.78242e+21
18.0064  9.75148e+21
18.1237  9.71964e+21
18.241  9.68746e+21
18.3583  9.65674e+21
18.4756  9.62879e+21
18.5929  9.60594e+21
18.7102  9.58982e+21
18.8275  9.58159e+21
18.9449  9.58212e+21
19.0622  9.59075e+21
19.1795  9.6062e+21
19.2968  9.62552e+21
19.4141  9.64534e+21
19.5314  9.6617e+21
19.6487  9.67075e+21
19.766  9.6693e+21
19.8833  9.65584e+21
20.0006  9.62958e+21
20.1179  9.59155e+21
20.2352  9.54402e+21
20.3525  9.48997e+21
20.4698  9.43304e+21
20.5871  9.37689e+21
20.7044  9.32454e+21
20.8217  9.27922e+21
20.939  9.24281e+21
21.0563  9.2168e+21
21.1736  9.20189e+21
21.291  9.197e+21
21.4083  9.20152e+21
21.5256  9.2128e+21
21.6429  9.22747e+21
21.7602  9.24178e+21
21.8775  9.25155e+21
21.9948  9.25249e+21
22.1121  9.24125e+21
22.2294  9.21553e+21
22.3467  9.17405e+21
22.464  9.11754e+21
22.5813  9.04785e+21
22.6986  8.96819e+21
22.8159  8.88275e+21
22.9332  8.79567e+21
23.0505  8.71161e+21
23.1678  8.63421e+21
23.2851  8.56709e+21
23.4024  8.51248e+21
23.5198  8.47136e+21
23.6371  8.44422e+21
23.7544  8.42985e+21
23.8717  8.42654e+21
23.989  8.4313e+21
24.1063  8.44065e+21
24.2236  8.45086e+21
24.3409  8.45816e+21
24.4582  8.45915e+21
24.5755  8.45193e+21
24.6928  8.43495e+21
24.8101  8.40846e+21
24.9274  8.37355e+21
25.0447  8.33244e+21
25.162  8.28792e+21
25.2793  8.24295e+21
25.3966  8.20008e+21
25.5139  8.16209e+21
25.6312  8.13065e+21
25.7485  8.10689e+21
25.8658  8.09135e+21
25.9832  8.08286e+21
26.1005  8.0807e+21
26.2178  8.08284e+21
26.3351  8.08647e+21
26.4524  8.08877e+21
26.5697  8.08668e+21
26.687  8.07714e+21
26.8043  8.05806e+21
26.9216  8.02806e+21
27.0389  7.98668e+21
27.1562  7.93512e+21
27.2735  7.87545e+21
27.3908  7.81064e+21
27.5081  7.74448e+21
27.6254  7.68049e+21
27.7427  7.6222e+21
27.86  7.57202e+21
27.9773  7.53218e+21
28.0946  7.50341e+21
28.212  7.48526e+21
28.3293  7.4771e+21
28.4466  7.47687e+21
28.5639  7.48258e+21
28.6812  7.49165e+21
28.7985  7.50131e+21
28.9158  7.50913e+21
29.0331  7.51259e+21
29.1504  7.50956e+21
29.2677  7.49898e+21
29.385  7.4797e+21
29.5023  7.45182e+21
29.6196  7.41565e+21
29.7369  7.37233e+21
29.8542  7.32323e+21
29.9715  7.26989e+21
30.0888  7.21361e+21
30.2061  7.15605e+21
30.3234  7.0983e+21
30.4407  7.04127e+21
30.558  6.98579e+21
30.6754  6.93169e+21
30.7927  6.87956e+21
30.91  6.82964e+21
31.0273  6.7817e+21
31.1446  6.73598e+21
31.2619  6.69265e+21
31.3792  6.65179e+21
31.4965  6.61383e+21
31.6138  6.57914e+21
31.7311  6.54779e+21
31.8484  6.52024e+21
31.9657  6.49638e+21
32.083  6.47587e+21
32.2003  6.45826e+21
32.3176  6.44246e+21
32.4349  6.42745e+21
32.5522  6.41143e+21
32.6695  6.39339e+21
32.7868  6.37194e+21
32.9042  6.34577e+21
33.0215  6.31467e+21
33.1388  6.27803e+21
33.2561  6.23643e+21
33.3734  6.19052e+21
33.4907  6.14135e+21
33.608  6.09044e+21
33.7253  6.03932e+21
33.8426  5.98947e+21
33.9599  5.94294e+21
34.0772  5.90097e+21
34.1945  5.86502e+21
34.3118  5.83572e+21
34.4291  5.81365e+21
34.5464  5.7984e+21
34.6637  5.78917e+21
34.781  5.78437e+21
34.8983  5.78244e+21
35.0156  5.7814e+21
35.1329  5.77926e+21
35.2503  5.77459e+21
35.3676  5.76568e+21
35.4849  5.75194e+21
35.6022  5.7334e+21
35.7195  5.71004e+21
35.8368  5.68251e+21
35.9541  5.65198e+21
36.0714  5.61943e+21
36.1887  5.58604e+21
36.306  5.55307e+21
36.4233  5.52103e+21
36.5406  5.49078e+21
36.6579  5.46232e+21
36.7752  5.43522e+21
36.8925  5.40901e+21
37.0098  5.38235e+21
37.1271  5.3543e+21
37.2444  5.32322e+21
37.3617  5.28852e+21
37.479  5.24963e+21
37.5964  5.20634e+21
37.7137  5.1598e+21
37.831  5.11089e+21
37.9483  5.06159e+21
38.0656  5.01389e+21
38.1829  4.96965e+21
38.3002  4.93081e+21
38.4175  4.89871e+21
38.5348  4.87412e+21
38.6521  4.8579e+21
38.7694  4.84976e+21
38.8867  4.84945e+21
39.004  4.85582e+21
39.1213  4.86768e+21
39.2386  4.88311e+21
39.3559  4.89992e+21
39.4732  4.91531e+21
39.5905  4.9268e+21
39.7078  4.93163e+21
39.8251  4.92745e+21
39.9425  4.91266e+21
40.0598  4.88598e+21
40.1771  4.84737e+21
40.2944  4.79787e+21
40.4117  4.73873e+21
40.529  4.67182e+21
40.6463  4.59965e+21
40.7636  4.52433e+21
40.8809  4.44794e+21
40.9982  4.3724e+21
41.1155  4.29898e+21
41.2328  4.22922e+21
41.3501  4.16393e+21
41.4674  4.10384e+21
41.5847  4.04977e+21
41.702  4.00182e+21
41.8193  3.96046e+21
41.9366  3.92532e+21
42.0539  3.89632e+21
42.1712  3.87309e+21
42.2885  3.85484e+21
42.4059  3.84162e+21
42.5232  3.83266e+21
42.6405  3.82803e+21
42.7578  3.82744e+21
42.8751  3.83055e+21
42.9924  3.83686e+21
43.1097  3.84526e+21
43.227  3.85418e+21
43.3443  3.86206e+21
43.4616  3.86653e+21
43.5789  3.86579e+21
43.6962  3.85774e+21
43.8135  3.84145e+21
43.9308  3.81626e+21
44.0481  3.78263e+21
44.1654  3.74138e+21
44.2827  3.69438e+21
44.4  3.64347e+21
44.5173  3.59099e+21
44.6347  3.53906e+21
44.752  3.48943e+21
44.8693  3.44379e+21
44.9866  3.40357e+21
45.1039  3.36946e+21
45.2212  3.34162e+21
45.3385  3.32017e+21
45.4558  3.30429e+21
45.5731  3.29293e+21
45.6904  3.28465e+21
45.8077  3.27754e+21
45.925  3.27007e+21
46.0423  3.26042e+21
46.1596  3.24731e+21
46.2769  3.23005e+21
46.3942  3.20822e+21
46.5115  3.18243e+21
46.6288  3.15322e+21
46.7461  3.12185e+21
46.8634  3.0897e+21
46.9808  3.05766e+21
47.0981  3.02739e+21
47.2154  2.99928e+21
47.3327  2.97416e+21
47.45  2.9521e+21
47.5673  2.93284e+21
47.6846  2.91594e+21
47.8019  2.90018e+21
47.9192  2.88435e+21
48.0365  2.86729e+21
48.1538  2.84744e+21
48.2711  2.82402e+21
48.3884  2.79602e+21
48.5057  2.76363e+21
48.623  2.72723e+21
48.7403  2.68806e+21
48.8576  2.64756e+21
48.9749  2.6077e+21
49.0922  2.5703e+21
49.2095  2.53726e+21
49.3269  2.51001e+21
49.4442  2.48941e+21
49.5615  2.47611e+21
49.6788  2.47028e+21
49.7961  2.47149e+21
49.9134  2.47867e+21
50.0307  2.49092e+21
50.148  2.50649e+21
50.2653  2.52367e+21
50.3826  2.54051e+21
50.4999  2.55484e+21
50.6172  2.56496e+21
50.7345  2.56921e+21
50.8518  2.5665e+21
