#S 1 spectral density
#N 2
#UFWHM 36.9511
#L  abscissas [um]  spectral density
-58.5938  3.39144e+20
-58.4764  3.33831e+20
-58.3591  3.27157e+20
-58.2418  3.20209e+20
-58.1245  3.14022e+20
-58.0072  3.09575e+20
-57.8899  3.07582e+20
-57.7726  3.08682e+20
-57.6553  3.13226e+20
-57.538  3.2137e+20
-57.4207  3.32952e+20
-57.3034  3.47553e+20
-57.1861  3.64501e+20
-57.0688  3.82723e+20
-56.9515  4.00965e+20
-56.8342  4.18023e+20
-56.7169  4.32775e+20
-56.5996  4.44353e+20
-56.4823  4.52393e+20
-56.365  4.57033e+20
-56.2477  4.58815e+20
-56.1303  4.58757e+20
-56.013  4.57915e+20
-55.8957  4.57382e+20
-55.7784  4.57857e+20
-55.6611  4.5987e+20
-55.5438  4.63395e+20
-55.4265  4.6786e+20
-55.3092  4.72679e+20
-55.1919  4.76827e+20
-55.0746  4.79477e+20
-54.9573  4.79885e+20
-54.84  4.77503e+20
-54.7227  4.7232e+20
-54.6054  4.64501e+20
-54.4881  4.54693e+20
-54.3708  4.43943e+20
-54.2535  4.33246e+20
-54.1362  4.23857e+20
-54.0189  4.17021e+20
-53.9016  4.13647e+20
-53.7842  4.14432e+20
-53.6669  4.19599e+20
-53.5496  4.28988e+20
-53.4323  4.42018e+20
-53.315  4.57698e+20
-53.1977  4.74823e+20
-53.0804  4.92045e+20
-52.9631  5.08202e+20
-52.8458  5.22173e+20
-52.7285  5.33337e+20
-52.6112  5.41351e+20
-52.4939  5.46554e+20
-52.3766  5.49327e+20
-52.2593  5.50669e+20
-52.142  5.5168e+20
-52.0247  5.53312e+20
-51.9074  5.56733e+20
-51.7901  5.62363e+20
-51.6728  5.70443e+20
-51.5555  5.80789e+20
-51.4381  5.92447e+20
-51.3208  6.04344e+20
-51.2035  6.15006e+20
-51.0862  6.23236e+20
-50.9689  6.2795e+20
-50.8516  6.28451e+20
-50.7343  6.24791e+20
-50.617  6.17454e+20
-50.4997  6.07337e+20
-50.3824  5.95799e+20
-50.2651  5.84112e+20
-50.1478  5.73529e+20
-50.0305  5.65112e+20
-49.9132  5.59367e+20
-49.7959  5.56597e+20
-49.6786  5.56776e+20
-49.5613  5.59549e+20
-49.444  5.64271e+20
-49.3267  5.70286e+20
-49.2094  5.76672e+20
-49.092  5.82716e+20
-48.9747  5.87164e+20
-48.8574  5.8922e+20
-48.7401  5.88338e+20
-48.6228  5.8386e+20
-48.5055  5.75725e+20
-48.3882  5.64311e+20
-48.2709  5.50324e+20
-48.1536  5.34677e+20
-48.0363  5.18728e+20
-47.919  5.03551e+20
-47.8017  4.90293e+20
-47.6844  4.79574e+20
-47.5671  4.71756e+20
-47.4498  4.66829e+20
-47.3325  4.64297e+20
-47.2152  4.63786e+20
-47.0979  4.64547e+20
-46.9806  4.65969e+20
-46.8633  4.6784e+20
-46.7459  4.69904e+20
-46.6286  4.72358e+20
-46.5113  4.7549e+20
-46.394  4.7998e+20
-46.2767  4.86587e+20
-46.1594  4.96088e+20
-46.0421  5.09375e+20
-45.9248  5.26955e+20
-45.8075  5.49037e+20
-45.6902  5.75393e+20
-45.5729  6.05237e+20
-45.4556  6.37164e+20
-45.3383  6.69458e+20
-45.221  7.00063e+20
-45.1037  7.27107e+20
-44.9864  7.4906e+20
-44.8691  7.64812e+20
-44.7518  7.73991e+20
-44.6345  7.7679e+20
-44.5172  7.74205e+20
-44.3998  7.67579e+20
-44.2825  7.58142e+20
-44.1652  7.4711e+20
-44.0479  7.35737e+20
-43.9306  7.2448e+20
-43.8133  7.13645e+20
-43.696  7.033e+20
-43.5787  6.93135e+20
-43.4614  6.82742e+20
-43.3441  6.71738e+20
-43.2268  6.59549e+20
-43.1095  6.45843e+20
-42.9922  6.30224e+20
-42.8749  6.12412e+20
-42.7576  5.92437e+20
-42.6403  5.70565e+20
-42.523  5.47448e+20
-42.4057  5.24159e+20
-42.2884  5.01936e+20
-42.171  4.82351e+20
-42.0537  4.66959e+20
-41.9364  4.57101e+20
-41.8191  4.53676e+20
-41.7018  4.56947e+20
-41.5845  4.66792e+20
-41.4672  4.82455e+20
-41.3499  5.02942e+20
-41.2326  5.26929e+20
-41.1153  5.53243e+20
-40.998  5.80837e+20
-40.8807  6.08972e+20
-40.7634  6.37048e+20
-40.6461  6.64775e+20
-40.5288  6.92025e+20
-40.4115  7.19033e+20
-40.2942  7.46078e+20
-40.1769  7.73514e+20
-40.0596  8.01924e+20
-39.9423  8.31783e+20
-39.825  8.63835e+20
-39.7076  8.984e+20
-39.5903  9.3553e+20
-39.473  9.74509e+20
-39.3557  1.01427e+21
-39.2384  1.05304e+21
-39.1211  1.08832e+21
-39.0038  1.11776e+21
-38.8865  1.13885e+21
-38.7692  1.14977e+21
-38.6519  1.14958e+21
-38.5346  1.13827e+21
-38.4173  1.11721e+21
-38.3  1.08864e+21
-38.1827  1.05571e+21
-38.0654  1.02187e+21
-37.9481  9.90853e+20
-37.8308  9.65674e+20
-37.7135  9.49104e+20
-37.5962  9.42632e+20
-37.4789  9.46987e+20
-37.3615  9.61954e+20
-37.2442  9.86341e+20
-37.1269  1.01831e+21
-37.0096  1.05526e+21
-36.8923  1.09463e+21
-36.775  1.13369e+21
-36.6577  1.17005e+21
-36.5404  1.20174e+21
-36.4231  1.22761e+21
-36.3058  1.24741e+21
-36.1885  1.26156e+21
-36.0712  1.27134e+21
-35.9539  1.27851e+21
-35.8366  1.28506e+21
-35.7193  1.29316e+21
-35.602  1.30454e+21
-35.4847  1.32048e+21
-35.3674  1.3416e+21
-35.2501  1.368e+21
-35.1328  1.39929e+21
-35.0154  1.43447e+21
-34.8981  1.47251e+21
-34.7808  1.51214e+21
-34.6635  1.55205e+21
-34.5462  1.59141e+21
-34.4289  1.62922e+21
-34.3116  1.66512e+21
-34.1943  1.69905e+21
-34.077  1.7314e+21
-33.9597  1.76292e+21
-33.8424  1.79462e+21
-33.7251  1.8277e+21
-33.6078  1.86341e+21
-33.4905  1.90269e+21
-33.3732  1.94606e+21
-33.2559  1.99383e+21
-33.1386  2.04523e+21
-33.0213  2.09938e+21
-32.904  2.15449e+21
-32.7867  2.20897e+21
-32.6693  2.26094e+21
-32.552  2.30875e+21
-32.4347  2.35146e+21
-32.3174  2.38849e+21
-32.2001  2.42003e+21
-32.0828  2.44702e+21
-31.9655  2.47089e+21
-31.8482  2.49364e+21
-31.7309  2.51739e+21
-31.6136  2.54451e+21
-31.4963  2.57682e+21
-31.379  2.61603e+21
-31.2617  2.66311e+21
-31.1444  2.71821e+21
-31.0271  2.78099e+21
-30.9098  2.85016e+21
-30.7925  2.92406e+21
-30.6752  3.00058e+21
-30.5579  3.07767e+21
-30.4406  3.15335e+21
-30.3232  3.22597e+21
-30.2059  3.29451e+21
-30.0886  3.35866e+21
-29.9713  3.41813e+21
-29.854  3.47381e+21
-29.7367  3.52632e+21
-29.6194  3.57669e+21
-29.5021  3.62593e+21
-29.3848  3.6753e+21
-29.2675  3.72559e+21
-29.1502  3.77744e+21
-29.0329  3.83107e+21
-28.9156  3.88706e+21
-28.7983  3.94493e+21
-28.681  4.00453e+21
-28.5637  4.06574e+21
-28.4464  4.1283e+21
-28.3291  4.19208e+21
-28.2118  4.2571e+21
-28.0944  4.3239e+21
-27.9771  4.39272e+21
-27.8598  4.4638e+21
-27.7425  4.53747e+21
-27.6252  4.61363e+21
-27.5079  4.69161e+21
-27.3906  4.77049e+21
-27.2733  4.84895e+21
-27.156  4.92589e+21
-27.0387  4.99974e+21
-26.9214  5.06969e+21
-26.8041  5.135e+21
-26.6868  5.19584e+21
-26.5695  5.25252e+21
-26.4522  5.30577e+21
-26.3349  5.3569e+21
-26.2176  5.40689e+21
-26.1003  5.45734e+21
-25.983  5.50962e+21
-25.8657  5.56522e+21
-25.7483  5.62552e+21
-25.631  5.69211e+21
-25.5137  5.76604e+21
-25.3964  5.84821e+21
-25.2791  5.93835e+21
-25.1618  6.03625e+21
-25.0445  6.14006e+21
-24.9272  6.24762e+21
-24.8099  6.35568e+21
-24.6926  6.46164e+21
-24.5753  6.56286e+21
-24.458  6.65723e+21
-24.3407  6.74353e+21
-24.2234  6.82266e+21
-24.1061  6.89564e+21
-23.9888  6.96532e+21
-23.8715  7.03501e+21
-23.7542  7.10876e+21
-23.6369  7.19008e+21
-23.5196  7.28241e+21
-23.4023  7.38868e+21
-23.2849  7.50987e+21
-23.1676  7.64573e+21
-23.0503  7.79467e+21
-22.933  7.95317e+21
-22.8157  8.11625e+21
-22.6984  8.2778e+21
-22.5811  8.43101e+21
-22.4638  8.56995e+21
-22.3465  8.68852e+21
-22.2292  8.78316e+21
-22.1119  8.85166e+21
-21.9946  8.89532e+21
-21.8773  8.9168e+21
-21.76  8.92132e+21
-21.6427  8.91581e+21
-21.5254  8.90757e+21
-21.4081  8.9045e+21
-21.2908  8.9137e+21
-21.1735  8.94109e+21
-21.0561  8.99118e+21
-20.9388  9.06682e+21
-20.8215  9.16889e+21
-20.7042  9.29578e+21
-20.5869  9.44389e+21
-20.4696  9.60842e+21
-20.3523  9.78242e+21
-20.235  9.95833e+21
-20.1177  1.01275e+22
-20.0004  1.02827e+22
-19.8831  1.04179e+22
-19.7658  1.05285e+22
-19.6485  1.06127e+22
-19.5312  1.06721e+22
-19.4139  1.07102e+22
-19.2966  1.07329e+22
-19.1793  1.07481e+22
-19.062  1.07638e+22
-18.9447  1.07879e+22
-18.8274  1.08272e+22
-18.71  1.08877e+22
-18.5927  1.09722e+22
-18.4754  1.10824e+22
-18.3581  1.12177e+22
-18.2408  1.13759e+22
-18.1235  1.15529e+22
-18.0062  1.17438e+22
-17.8889  1.19427e+22
-17.7716  1.21443e+22
-17.6543  1.23423e+22
-17.537  1.25324e+22
-17.4197  1.27103e+22
-17.3024  1.28744e+22
-17.1851  1.30237e+22
-17.0678  1.31588e+22
-16.9505  1.32818e+22
-16.8332  1.33954e+22
-16.7159  1.35022e+22
-16.5986  1.36045e+22
-16.4813  1.37038e+22
-16.364  1.38008e+22
-16.2466  1.38948e+22
-16.1293  1.3985e+22
-16.012  1.40685e+22
-15.8947  1.41432e+22
-15.7774  1.42074e+22
-15.6601  1.42595e+22
-15.5428  1.42989e+22
-15.4255  1.43257e+22
-15.3082  1.43416e+22
-15.1909  1.435e+22
-15.0736  1.43534e+22
-14.9563  1.4357e+22
-14.839  1.43649e+22
-14.7217  1.43825e+22
-14.6044  1.44138e+22
-14.4871  1.44631e+22
-14.3698  1.4533e+22
-14.2525  1.46248e+22
-14.1352  1.47386e+22
-14.0178  1.48737e+22
-13.9005  1.50268e+22
-13.7832  1.51946e+22
-13.6659  1.5373e+22
-13.5486  1.55573e+22
-13.4313  1.57432e+22
-13.314  1.59266e+22
-13.1967  1.61043e+22
-13.0794  1.62747e+22
-12.9621  1.64357e+22
-12.8448  1.6588e+22
-12.7275  1.67312e+22
-12.6102  1.6867e+22
-12.4929  1.69965e+22
-12.3756  1.7121e+22
-12.2583  1.72413e+22
-12.141  1.7358e+22
-12.0237  1.74702e+22
-11.9064  1.75762e+22
-11.7891  1.76742e+22
-11.6718  1.77611e+22
-11.5544  1.78343e+22
-11.4371  1.78924e+22
-11.3198  1.79325e+22
-11.2025  1.79552e+22
-11.0852  1.79613e+22
-10.9679  1.79537e+22
-10.8506  1.7936e+22
-10.7333  1.7913e+22
-10.616  1.78896e+22
-10.4987  1.78722e+22
-10.3814  1.78645e+22
-10.2641  1.78712e+22
-10.1468  1.78945e+22
-10.0295  1.79361e+22
-9.91217  1.79951e+22
-9.79487  1.807e+22
-9.67756  1.81573e+22
-9.56026  1.82524e+22
-9.44295  1.83501e+22
-9.32565  1.84458e+22
-9.20834  1.85342e+22
-9.09104  1.86111e+22
-8.97373  1.86744e+22
-8.85643  1.87222e+22
-8.73913  1.87553e+22
-8.62182  1.87754e+22
-8.50452  1.8786e+22
-8.38721  1.87917e+22
-8.26991  1.87969e+22
-8.1526  1.8807e+22
-8.03529  1.88261e+22
-7.91799  1.8858e+22
-7.80069  1.89052e+22
-7.68338  1.89685e+22
-7.56608  1.9048e+22
-7.44877  1.91419e+22
-7.33146  1.92471e+22
-7.21416  1.93595e+22
-7.09685  1.94748e+22
-6.97955  1.95882e+22
-6.86224  1.96956e+22
-6.74494  1.97948e+22
-6.62763  1.98826e+22
-6.51033  1.99599e+22
-6.39302  2.00274e+22
-6.27572  2.00882e+22
-6.15842  2.01461e+22
-6.04111  2.02051e+22
-5.92381  2.02691e+22
-5.8065  2.03423e+22
-5.68919  2.04258e+22
-5.57189  2.05213e+22
-5.45458  2.06272e+22
-5.33728  2.07413e+22
-5.21997  2.08588e+22
-5.10267  2.09744e+22
-4.98536  2.10816e+22
-4.86806  2.1174e+22
-4.75075  2.12451e+22
-4.63345  2.12901e+22
-4.51614  2.13056e+22
-4.39884  2.12903e+22
-4.28154  2.12458e+22
-4.16423  2.11754e+22
-4.04692  2.1085e+22
-3.92962  2.0982e+22
-3.81231  2.08748e+22
-3.69501  2.07715e+22
-3.5777  2.06797e+22
-3.4604  2.06061e+22
-3.34309  2.05549e+22
-3.22579  2.05286e+22
-3.10849  2.05279e+22
-2.99118  2.05515e+22
-2.87387  2.05971e+22
-2.75657  2.0661e+22
-2.63926  2.07385e+22
-2.52196  2.08246e+22
-2.40465  2.09142e+22
-2.28735  2.10023e+22
-2.17005  2.10846e+22
-2.05274  2.11588e+22
-1.93544  2.1222e+22
-1.81813  2.12752e+22
-1.70083  2.13189e+22
-1.58352  2.1356e+22
-1.46622  2.13901e+22
-1.34891  2.14248e+22
-1.2316  2.14632e+22
-1.1143  2.15076e+22
-0.996995  2.15585e+22
-0.87969  2.16159e+22
-0.762385  2.1677e+22
-0.64508  2.17396e+22
-0.527775  2.17994e+22
-0.41047  2.18528e+22
-0.293165  2.18961e+22
-0.17586  2.19265e+22
-0.058555  2.1942e+22
0.05875  2.19415e+22
0.176055  2.19248e+22
0.29336  2.18931e+22
0.410665  2.18486e+22
0.52797  2.1794e+22
0.645275  2.17329e+22
0.76258  2.16692e+22
0.879885  2.16065e+22
0.99719  2.15479e+22
1.1145  2.14953e+22
1.2318  2.14496e+22
1.3491  2.14101e+22
1.46641  2.1374e+22
1.58371  2.13385e+22
1.70102  2.12998e+22
1.81832  2.12549e+22
1.93563  2.12007e+22
2.05294  2.11363e+22
2.17024  2.10617e+22
2.28754  2.09787e+22
2.40485  2.08901e+22
2.52216  2.08002e+22
2.63946  2.07142e+22
2.75677  2.06364e+22
2.87407  2.05727e+22
2.99137  2.05268e+22
3.10868  2.05029e+22
3.22599  2.05032e+22
3.34329  2.05292e+22
3.4606  2.058e+22
3.5779  2.06529e+22
3.69521  2.07434e+22
3.81251  2.08455e+22
3.92982  2.09512e+22
4.04712  2.10525e+22
4.16443  2.11412e+22
4.28173  2.12099e+22
4.39903  2.12527e+22
4.51634  2.12661e+22
4.63364  2.12492e+22
4.75095  2.12026e+22
4.86825  2.11302e+22
4.98556  2.10369e+22
5.10286  2.09289e+22
5.22017  2.08128e+22
5.33748  2.06948e+22
5.45478  2.05806e+22
5.57209  2.04745e+22
5.68939  2.03786e+22
5.8067  2.02945e+22
5.924  2.0221e+22
6.0413  2.01564e+22
6.15861  2.00964e+22
6.27591  2.00375e+22
6.39322  1.99754e+22
6.51052  1.99065e+22
6.62783  1.98276e+22
6.74514  1.97379e+22
6.86244  1.96377e+22
6.97975  1.95286e+22
7.09705  1.94137e+22
7.21436  1.92973e+22
7.33166  1.91837e+22
7.44897  1.90774e+22
7.56627  1.89828e+22
7.68358  1.89025e+22
7.80088  1.88384e+22
7.91819  1.87905e+22
8.03549  1.87582e+22
8.1528  1.87387e+22
8.2701  1.8728e+22
8.38741  1.8722e+22
8.50471  1.87159e+22
8.62202  1.87043e+22
8.73932  1.86833e+22
8.85662  1.86496e+22
8.97393  1.8601e+22
9.09123  1.85371e+22
9.20854  1.84592e+22
9.32584  1.83705e+22
9.44315  1.82743e+22
9.56045  1.81759e+22
9.67776  1.80805e+22
9.79506  1.7993e+22
9.91237  1.7918e+22
10.0297  1.78588e+22
10.147  1.78172e+22
10.2643  1.77939e+22
10.3816  1.77869e+22
10.4989  1.77944e+22
10.6162  1.78116e+22
10.7335  1.78342e+22
10.8508  1.78564e+22
10.9681  1.78732e+22
11.0854  1.78799e+22
11.2027  1.78724e+22
11.32  1.78481e+22
11.4373  1.78062e+22
11.5546  1.77471e+22
11.6719  1.7672e+22
11.7893  1.75836e+22
11.9066  1.74843e+22
12.0239  1.73765e+22
12.1412  1.72631e+22
12.2585  1.71452e+22
12.3758  1.70236e+22
12.4931  1.68979e+22
12.6104  1.67672e+22
12.7277  1.66305e+22
12.845  1.64866e+22
12.9623  1.63336e+22
13.0796  1.61717e+22
13.1969  1.60011e+22
13.3142  1.58227e+22
13.4315  1.56389e+22
13.5488  1.5453e+22
13.6661  1.52685e+22
13.7834  1.509e+22
13.9007  1.4922e+22
14.018  1.47691e+22
14.1354  1.46341e+22
14.2527  1.452e+22
14.37  1.44283e+22
14.4873  1.43584e+22
14.6046  1.43093e+22
14.7219  1.42778e+22
14.8392  1.42603e+22
14.9565  1.42525e+22
15.0738  1.42489e+22
15.1911  1.42455e+22
15.3084  1.42372e+22
15.4257  1.4221e+22
15.543  1.4194e+22
15.6603  1.41546e+22
15.7776  1.41025e+22
15.8949  1.40381e+22
16.0122  1.39627e+22
16.1295  1.38787e+22
16.2468  1.37883e+22
16.3641  1.36934e+22
16.4815  1.35959e+22
16.5988  1.34959e+22
16.7161  1.33924e+22
16.8334  1.32849e+22
16.9507  1.31704e+22
17.068  1.30465e+22
17.1853  1.29104e+22
17.3026  1.27603e+22
17.4199  1.25957e+22
17.5372  1.24174e+22
17.6545  1.2227e+22
17.7718  1.20291e+22
17.8891  1.18281e+22
18.0064  1.16294e+22
18.1237  1.1439e+22
18.241  1.12629e+22
18.3583  1.11053e+22
18.4756  1.09705e+22
18.5929  1.08607e+22
18.7102  1.07767e+22
18.8275  1.07165e+22
18.9449  1.06769e+22
19.0622  1.06527e+22
19.1795  1.06363e+22
19.2968  1.06205e+22
19.4141  1.05969e+22
19.5314  1.05581e+22
19.6487  1.04983e+22
19.766  1.04134e+22
19.8833  1.03028e+22
20.0006  1.01678e+22
20.1179  1.00128e+22
20.2352  9.84441e+21
20.3525  9.6698e+21
20.4698  9.49755e+21
20.5871  9.33486e+21
20.7044  9.18829e+21
20.8217  9.06332e+21
20.939  8.96316e+21
21.0563  8.88904e+21
21.1736  8.84036e+21
21.291  8.81429e+21
21.4083  8.80572e+21
21.5256  8.80952e+21
21.6429  8.81784e+21
21.7602  8.82331e+21
21.8775  8.81823e+21
21.9948  8.79611e+21
22.1121  8.75183e+21
22.2294  8.68236e+21
22.3467  8.58681e+21
22.464  8.46766e+21
22.5813  8.32842e+21
22.6986  8.17477e+21
22.8159  8.01309e+21
22.9332  7.85043e+21
23.0505  7.6922e+21
23.1678  7.5438e+21
23.2851  7.40854e+21
23.4024  7.28822e+21
23.5198  7.18271e+21
23.6371  7.09082e+21
23.7544  7.01016e+21
23.8717  6.93686e+21
23.989  6.86748e+21
24.1063  6.79811e+21
24.2236  6.72536e+21
24.3409  6.64657e+21
24.4582  6.56029e+21
24.5755  6.46629e+21
24.6928  6.36541e+21
24.8101  6.25971e+21
24.9274  6.15209e+21
25.0447  6.04518e+21
25.162  5.94228e+21
25.2793  5.84542e+21
25.3966  5.75602e+21
25.5139  5.67497e+21
25.6312  5.60205e+21
25.7485  5.53649e+21
25.8658  5.47725e+21
25.9832  5.42288e+21
26.1005  5.37156e+21
26.2178  5.32229e+21
26.3351  5.27327e+21
26.4524  5.22321e+21
26.5697  5.17075e+21
26.687  5.11496e+21
26.8043  5.0549e+21
26.9216  4.99023e+21
27.0389  4.92086e+21
27.1562  4.84771e+21
27.2735  4.77141e+21
27.3908  4.69345e+21
27.5081  4.61517e+21
27.6254  4.5379e+21
27.7427  4.46242e+21
27.86  4.38951e+21
27.9773  4.31925e+21
28.0946  4.25131e+21
28.212  4.18533e+21
28.3293  4.12112e+21
28.4466  4.05824e+21
28.5639  3.99653e+21
28.6812  3.93605e+21
28.7985  3.87718e+21
28.9158  3.8201e+21
29.0331  3.76492e+21
29.1504  3.71185e+21
29.2677  3.66064e+21
29.385  3.61089e+21
29.5023  3.562e+21
29.6196  3.51318e+21
29.7369  3.46318e+21
29.8542  3.41122e+21
29.9715  3.35613e+21
30.0888  3.29708e+21
30.2061  3.23366e+21
30.3234  3.16575e+21
30.4407  3.09372e+21
30.558  3.01895e+21
30.6754  2.94277e+21
30.7927  2.86726e+21
30.91  2.7945e+21
31.0273  2.72641e+21
31.1446  2.66478e+21
31.2619  2.61072e+21
31.3792  2.56474e+21
31.4965  2.52643e+21
31.6138  2.49498e+21
31.7311  2.46871e+21
31.8484  2.44569e+21
31.9657  2.42354e+21
32.083  2.40032e+21
32.2003  2.37389e+21
32.3176  2.34285e+21
32.4349  2.30644e+21
32.5522  2.26437e+21
32.6695  2.21727e+21
32.7868  2.16613e+21
32.9042  2.11245e+21
33.0215  2.05826e+21
33.1388  2.00507e+21
33.2561  1.95461e+21
33.3734  1.90775e+21
33.4907  1.8652e+21
33.608  1.8268e+21
33.7253  1.79185e+21
33.8426  1.7595e+21
33.9599  1.72848e+21
34.0772  1.6976e+21
34.1945  1.66584e+21
34.3118  1.6325e+21
34.4291  1.59719e+21
34.5464  1.55997e+21
34.6637  1.52139e+21
34.781  1.48215e+21
34.8983  1.44332e+21
35.0156  1.40605e+21
35.1329  1.37156e+21
35.2503  1.3411e+21
35.3676  1.3153e+21
35.4849  1.29494e+21
35.6022  1.27972e+21
35.7195  1.26888e+21
35.8368  1.26121e+21
35.9541  1.25509e+21
36.0714  1.24828e+21
36.1887  1.23876e+21
36.306  1.22487e+21
36.4233  1.2054e+21
36.5406  1.17987e+21
36.6579  1.14847e+21
36.7752  1.11268e+21
36.8925  1.07414e+21
37.0098  1.03538e+21
37.1271  9.99159e+20
37.2444  9.67984e+20
37.3617  9.44446e+20
37.479  9.30311e+20
37.5964  9.2671e+20
37.7137  9.33927e+20
37.831  9.5113e+20
37.9483  9.76776e+20
38.0656  1.00816e+21
38.1829  1.04219e+21
38.3002  1.07518e+21
38.4175  1.10369e+21
38.5348  1.12466e+21
38.6521  1.13581e+21
38.7694  1.13596e+21
38.8867  1.125e+21
39.004  1.10396e+21
39.1213  1.07474e+21
39.2386  1.03972e+21
39.3559  1.00146e+21
39.4732  9.6212e+20
39.5905  9.23613e+20
39.7078  8.87028e+20
39.8251  8.52991e+20
39.9425  8.21473e+20
40.0598  7.91906e+20
40.1771  7.63947e+20
40.2944  7.36889e+20
40.4117  7.10179e+20
40.529  6.83377e+20
40.6463  6.56419e+20
40.7636  6.28979e+20
40.8809  6.01216e+20
40.9982  5.73462e+20
41.1155  5.46193e+20
41.2328  5.20262e+20
41.3501  4.96618e+20
41.4674  4.7661e+20
41.5847  4.61387e+20
41.702  4.51952e+20
41.8193  4.49143e+20
41.9366  4.5296e+20
42.0539  4.63167e+20
42.1712  4.78815e+20
42.2885  4.98618e+20
42.4059  5.20939e+20
42.5232  5.44288e+20
42.6405  5.67373e+20
42.7578  5.89218e+20
42.8751  6.09149e+20
42.9924  6.2686e+20
43.1097  6.42452e+20
43.227  6.56118e+20
43.3443  6.6828e+20
43.4616  6.79363e+20
43.5789  6.89784e+20
43.6962  7.00006e+20
43.8135  7.10471e+20
43.9308  7.21433e+20
44.0481  7.3282e+20
44.1654  7.4428e+20
44.2827  7.55261e+20
44.4  7.64722e+20
44.5173  7.71357e+20
44.6347  7.73884e+20
44.752  7.70872e+20
44.8693  7.61541e+20
44.9866  7.45689e+20
45.1039  7.23644e+20
45.2212  6.96419e+20
45.3385  6.6577e+20
45.4558  6.33507e+20
45.5731  6.01689e+20
45.6904  5.72045e+20
45.8077  5.45862e+20
45.925  5.23981e+20
46.0423  5.06597e+20
46.1596  4.93498e+20
46.2769  4.84199e+20
46.3942  4.77714e+20
46.5115  4.73389e+20
46.6288  4.70287e+20
46.7461  4.67917e+20
46.8634  4.65911e+20
46.9808  4.64111e+20
47.0981  4.62683e+20
47.2154  4.62e+20
47.3327  4.62575e+20
47.45  4.65192e+20
47.5673  4.70164e+20
47.6846  4.78047e+20
47.8019  4.88786e+20
47.9192  5.02057e+20
48.0365  5.17198e+20
48.1538  5.33147e+20
48.2711  5.4867e+20
48.3884  5.62562e+20
48.5057  5.73873e+20
48.623  5.81903e+20
48.7403  5.86281e+20
48.8576  5.87098e+20
48.9749  5.84889e+20
49.0922  5.80438e+20
49.2095  5.74468e+20
49.3269  5.681e+20
49.4442  5.62123e+20
49.5615  5.57412e+20
49.6788  5.54747e+20
49.7961  5.54678e+20
49.9134  5.57382e+20
50.0307  5.63161e+20
50.148  5.71613e+20
50.2653  5.8217e+20
50.3826  5.93787e+20
50.4999  6.05231e+20
50.6172  6.15186e+20
50.7345  6.22378e+20
50.8518  6.25838e+20
50.9691  6.25154e+20
