#S 1 spectral density
#N 2
#UFWHM 25.5725
#L  abscissas [um]  spectral density
-58.5938  8.34772e+19
-58.4764  8.0328e+19
-58.3591  7.87224e+19
-58.2418  7.85013e+19
-58.1245  7.92938e+19
-58.0072  8.07086e+19
-57.8899  8.23983e+19
-57.7726  8.41748e+19
-57.6553  8.61193e+19
-57.538  8.85424e+19
-57.4207  9.18935e+19
-57.3034  9.66176e+19
-57.1861  1.03048e+20
-57.0688  1.11174e+20
-56.9515  1.20697e+20
-56.8342  1.30932e+20
-56.7169  1.41125e+20
-56.5996  1.50281e+20
-56.4823  1.57781e+20
-56.365  1.63145e+20
-56.2477  1.66285e+20
-56.1303  1.67409e+20
-56.013  1.67135e+20
-55.8957  1.65996e+20
-55.7784  1.64687e+20
-55.6611  1.63562e+20
-55.5438  1.62907e+20
-55.4265  1.62775e+20
-55.3092  1.6301e+20
-55.1919  1.63273e+20
-55.0746  1.63338e+20
-54.9573  1.62783e+20
-54.84  1.6145e+20
-54.7227  1.5904e+20
-54.6054  1.55548e+20
-54.4881  1.50949e+20
-54.3708  1.45316e+20
-54.2535  1.38921e+20
-54.1362  1.32109e+20
-54.0189  1.25413e+20
-53.9016  1.19398e+20
-53.7842  1.1475e+20
-53.6669  1.12111e+20
-53.5496  1.12037e+20
-53.4323  1.14898e+20
-53.315  1.20884e+20
-53.1977  1.29872e+20
-53.0804  1.41534e+20
-52.9631  1.5534e+20
-52.8458  1.70582e+20
-52.7285  1.86473e+20
-52.6112  2.02297e+20
-52.4939  2.17326e+20
-52.3766  2.31026e+20
-52.2593  2.42896e+20
-52.142  2.52738e+20
-52.0247  2.60321e+20
-51.9074  2.65534e+20
-51.7901  2.6822e+20
-51.6728  2.68391e+20
-51.5555  2.65812e+20
-51.4381  2.60325e+20
-51.3208  2.51846e+20
-51.2035  2.40306e+20
-51.0862  2.26009e+20
-50.9689  2.09349e+20
-50.8516  1.91135e+20
-50.7343  1.72284e+20
-50.617  1.53956e+20
-50.4997  1.37273e+20
-50.3824  1.23115e+20
-50.2651  1.12173e+20
-50.1478  1.04737e+20
-50.0305  1.00722e+20
-49.9132  9.97204e+19
-49.7959  1.01062e+20
-49.6786  1.0404e+20
-49.5613  1.07974e+20
-49.444  1.12339e+20
-49.3267  1.16781e+20
-49.2094  1.21111e+20
-49.092  1.25372e+20
-48.9747  1.29631e+20
-48.8574  1.34216e+20
-48.7401  1.39428e+20
-48.6228  1.45653e+20
-48.5055  1.53271e+20
-48.3882  1.62688e+20
-48.2709  1.74164e+20
-48.1536  1.87744e+20
-48.0363  2.03239e+20
-47.919  2.20235e+20
-47.8017  2.37954e+20
-47.6844  2.55425e+20
-47.5671  2.71596e+20
-47.4498  2.85586e+20
-47.3325  2.96505e+20
-47.2152  3.04096e+20
-47.0979  3.08235e+20
-46.9806  3.0916e+20
-46.8633  3.07489e+20
-46.7459  3.0385e+20
-46.6286  2.9894e+20
-46.5113  2.93302e+20
-46.394  2.87556e+20
-46.2767  2.82086e+20
-46.1594  2.77317e+20
-46.0421  2.73546e+20
-45.9248  2.71083e+20
-45.8075  2.70085e+20
-45.6902  2.7038e+20
-45.5729  2.71794e+20
-45.4556  2.73603e+20
-45.3383  2.75029e+20
-45.221  2.75044e+20
-45.1037  2.72722e+20
-44.9864  2.67493e+20
-44.8691  2.59144e+20
-44.7518  2.47997e+20
-44.6345  2.34971e+20
-44.5172  2.21347e+20
-44.3998  2.08632e+20
-44.2825  1.98051e+20
-44.1652  1.90717e+20
-44.0479  1.87305e+20
-43.9306  1.87839e+20
-43.8133  1.91988e+20
-43.696  1.99123e+20
-43.5787  2.08355e+20
-43.4614  2.18736e+20
-43.3441  2.29563e+20
-43.2268  2.40142e+20
-43.1095  2.50065e+20
-42.9922  2.58955e+20
-42.8749  2.6678e+20
-42.7576  2.73558e+20
-42.6403  2.79603e+20
-42.523  2.85363e+20
-42.4057  2.91508e+20
-42.2884  2.98741e+20
-42.171  3.07814e+20
-42.0537  3.19378e+20
-41.9364  3.33733e+20
-41.8191  3.5076e+20
-41.7018  3.69769e+20
-41.5845  3.89894e+20
-41.4672  4.09873e+20
-41.3499  4.28411e+20
-41.2326  4.4428e+20
-41.1153  4.5677e+20
-40.998  4.65425e+20
-40.8807  4.70279e+20
-40.7634  4.71633e+20
-40.6461  4.70122e+20
-40.5288  4.66218e+20
-40.4115  4.60442e+20
-40.2942  4.53274e+20
-40.1769  4.44617e+20
-40.0596  4.34625e+20
-39.9423  4.23377e+20
-39.825  4.10928e+20
-39.7076  3.9755e+20
-39.5903  3.83755e+20
-39.473  3.69996e+20
-39.3557  3.56962e+20
-39.2384  3.45278e+20
-39.1211  3.35469e+20
-39.0038  3.28135e+20
-38.8865  3.23629e+20
-38.7692  3.22351e+20
-38.6519  3.24673e+20
-38.5346  3.30639e+20
-38.4173  3.40239e+20
-38.3  3.53216e+20
-38.1827  3.68963e+20
-38.0654  3.86605e+20
-37.9481  4.04972e+20
-37.8308  4.22789e+20
-37.7135  4.38778e+20
-37.5962  4.51793e+20
-37.4789  4.61217e+20
-37.3615  4.66746e+20
-37.2442  4.68594e+20
-37.1269  4.67706e+20
-37.0096  4.64776e+20
-36.8923  4.61303e+20
-36.775  4.58379e+20
-36.6577  4.57109e+20
-36.5404  4.58207e+20
-36.4231  4.62073e+20
-36.3058  4.68854e+20
-36.1885  4.78229e+20
-36.0712  4.89574e+20
-35.9539  5.02019e+20
-35.8366  5.14479e+20
-35.7193  5.25988e+20
-35.602  5.35455e+20
-35.4847  5.41884e+20
-35.3674  5.4491e+20
-35.2501  5.445e+20
-35.1328  5.41025e+20
-35.0154  5.35728e+20
-34.8981  5.30112e+20
-34.7808  5.26027e+20
-34.6635  5.25153e+20
-34.5462  5.29176e+20
-34.4289  5.38862e+20
-34.3116  5.54525e+20
-34.1943  5.75524e+20
-34.077  6.00689e+20
-33.9597  6.2824e+20
-33.8424  6.56022e+20
-33.7251  6.82043e+20
-33.6078  7.04621e+20
-33.4905  7.22546e+20
-33.3732  7.35268e+20
-33.2559  7.42844e+20
-33.1386  7.4632e+20
-33.0213  7.46933e+20
-32.904  7.46387e+20
-32.7867  7.46905e+20
-32.6693  7.50061e+20
-32.552  7.57425e+20
-32.4347  7.70218e+20
-32.3174  7.88372e+20
-32.2001  8.11745e+20
-32.0828  8.38858e+20
-31.9655  8.67987e+20
-31.8482  8.9693e+20
-31.7309  9.2311e+20
-31.6136  9.4456e+20
-31.4963  9.59432e+20
-31.379  9.66785e+20
-31.2617  9.66179e+20
-31.1444  9.58214e+20
-31.0271  9.43955e+20
-30.9098  9.24953e+20
-30.7925  9.0316e+20
-30.6752  8.80291e+20
-30.5579  8.57763e+20
-30.4406  8.3681e+20
-30.3232  8.18393e+20
-30.2059  8.02867e+20
-30.0886  7.90136e+20
-29.9713  7.80091e+20
-29.854  7.72378e+20
-29.7367  7.66692e+20
-29.6194  7.62903e+20
-29.5021  7.60933e+20
-29.3848  7.61052e+20
-29.2675  7.63925e+20
-29.1502  7.69848e+20
-29.0329  7.79725e+20
-28.9156  7.94056e+20
-28.7983  8.13165e+20
-28.681  8.37208e+20
-28.5637  8.65761e+20
-28.4464  8.9841e+20
-28.3291  9.34111e+20
-28.2118  9.7176e+20
-28.0944  1.01034e+21
-27.9771  1.04844e+21
-27.8598  1.08491e+21
-27.7425  1.11881e+21
-27.6252  1.14911e+21
-27.5079  1.17539e+21
-27.3906  1.19724e+21
-27.2733  1.21491e+21
-27.156  1.22937e+21
-27.0387  1.24143e+21
-26.9214  1.25301e+21
-26.8041  1.26568e+21
-26.6868  1.28125e+21
-26.5695  1.30079e+21
-26.4522  1.32503e+21
-26.3349  1.35409e+21
-26.2176  1.38713e+21
-26.1003  1.42309e+21
-25.983  1.46038e+21
-25.8657  1.49763e+21
-25.7483  1.5342e+21
-25.631  1.56972e+21
-25.5137  1.60498e+21
-25.3964  1.64088e+21
-25.2791  1.67925e+21
-25.1618  1.72171e+21
-25.0445  1.76977e+21
-24.9272  1.82437e+21
-24.8099  1.88566e+21
-24.6926  1.95326e+21
-24.5753  2.02619e+21
-24.458  2.10242e+21
-24.3407  2.18009e+21
-24.2234  2.25687e+21
-24.1061  2.33042e+21
-23.9888  2.39886e+21
-23.8715  2.46052e+21
-23.7542  2.5148e+21
-23.6369  2.56186e+21
-23.5196  2.60303e+21
-23.4023  2.64071e+21
-23.2849  2.67829e+21
-23.1676  2.71953e+21
-23.0503  2.76834e+21
-22.933  2.82808e+21
-22.8157  2.90072e+21
-22.6984  2.9868e+21
-22.5811  3.08502e+21
-22.4638  3.19302e+21
-22.3465  3.30666e+21
-22.2292  3.42192e+21
-22.1119  3.53444e+21
-21.9946  3.64093e+21
-21.8773  3.73932e+21
-21.76  3.82885e+21
-21.6427  3.91062e+21
-21.5254  3.9867e+21
-21.4081  4.06079e+21
-21.2908  4.13692e+21
-21.1735  4.21978e+21
-21.0561  4.31392e+21
-20.9388  4.42297e+21
-20.8215  4.55035e+21
-20.7042  4.69748e+21
-20.5869  4.86422e+21
-20.4696  5.04838e+21
-20.3523  5.24614e+21
-20.235  5.45095e+21
-20.1177  5.65569e+21
-20.0004  5.85235e+21
-19.8831  6.03311e+21
-19.7658  6.19134e+21
-19.6485  6.32242e+21
-19.5312  6.42481e+21
-19.4139  6.49909e+21
-19.2966  6.5488e+21
-19.1793  6.58034e+21
-19.062  6.60082e+21
-18.9447  6.61861e+21
-18.8274  6.64198e+21
-18.71  6.67865e+21
-18.5927  6.73476e+21
-18.4754  6.81533e+21
-18.3581  6.92309e+21
-18.2408  7.06012e+21
-18.1235  7.22547e+21
-18.0062  7.41758e+21
-17.8889  7.63314e+21
-17.7716  7.86864e+21
-17.6543  8.11961e+21
-17.537  8.38155e+21
-17.4197  8.65035e+21
-17.3024  8.92266e+21
-17.1851  9.19609e+21
-17.0678  9.46872e+21
-16.9505  9.74004e+21
-16.8332  1.00094e+22
-16.7159  1.02769e+22
-16.5986  1.05419e+22
-16.4813  1.08039e+22
-16.364  1.10613e+22
-16.2466  1.13116e+22
-16.1293  1.15521e+22
-16.012  1.17797e+22
-15.8947  1.19911e+22
-15.7774  1.21837e+22
-15.6601  1.23557e+22
-15.5428  1.25063e+22
-15.4255  1.26359e+22
-15.3082  1.27467e+22
-15.1909  1.28413e+22
-15.0736  1.29241e+22
-14.9563  1.29999e+22
-14.839  1.30744e+22
-14.7217  1.31524e+22
-14.6044  1.32385e+22
-14.4871  1.33372e+22
-14.3698  1.34504e+22
-14.2525  1.35796e+22
-14.1352  1.37245e+22
-14.0178  1.38838e+22
-13.9005  1.40548e+22
-13.7832  1.42347e+22
-13.6659  1.44197e+22
-13.5486  1.46081e+22
-13.4313  1.47961e+22
-13.314  1.49831e+22
-13.1967  1.51684e+22
-13.0794  1.53527e+22
-12.9621  1.55376e+22
-12.8448  1.57255e+22
-12.7275  1.59189e+22
-12.6102  1.6121e+22
-12.4929  1.6335e+22
-12.3756  1.65626e+22
-12.2583  1.68056e+22
-12.141  1.70645e+22
-12.0237  1.73383e+22
-11.9064  1.76248e+22
-11.7891  1.79212e+22
-11.6718  1.82235e+22
-11.5544  1.85275e+22
-11.4371  1.88292e+22
-11.3198  1.91246e+22
-11.2025  1.94106e+22
-11.0852  1.9686e+22
-10.9679  1.99497e+22
-10.8506  2.02024e+22
-10.7333  2.04455e+22
-10.616  2.06812e+22
-10.4987  2.09122e+22
-10.3814  2.1141e+22
-10.2641  2.13702e+22
-10.1468  2.16019e+22
-10.0295  2.18373e+22
-9.91217  2.20768e+22
-9.79487  2.23205e+22
-9.67756  2.25667e+22
-9.56026  2.28133e+22
-9.44295  2.30575e+22
-9.32565  2.32962e+22
-9.20834  2.3526e+22
-9.09104  2.37432e+22
-8.97373  2.39452e+22
-8.85643  2.41303e+22
-8.73913  2.42963e+22
-8.62182  2.44436e+22
-8.50452  2.45726e+22
-8.38721  2.46848e+22
-8.26991  2.47821e+22
-8.1526  2.48668e+22
-8.03529  2.49412e+22
-7.91799  2.50079e+22
-7.80069  2.50695e+22
-7.68338  2.51281e+22
-7.56608  2.51858e+22
-7.44877  2.5245e+22
-7.33146  2.53075e+22
-7.21416  2.5375e+22
-7.09685  2.54496e+22
-6.97955  2.55328e+22
-6.86224  2.56267e+22
-6.74494  2.57333e+22
-6.62763  2.58534e+22
-6.51033  2.5989e+22
-6.39302  2.61411e+22
-6.27572  2.63099e+22
-6.15842  2.64957e+22
-6.04111  2.66975e+22
-5.92381  2.69136e+22
-5.8065  2.71422e+22
-5.68919  2.738e+22
-5.57189  2.76237e+22
-5.45458  2.78691e+22
-5.33728  2.81128e+22
-5.21997  2.83504e+22
-5.10267  2.85783e+22
-4.98536  2.8793e+22
-4.86806  2.89915e+22
-4.75075  2.91718e+22
-4.63345  2.93324e+22
-4.51614  2.94729e+22
-4.39884  2.95935e+22
-4.28154  2.9696e+22
-4.16423  2.97822e+22
-4.04692  2.98547e+22
-3.92962  2.99164e+22
-3.81231  2.99702e+22
-3.69501  3.00177e+22
-3.5777  3.00609e+22
-3.4604  3.01002e+22
-3.34309  3.01361e+22
-3.22579  3.01683e+22
-3.10849  3.01971e+22
-2.99118  3.02225e+22
-2.87387  3.02454e+22
-2.75657  3.02669e+22
-2.63926  3.02883e+22
-2.52196  3.03115e+22
-2.40465  3.03378e+22
-2.28735  3.0368e+22
-2.17005  3.04034e+22
-2.05274  3.04446e+22
-1.93544  3.04913e+22
-1.81813  3.05439e+22
-1.70083  3.06021e+22
-1.58352  3.06653e+22
-1.46622  3.07334e+22
-1.34891  3.08049e+22
-1.2316  3.08783e+22
-1.1143  3.09518e+22
-0.996995  3.10229e+22
-0.87969  3.10897e+22
-0.762385  3.11488e+22
-0.64508  3.11997e+22
-0.527775  3.1241e+22
-0.41047  3.12725e+22
-0.293165  3.12946e+22
-0.17586  3.13083e+22
-0.058555  3.13145e+22
0.05875  3.13135e+22
0.176055  3.13055e+22
0.29336  3.12896e+22
0.410665  3.12658e+22
0.52797  3.12322e+22
0.645275  3.1189e+22
0.76258  3.11361e+22
0.879885  3.10751e+22
0.99719  3.10066e+22
1.1145  3.09339e+22
1.2318  3.08589e+22
1.3491  3.0784e+22
1.46641  3.07109e+22
1.58371  3.06413e+22
1.70102  3.05763e+22
1.81832  3.05163e+22
1.93563  3.04619e+22
2.05294  3.0413e+22
2.17024  3.03699e+22
2.28754  3.03325e+22
2.40485  3.02997e+22
2.52216  3.0271e+22
2.63946  3.02454e+22
2.75677  3.02211e+22
2.87407  3.01969e+22
2.99137  3.01708e+22
3.10868  3.01424e+22
3.22599  3.01105e+22
3.34329  3.00752e+22
3.4606  3.00365e+22
3.5779  2.99941e+22
3.69521  2.9948e+22
3.81251  2.98977e+22
3.92982  2.98409e+22
4.04712  2.97761e+22
4.16443  2.97011e+22
4.28173  2.9612e+22
4.39903  2.95068e+22
4.51634  2.93835e+22
4.63364  2.92408e+22
4.75095  2.90779e+22
4.86825  2.88955e+22
4.98556  2.86949e+22
5.10286  2.84789e+22
5.22017  2.82493e+22
5.33748  2.80106e+22
5.45478  2.7766e+22
5.57209  2.75199e+22
5.68939  2.72755e+22
5.8067  2.70373e+22
5.924  2.68083e+22
6.0413  2.65919e+22
6.15861  2.63898e+22
6.27591  2.62036e+22
6.39322  2.60345e+22
6.51052  2.58819e+22
6.62783  2.57455e+22
6.74514  2.56242e+22
6.86244  2.55169e+22
6.97975  2.54219e+22
7.09705  2.53372e+22
7.21436  2.52612e+22
7.33166  2.51918e+22
7.44897  2.51278e+22
7.56627  2.50667e+22
7.68358  2.50069e+22
7.80088  2.49463e+22
7.91819  2.48825e+22
8.03549  2.48136e+22
8.1528  2.47372e+22
8.2701  2.46504e+22
8.38741  2.4551e+22
8.50471  2.4437e+22
8.62202  2.4306e+22
8.73932  2.41566e+22
8.85662  2.39889e+22
8.97393  2.38023e+22
9.09123  2.35985e+22
9.20854  2.33798e+22
9.32584  2.31488e+22
9.44315  2.29087e+22
9.56045  2.2663e+22
9.67776  2.24153e+22
9.79506  2.21681e+22
9.91237  2.19232e+22
10.0297  2.16827e+22
10.147  2.14463e+22
10.2643  2.12138e+22
10.3816  2.09837e+22
10.4989  2.07541e+22
10.6162  2.05221e+22
10.7335  2.02858e+22
10.8508  2.00422e+22
10.9681  1.97889e+22
11.0854  1.95249e+22
11.2027  1.92493e+22
11.32  1.89629e+22
11.4373  1.86677e+22
11.5546  1.83664e+22
11.6719  1.80624e+22
11.7893  1.77606e+22
11.9066  1.7465e+22
12.0239  1.71788e+22
12.1412  1.69059e+22
12.2585  1.66479e+22
12.3758  1.64056e+22
12.4931  1.61786e+22
12.6104  1.59655e+22
12.7277  1.57639e+22
12.845  1.55711e+22
12.9623  1.53837e+22
13.0796  1.51993e+22
13.1969  1.50153e+22
13.3142  1.48306e+22
13.4315  1.46438e+22
13.5488  1.4456e+22
13.6661  1.42682e+22
13.7834  1.40831e+22
13.9007  1.39037e+22
14.018  1.37328e+22
14.1354  1.35737e+22
14.2527  1.34288e+22
14.37  1.32999e+22
14.4873  1.31866e+22
14.6046  1.3088e+22
14.7219  1.30018e+22
14.8392  1.29238e+22
14.9565  1.28492e+22
15.0738  1.27734e+22
15.1911  1.26904e+22
15.3084  1.25957e+22
15.4257  1.2485e+22
15.543  1.23556e+22
15.6603  1.22051e+22
15.7776  1.20335e+22
15.8949  1.18413e+22
16.0122  1.16304e+22
16.1295  1.14036e+22
16.2468  1.11639e+22
16.3641  1.09141e+22
16.4815  1.06578e+22
16.5988  1.0397e+22
16.7161  1.01327e+22
16.8334  9.86633e+21
16.9507  9.59828e+21
17.068  9.32843e+21
17.1853  9.0572e+21
17.3026  8.78553e+21
17.4199  8.51504e+21
17.5372  8.24816e+21
17.6545  7.98848e+21
17.7718  7.74003e+21
17.8891  7.50684e+21
18.0064  7.2939e+21
18.1237  7.10442e+21
18.241  6.94162e+21
18.3583  6.80718e+21
18.4756  6.70146e+21
18.5929  6.62303e+21
18.7102  6.56863e+21
18.8275  6.53361e+21
18.9449  6.51141e+21
19.0622  6.49472e+21
19.1795  6.47499e+21
19.2968  6.44402e+21
19.4141  6.39471e+21
19.5314  6.32096e+21
19.6487  6.2191e+21
19.766  6.08875e+21
19.8833  5.93132e+21
20.0006  5.75184e+21
20.1179  5.55663e+21
20.2352  5.35384e+21
20.3525  5.15102e+21
20.4698  4.95568e+21
20.5871  4.77379e+21
20.7044  4.60946e+21
20.8217  4.46481e+21
20.939  4.3398e+21
21.0563  4.2327e+21
21.1736  4.14071e+21
21.291  4.05962e+21
21.4083  3.98513e+21
21.5256  3.91257e+21
21.6429  3.83783e+21
21.7602  3.75749e+21
21.8775  3.6692e+21
21.9948  3.57214e+21
22.1121  3.467e+21
22.2294  3.35573e+21
22.3467  3.24211e+21
22.464  3.13003e+21
22.5813  3.02373e+21
22.6986  2.92717e+21
22.8159  2.84297e+21
22.9332  2.77203e+21
23.0505  2.714e+21
23.1678  2.6666e+21
23.2851  2.6267e+21
23.4024  2.59038e+21
23.5198  2.55387e+21
23.6371  2.5138e+21
23.7544  2.46781e+21
23.8717  2.41465e+21
23.989  2.35408e+21
24.1063  2.28688e+21
24.2236  2.21461e+21
24.3409  2.13911e+21
24.4582  2.06292e+21
24.5755  1.98799e+21
24.6928  1.91664e+21
24.8101  1.85049e+21
24.9274  1.79064e+21
25.0447  1.73751e+21
25.162  1.69081e+21
25.2793  1.64967e+21
25.3966  1.61247e+21
25.5139  1.57761e+21
25.6312  1.5435e+21
25.7485  1.50898e+21
25.8658  1.47349e+21
25.9832  1.43702e+21
26.1005  1.4008e+21
26.2178  1.36589e+21
26.3351  1.33376e+21
26.4524  1.30569e+21
26.5697  1.28236e+21
26.687  1.2636e+21
26.8043  1.24901e+21
26.9216  1.23707e+21
27.0389  1.22609e+21
27.1562  1.21448e+21
27.2735  1.2006e+21
27.3908  1.18326e+21
27.5081  1.1619e+21
27.6254  1.13609e+21
27.7427  1.10626e+21
27.86  1.07288e+21
27.9773  1.03683e+21
28.0946  9.99349e+20
28.212  9.61387e+20
28.3293  9.24246e+20
28.4466  8.89158e+20
28.5639  8.57086e+20
28.6812  8.29165e+20
28.7985  8.05675e+20
28.9158  7.87083e+20
29.0331  7.73318e+20
29.1504  7.63836e+20
29.2677  7.58298e+20
29.385  7.5591e+20
29.5023  7.5607e+20
29.6196  7.58298e+20
29.7369  7.62425e+20
29.8542  7.6846e+20
29.9715  7.76508e+20
30.0888  7.86749e+20
30.2061  7.997e+20
30.3234  8.15491e+20
30.4407  8.34125e+20
30.558  8.55207e+20
30.6754  8.7785e+20
30.7927  9.0083e+20
30.91  9.22687e+20
31.0273  9.41564e+20
31.1446  9.55675e+20
31.2619  9.63433e+20
31.3792  9.63821e+20
31.4965  9.56425e+20
31.6138  9.41492e+20
31.7311  9.19857e+20
31.8484  8.93599e+20
31.9657  8.64774e+20
32.083  8.3563e+20
32.2003  8.08622e+20
32.3176  7.85514e+20
32.4349  7.67423e+20
32.5522  7.54863e+20
32.6695  7.47494e+20
32.7868  7.44436e+20
32.9042  7.43903e+20
33.0215  7.44286e+20
33.1388  7.43549e+20
33.2561  7.39885e+20
33.3734  7.32134e+20
33.4907  7.19197e+20
33.608  7.01107e+20
33.7253  6.78486e+20
33.8426  6.52301e+20
33.9599  6.24576e+20
34.0772  5.97135e+20
34.1945  5.72119e+20
34.3118  5.51214e+20
34.4291  5.3572e+20
34.5464  5.26236e+20
34.6637  5.22434e+20
34.781  5.23343e+20
34.8983  5.27477e+20
35.0156  5.33041e+20
35.1329  5.38234e+20
35.2503  5.41526e+20
35.3676  5.4189e+20
35.4849  5.38728e+20
35.6022  5.32142e+20
35.7195  5.22691e+20
35.8368  5.11135e+20
35.9541  4.98578e+20
36.0714  4.8622e+20
36.1887  4.74939e+20
36.306  4.65703e+20
36.4233  4.58996e+20
36.5406  4.55203e+20
36.6579  4.54183e+20
36.7752  4.55521e+20
36.8925  4.58427e+20
37.0098  4.61903e+20
37.1271  4.64718e+20
37.2444  4.65643e+20
37.3617  4.63673e+20
37.479  4.58108e+20
37.5964  4.4857e+20
37.7137  4.35502e+20
37.831  4.19506e+20
37.9483  4.01724e+20
38.0656  3.83385e+20
38.1829  3.65845e+20
38.3002  3.50198e+20
38.4175  3.3736e+20
38.5348  3.27842e+20
38.6521  3.22018e+20
38.7694  3.19832e+20
38.8867  3.21169e+20
39.004  3.25707e+20
39.1213  3.33104e+20
39.2386  3.42961e+20
39.3559  3.54742e+20
39.4732  3.67816e+20
39.5905  3.81563e+20
39.7078  3.95366e+20
39.8251  4.08708e+20
39.9425  4.21118e+20
40.0598  4.32351e+20
40.1771  4.42272e+20
40.2944  4.50891e+20
40.4117  4.58089e+20
40.529  4.63763e+20
40.6463  4.67596e+20
40.7636  4.69104e+20
40.8809  4.676e+20
40.9982  4.62718e+20
41.1155  4.53984e+20
41.2328  4.41482e+20
41.3501  4.25515e+20
41.4674  4.07048e+20
41.5847  3.87157e+20
41.702  3.67132e+20
41.8193  3.48253e+20
41.9366  3.31441e+20
42.0539  3.17266e+20
42.1712  3.05858e+20
42.2885  2.96903e+20
42.4059  2.89758e+20
42.5232  2.83656e+20
42.6405  2.77927e+20
42.7578  2.71858e+20
42.8751  2.6504e+20
42.9924  2.57186e+20
43.1097  2.48259e+20
43.227  2.38347e+20
43.3443  2.27793e+20
43.4616  2.17024e+20
43.5789  2.06687e+20
43.6962  1.97574e+20
43.8135  1.90609e+20
43.9308  1.86624e+20
44.0481  1.8626e+20
44.1654  1.89826e+20
44.2827  1.97283e+20
44.4  2.07974e+20
44.5173  2.20812e+20
44.6347  2.34448e+20
44.752  2.47405e+20
44.8693  2.58408e+20
44.9866  2.66688e+20
45.1039  2.71834e+20
45.2212  2.74015e+20
45.3385  2.7397e+20
45.4558  2.72549e+20
45.5731  2.70725e+20
45.6904  2.69419e+20
45.8077  2.69125e+20
45.925  2.70236e+20
46.0423  2.72788e+20
46.1596  2.7664e+20
46.2769  2.81462e+20
46.3942  2.86978e+20
46.5115  2.92802e+20
46.6288  2.98416e+20
46.7461  3.03335e+20
46.8634  3.06976e+20
46.9808  3.08607e+20
47.0981  3.07581e+20
47.2154  3.03401e+20
47.3327  2.95716e+20
47.45  2.84656e+20
47.5673  2.70604e+20
47.6846  2.54375e+20
47.8019  2.36879e+20
47.9192  2.19173e+20
48.0365  2.02217e+20
48.1538  1.86756e+20
48.2711  1.73247e+20
48.3884  1.61882e+20
48.5057  1.52551e+20
48.623  1.45014e+20
48.7403  1.38872e+20
48.8576  1.33686e+20
48.9749  1.29153e+20
49.0922  1.24938e+20
49.2095  1.20739e+20
49.3269  1.16415e+20
49.4442  1.12033e+20
49.5615  1.07681e+20
49.6788  1.03782e+20
49.7961  1.00851e+20
49.9134  9.9558e+19
50.0307  1.0066e+20
50.148  1.04756e+20
50.2653  1.12276e+20
50.3826  1.23293e+20
50.4999  1.37505e+20
50.6172  1.54253e+20
50.7345  1.726e+20
50.8518  1.91428e+20
