#S 1 spectral density
#N 2
#UFWHM 44.5759
#L  abscissas [um]  spectral density
-58.5938  4.71792e+20
-58.4764  4.74801e+20
-58.3591  4.7802e+20
-58.2418  4.82293e+20
-58.1245  4.88116e+20
-58.0072  4.95511e+20
-57.8899  5.04375e+20
-57.7726  5.14428e+20
-57.6553  5.25231e+20
-57.538  5.36119e+20
-57.4207  5.46616e+20
-57.3034  5.55993e+20
-57.1861  5.63664e+20
-57.0688  5.68713e+20
-56.9515  5.70555e+20
-56.8342  5.68635e+20
-56.7169  5.62469e+20
-56.5996  5.52302e+20
-56.4823  5.38511e+20
-56.365  5.22055e+20
-56.2477  5.04333e+20
-56.1303  4.86838e+20
-56.013  4.71141e+20
-55.8957  4.58434e+20
-55.7784  4.49632e+20
-55.6611  4.44954e+20
-55.5438  4.44056e+20
-55.4265  4.46275e+20
-55.3092  4.50403e+20
-55.1919  4.55091e+20
-55.0746  4.59161e+20
-54.9573  4.61627e+20
-54.84  4.61916e+20
-54.7227  4.59828e+20
-54.6054  4.5561e+20
-54.4881  4.50076e+20
-54.3708  4.44232e+20
-54.2535  4.39274e+20
-54.1362  4.36336e+20
-54.0189  4.36581e+20
-53.9016  4.4079e+20
-53.7842  4.49559e+20
-53.6669  4.6275e+20
-53.5496  4.8002e+20
-53.4323  5.0067e+20
-53.315  5.23491e+20
-53.1977  5.47263e+20
-53.0804  5.70877e+20
-52.9631  5.93138e+20
-52.8458  6.13016e+20
-52.7285  6.30033e+20
-52.6112  6.43773e+20
-52.4939  6.54346e+20
-52.3766  6.6201e+20
-52.2593  6.67305e+20
-52.142  6.71027e+20
-52.0247  6.73633e+20
-51.9074  6.7585e+20
-51.7901  6.78006e+20
-51.6728  6.80052e+20
-51.5555  6.81747e+20
-51.4381  6.82636e+20
-51.3208  6.81849e+20
-51.2035  6.78556e+20
-51.0862  6.71953e+20
-50.9689  6.61641e+20
-50.8516  6.47556e+20
-50.7343  6.30122e+20
-50.617  6.10283e+20
-50.4997  5.89202e+20
-50.3824  5.68486e+20
-50.2651  5.49731e+20
-50.1478  5.34204e+20
-50.0305  5.23188e+20
-49.9132  5.17354e+20
-49.7959  5.17175e+20
-49.6786  5.2277e+20
-49.5613  5.33692e+20
-49.444  5.49212e+20
-49.3267  5.68402e+20
-49.2094  5.90018e+20
-49.092  6.12547e+20
-48.9747  6.34467e+20
-48.8574  6.53987e+20
-48.7401  6.6987e+20
-48.6228  6.80912e+20
-48.5055  6.86533e+20
-48.3882  6.87069e+20
-48.2709  6.8322e+20
-48.1536  6.76401e+20
-48.0363  6.68561e+20
-47.919  6.61627e+20
-47.8017  6.57506e+20
-47.6844  6.57795e+20
-47.5671  6.63348e+20
-47.4498  6.746e+20
-47.3325  6.91159e+20
-47.2152  7.12165e+20
-47.0979  7.36323e+20
-46.9806  7.6198e+20
-46.8633  7.87536e+20
-46.7459  8.11703e+20
-46.6286  8.33212e+20
-46.5113  8.51402e+20
-46.394  8.65832e+20
-46.2767  8.7695e+20
-46.1594  8.85456e+20
-46.0421  8.92175e+20
-45.9248  8.98328e+20
-45.8075  9.04957e+20
-45.6902  9.12868e+20
-45.5729  9.2243e+20
-45.4556  9.3324e+20
-45.3383  9.44811e+20
-45.221  9.55806e+20
-45.1037  9.65072e+20
-44.9864  9.71471e+20
-44.8691  9.73942e+20
-44.7518  9.72026e+20
-44.6345  9.65741e+20
-44.5172  9.55766e+20
-44.3998  9.42802e+20
-44.2825  9.28298e+20
-44.1652  9.13302e+20
-44.0479  8.99155e+20
-43.9306  8.87092e+20
-43.8133  8.78013e+20
-43.696  8.72965e+20
-43.5787  8.72651e+20
-43.4614  8.77786e+20
-43.3441  8.8877e+20
-43.2268  9.05648e+20
-43.1095  9.28055e+20
-42.9922  9.55329e+20
-42.8749  9.86236e+20
-42.7576  1.01938e+21
-42.6403  1.0534e+21
-42.523  1.08688e+21
-42.4057  1.11883e+21
-42.2884  1.14863e+21
-42.171  1.17613e+21
-42.0537  1.20178e+21
-41.9364  1.22607e+21
-41.8191  1.24984e+21
-41.7018  1.27363e+21
-41.5845  1.29822e+21
-41.4672  1.32399e+21
-41.3499  1.35102e+21
-41.2326  1.37943e+21
-41.1153  1.4091e+21
-40.998  1.43979e+21
-40.8807  1.47124e+21
-40.7634  1.5029e+21
-40.6461  1.53442e+21
-40.5288  1.56497e+21
-40.4115  1.59415e+21
-40.2942  1.62152e+21
-40.1769  1.64681e+21
-40.0596  1.67014e+21
-39.9423  1.69206e+21
-39.825  1.71348e+21
-39.7076  1.73542e+21
-39.5903  1.75889e+21
-39.473  1.78464e+21
-39.3557  1.81274e+21
-39.2384  1.84302e+21
-39.1211  1.87416e+21
-39.0038  1.90453e+21
-38.8865  1.93213e+21
-38.7692  1.95523e+21
-38.6519  1.97222e+21
-38.5346  1.98223e+21
-38.4173  1.9851e+21
-38.3  1.98162e+21
-38.1827  1.97316e+21
-38.0654  1.96177e+21
-37.9481  1.94999e+21
-37.8308  1.94033e+21
-37.7135  1.93529e+21
-37.5962  1.93707e+21
-37.4789  1.94765e+21
-37.3615  1.96834e+21
-37.2442  1.99983e+21
-37.1269  2.04229e+21
-37.0096  2.09508e+21
-36.8923  2.15706e+21
-36.775  2.22631e+21
-36.6577  2.3007e+21
-36.5404  2.37777e+21
-36.4231  2.45509e+21
-36.3058  2.53054e+21
-36.1885  2.60241e+21
-36.0712  2.66964e+21
-35.9539  2.73187e+21
-35.8366  2.78911e+21
-35.7193  2.84222e+21
-35.602  2.8923e+21
-35.4847  2.94042e+21
-35.3674  2.98783e+21
-35.2501  3.03569e+21
-35.1328  3.08461e+21
-35.0154  3.13519e+21
-34.8981  3.18715e+21
-34.7808  3.24019e+21
-34.6635  3.29321e+21
-34.5462  3.34519e+21
-34.4289  3.39456e+21
-34.3116  3.43983e+21
-34.1943  3.47973e+21
-34.077  3.51361e+21
-33.9597  3.54132e+21
-33.8424  3.56338e+21
-33.7251  3.58098e+21
-33.6078  3.59619e+21
-33.4905  3.61114e+21
-33.3732  3.62819e+21
-33.2559  3.64973e+21
-33.1386  3.67746e+21
-33.0213  3.71255e+21
-32.904  3.75526e+21
-32.7867  3.80567e+21
-32.6693  3.86242e+21
-32.552  3.92419e+21
-32.4347  3.98922e+21
-32.3174  4.05563e+21
-32.2001  4.12173e+21
-32.0828  4.18587e+21
-31.9655  4.24717e+21
-31.8482  4.30512e+21
-31.7309  4.35948e+21
-31.6136  4.4109e+21
-31.4963  4.46007e+21
-31.379  4.50823e+21
-31.2617  4.55664e+21
-31.1444  4.6062e+21
-31.0271  4.65818e+21
-30.9098  4.71314e+21
-30.7925  4.77113e+21
-30.6752  4.83217e+21
-30.5579  4.89616e+21
-30.4406  4.96215e+21
-30.3232  5.03007e+21
-30.2059  5.09902e+21
-30.0886  5.16888e+21
-29.9713  5.23927e+21
-29.854  5.31021e+21
-29.7367  5.38172e+21
-29.6194  5.45389e+21
-29.5021  5.52667e+21
-29.3848  5.6001e+21
-29.2675  5.67441e+21
-29.1502  5.74879e+21
-29.0329  5.82246e+21
-28.9156  5.89452e+21
-28.7983  5.9634e+21
-28.681  6.0271e+21
-28.5637  6.08397e+21
-28.4464  6.13215e+21
-28.3291  6.17029e+21
-28.2118  6.19734e+21
-28.0944  6.21409e+21
-27.9771  6.22123e+21
-27.8598  6.2212e+21
-27.7425  6.21726e+21
-27.6252  6.2133e+21
-27.5079  6.21367e+21
-27.3906  6.22287e+21
-27.2733  6.24534e+21
-27.156  6.28496e+21
-27.0387  6.34435e+21
-26.9214  6.4257e+21
-26.8041  6.52898e+21
-26.6868  6.65332e+21
-26.5695  6.79565e+21
-26.4522  6.95137e+21
-26.3349  7.11475e+21
-26.2176  7.27879e+21
-26.1003  7.43623e+21
-25.983  7.58016e+21
-25.8657  7.70481e+21
-25.7483  7.80577e+21
-25.631  7.88166e+21
-25.5137  7.93288e+21
-25.3964  7.96226e+21
-25.2791  7.97452e+21
-25.1618  7.97617e+21
-25.0445  7.97387e+21
-24.9272  7.97461e+21
-24.8099  7.984e+21
-24.6926  8.00688e+21
-24.5753  8.0468e+21
-24.458  8.10437e+21
-24.3407  8.17879e+21
-24.2234  8.26777e+21
-24.1061  8.36708e+21
-23.9888  8.47124e+21
-23.8715  8.57455e+21
-23.7542  8.67127e+21
-23.6369  8.75603e+21
-23.5196  8.82477e+21
-23.4023  8.87603e+21
-23.2849  8.90929e+21
-23.1676  8.9269e+21
-23.0503  8.93335e+21
-22.933  8.9339e+21
-22.8157  8.93532e+21
-22.6984  8.94441e+21
-22.5811  8.96767e+21
-22.4638  9.01065e+21
-22.3465  9.07677e+21
-22.2292  9.1688e+21
-22.1119  9.28613e+21
-21.9946  9.42741e+21
-21.8773  9.58835e+21
-21.76  9.76336e+21
-21.6427  9.94552e+21
-21.5254  1.01268e+22
-21.4081  1.02995e+22
-21.2908  1.0456e+22
-21.1735  1.05899e+22
-21.0561  1.06973e+22
-20.9388  1.07768e+22
-20.8215  1.08297e+22
-20.7042  1.08592e+22
-20.5869  1.08712e+22
-20.4696  1.08729e+22
-20.3523  1.08716e+22
-20.235  1.08749e+22
-20.1177  1.08882e+22
-20.0004  1.09164e+22
-19.8831  1.09626e+22
-19.7658  1.10269e+22
-19.6485  1.11089e+22
-19.5312  1.12062e+22
-19.4139  1.13157e+22
-19.2966  1.14329e+22
-19.1793  1.15533e+22
-19.062  1.16723e+22
-18.9447  1.1785e+22
-18.8274  1.18874e+22
-18.71  1.19771e+22
-18.5927  1.20519e+22
-18.4754  1.21114e+22
-18.3581  1.21574e+22
-18.2408  1.21916e+22
-18.1235  1.22178e+22
-18.0062  1.22394e+22
-17.8889  1.22601e+22
-17.7716  1.22834e+22
-17.6543  1.23106e+22
-17.537  1.23438e+22
-17.4197  1.23823e+22
-17.3024  1.24263e+22
-17.1851  1.2474e+22
-17.0678  1.25246e+22
-16.9505  1.25772e+22
-16.8332  1.26312e+22
-16.7159  1.26869e+22
-16.5986  1.27445e+22
-16.4813  1.28048e+22
-16.364  1.28693e+22
-16.2466  1.29398e+22
-16.1293  1.30184e+22
-16.012  1.31056e+22
-15.8947  1.32032e+22
-15.7774  1.33117e+22
-15.6601  1.34307e+22
-15.5428  1.35595e+22
-15.4255  1.3695e+22
-15.3082  1.38343e+22
-15.1909  1.39739e+22
-15.0736  1.4108e+22
-14.9563  1.42325e+22
-14.839  1.43426e+22
-14.7217  1.44348e+22
-14.6044  1.45064e+22
-14.4871  1.45562e+22
-14.3698  1.45846e+22
-14.2525  1.45932e+22
-14.1352  1.45847e+22
-14.0178  1.45639e+22
-13.9005  1.45348e+22
-13.7832  1.45021e+22
-13.6659  1.44711e+22
-13.5486  1.4445e+22
-13.4313  1.44275e+22
-13.314  1.44205e+22
-13.1967  1.44248e+22
-13.0794  1.4441e+22
-12.9621  1.44669e+22
-12.8448  1.45018e+22
-12.7275  1.45429e+22
-12.6102  1.45887e+22
-12.4929  1.46368e+22
-12.3756  1.46862e+22
-12.2583  1.47367e+22
-12.141  1.47886e+22
-12.0237  1.4843e+22
-11.9064  1.49011e+22
-11.7891  1.49645e+22
-11.6718  1.50351e+22
-11.5544  1.51143e+22
-11.4371  1.52038e+22
-11.3198  1.53027e+22
-11.2025  1.54115e+22
-11.0852  1.55282e+22
-10.9679  1.56511e+22
-10.8506  1.57771e+22
-10.7333  1.59022e+22
-10.616  1.60223e+22
-10.4987  1.6134e+22
-10.3814  1.62324e+22
-10.2641  1.63149e+22
-10.1468  1.63791e+22
-10.0295  1.64243e+22
-9.91217  1.6451e+22
-9.79487  1.64609e+22
-9.67756  1.64573e+22
-9.56026  1.64441e+22
-9.44295  1.64258e+22
-9.32565  1.64074e+22
-9.20834  1.63929e+22
-9.09104  1.6386e+22
-8.97373  1.63897e+22
-8.85643  1.64052e+22
-8.73913  1.6433e+22
-8.62182  1.64721e+22
-8.50452  1.65204e+22
-8.38721  1.65757e+22
-8.26991  1.66341e+22
-8.1526  1.66928e+22
-8.03529  1.67487e+22
-7.91799  1.67994e+22
-7.80069  1.68432e+22
-7.68338  1.68797e+22
-7.56608  1.691e+22
-7.44877  1.69353e+22
-7.33146  1.69581e+22
-7.21416  1.69804e+22
-7.09685  1.70047e+22
-6.97955  1.70326e+22
-6.86224  1.70655e+22
-6.74494  1.71043e+22
-6.62763  1.71474e+22
-6.51033  1.71943e+22
-6.39302  1.72423e+22
-6.27572  1.72894e+22
-6.15842  1.73323e+22
-6.04111  1.73688e+22
-5.92381  1.73958e+22
-5.8065  1.74126e+22
-5.68919  1.74173e+22
-5.57189  1.74107e+22
-5.45458  1.73939e+22
-5.33728  1.73698e+22
-5.21997  1.73413e+22
-5.10267  1.73128e+22
-4.98536  1.72883e+22
-4.86806  1.72717e+22
-4.75075  1.72663e+22
-4.63345  1.72747e+22
-4.51614  1.7298e+22
-4.39884  1.73366e+22
-4.28154  1.73901e+22
-4.16423  1.74562e+22
-4.04692  1.75323e+22
-3.92962  1.76151e+22
-3.81231  1.77008e+22
-3.69501  1.77855e+22
-3.5777  1.78645e+22
-3.4604  1.79345e+22
-3.34309  1.79922e+22
-3.22579  1.80351e+22
-3.10849  1.80627e+22
-2.99118  1.8075e+22
-2.87387  1.80743e+22
-2.75657  1.80634e+22
-2.63926  1.80461e+22
-2.52196  1.80257e+22
-2.40465  1.80058e+22
-2.28735  1.79889e+22
-2.17005  1.79761e+22
-2.05274  1.79687e+22
-1.93544  1.79649e+22
-1.81813  1.79646e+22
-1.70083  1.79654e+22
-1.58352  1.7966e+22
-1.46622  1.79643e+22
-1.34891  1.79596e+22
-1.2316  1.79503e+22
-1.1143  1.79362e+22
-0.996995  1.79164e+22
-0.87969  1.78919e+22
-0.762385  1.78627e+22
-0.64508  1.78313e+22
-0.527775  1.77989e+22
-0.41047  1.77687e+22
-0.293165  1.77427e+22
-0.17586  1.77239e+22
-0.058555  1.7714e+22
0.05875  1.77139e+22
0.176055  1.77238e+22
0.29336  1.77425e+22
0.410665  1.77683e+22
0.52797  1.77986e+22
0.645275  1.78306e+22
0.76258  1.78618e+22
0.879885  1.78904e+22
0.99719  1.79147e+22
1.1145  1.79336e+22
1.2318  1.79474e+22
1.3491  1.79562e+22
1.46641  1.79602e+22
1.58371  1.79609e+22
1.70102  1.79594e+22
1.81832  1.79575e+22
1.93563  1.79569e+22
2.05294  1.79592e+22
2.17024  1.79657e+22
2.28754  1.79771e+22
2.40485  1.79929e+22
2.52216  1.80112e+22
2.63946  1.80304e+22
2.75677  1.80461e+22
2.87407  1.80556e+22
2.99137  1.80548e+22
3.10868  1.80409e+22
3.22599  1.80119e+22
3.34329  1.79679e+22
3.4606  1.79094e+22
3.5779  1.78387e+22
3.69521  1.77587e+22
3.81251  1.76738e+22
3.92982  1.75876e+22
4.04712  1.75046e+22
4.16443  1.74283e+22
4.28173  1.73624e+22
4.39903  1.73088e+22
4.51634  1.727e+22
4.63364  1.72467e+22
4.75095  1.7238e+22
4.86825  1.7243e+22
4.98556  1.72591e+22
5.10286  1.72831e+22
5.22017  1.7311e+22
5.33748  1.73386e+22
5.45478  1.73618e+22
5.57209  1.73777e+22
5.68939  1.73833e+22
5.8067  1.73775e+22
5.924  1.73601e+22
6.0413  1.73323e+22
6.15861  1.72951e+22
6.27591  1.72515e+22
6.39322  1.7204e+22
6.51052  1.71556e+22
6.62783  1.71085e+22
6.74514  1.70649e+22
6.86244  1.70263e+22
6.97975  1.6993e+22
7.09705  1.6965e+22
7.21436  1.69403e+22
7.33166  1.69177e+22
7.44897  1.68945e+22
7.56627  1.68686e+22
7.68358  1.68376e+22
7.80088  1.68001e+22
7.91819  1.6755e+22
8.03549  1.67037e+22
8.1528  1.6647e+22
8.2701  1.65871e+22
8.38741  1.65275e+22
8.50471  1.64714e+22
8.62202  1.64219e+22
8.73932  1.63818e+22
8.85662  1.63532e+22
8.97393  1.63368e+22
9.09123  1.63321e+22
9.20854  1.63379e+22
9.32584  1.63517e+22
9.44315  1.63691e+22
9.56045  1.63861e+22
9.67776  1.63983e+22
9.79506  1.64008e+22
9.91237  1.63899e+22
10.0297  1.63622e+22
10.147  1.63161e+22
10.2643  1.62512e+22
10.3816  1.61678e+22
10.4989  1.60688e+22
10.6162  1.59569e+22
10.7335  1.58365e+22
10.8508  1.57111e+22
10.9681  1.55853e+22
11.0854  1.54625e+22
11.2027  1.5346e+22
11.32  1.52374e+22
11.4373  1.51383e+22
11.5546  1.50495e+22
11.6719  1.49703e+22
11.7893  1.48998e+22
11.9066  1.48363e+22
12.0239  1.47781e+22
12.1412  1.47239e+22
12.2585  1.46716e+22
12.3758  1.46208e+22
12.4931  1.45708e+22
12.6104  1.45218e+22
12.7277  1.44759e+22
12.845  1.44344e+22
12.9623  1.43987e+22
13.0796  1.43719e+22
13.1969  1.43553e+22
13.3142  1.43501e+22
13.4315  1.43563e+22
13.5488  1.43732e+22
13.6661  1.43984e+22
13.7834  1.44288e+22
13.9007  1.44603e+22
14.018  1.44888e+22
14.1354  1.45087e+22
14.2527  1.45159e+22
14.37  1.45063e+22
14.4873  1.44768e+22
14.6046  1.4426e+22
14.7219  1.43533e+22
14.8392  1.42603e+22
14.9565  1.41496e+22
15.0738  1.40241e+22
15.1911  1.38895e+22
15.3084  1.37496e+22
15.4257  1.36098e+22
15.543  1.34738e+22
15.6603  1.33451e+22
15.7776  1.3226e+22
15.8949  1.31177e+22
16.0122  1.30199e+22
16.1295  1.29326e+22
16.2468  1.28546e+22
16.3641  1.27841e+22
16.4815  1.27197e+22
16.5988  1.26596e+22
16.7161  1.26021e+22
16.8334  1.25469e+22
16.9507  1.24927e+22
17.068  1.24401e+22
17.1853  1.23893e+22
17.3026  1.23412e+22
17.4199  1.22973e+22
17.5372  1.22585e+22
17.6545  1.22248e+22
17.7718  1.21969e+22
17.8891  1.21733e+22
18.0064  1.21518e+22
18.1237  1.21294e+22
18.241  1.21026e+22
18.3583  1.20676e+22
18.4756  1.20211e+22
18.5929  1.19609e+22
18.7102  1.1886e+22
18.8275  1.17962e+22
18.9449  1.16935e+22
19.0622  1.1581e+22
19.1795  1.14622e+22
19.2968  1.13422e+22
19.4141  1.12253e+22
19.5314  1.11163e+22
19.6487  1.10194e+22
19.766  1.09374e+22
19.8833  1.08732e+22
20.0006  1.0827e+22
20.1179  1.07982e+22
20.2352  1.0784e+22
20.3525  1.078e+22
20.4698  1.07802e+22
20.5871  1.07775e+22
20.7044  1.07638e+22
20.8217  1.07328e+22
20.939  1.06787e+22
21.0563  1.05979e+22
21.1736  1.04894e+22
21.291  1.03549e+22
21.4083  1.0198e+22
21.5256  1.00256e+22
21.6429  9.84462e+21
21.7602  9.66323e+21
21.8775  9.48918e+21
21.9948  9.32944e+21
22.1121  9.18956e+21
22.2294  9.07355e+21
22.3467  8.9827e+21
22.464  8.91762e+21
22.5813  8.87573e+21
22.6986  8.85311e+21
22.8159  8.84446e+21
22.9332  8.84341e+21
23.0505  8.84286e+21
23.1678  8.83649e+21
23.2851  8.81858e+21
23.4024  8.78513e+21
23.5198  8.7337e+21
23.6371  8.66462e+21
23.7544  8.57991e+21
23.8717  8.48322e+21
23.989  8.38016e+21
24.1063  8.2763e+21
24.2236  8.17763e+21
24.3409  8.08939e+21
24.4582  8.01541e+21
24.5755  7.95868e+21
24.6928  7.91948e+21
24.8101  7.89675e+21
24.9274  7.8876e+21
25.0447  7.88699e+21
25.162  7.88942e+21
25.2793  7.88765e+21
25.3966  7.87475e+21
25.5139  7.84478e+21
25.6312  7.79296e+21
25.7485  7.71635e+21
25.8658  7.61471e+21
25.9832  7.48987e+21
26.1005  7.34554e+21
26.2178  7.18819e+21
26.3351  7.0244e+21
26.4524  6.86152e+21
26.5697  6.70634e+21
26.687  6.56492e+21
26.8043  6.44155e+21
26.9216  6.33922e+21
27.0389  6.25879e+21
27.1562  6.20032e+21
27.2735  6.1616e+21
27.3908  6.13976e+21
27.5081  6.13102e+21
27.6254  6.13114e+21
27.7427  6.13537e+21
27.86  6.13942e+21
27.9773  6.13941e+21
28.0946  6.13219e+21
28.212  6.11534e+21
28.3293  6.08784e+21
28.4466  6.04964e+21
28.5639  6.00114e+21
28.6812  5.94415e+21
28.7985  5.88034e+21
28.9158  5.81155e+21
29.0331  5.73976e+21
29.1504  5.66624e+21
29.2677  5.59249e+21
29.385  5.51886e+21
29.5023  5.44587e+21
29.6196  5.37381e+21
29.7369  5.30239e+21
29.8542  5.23198e+21
29.9715  5.16199e+21
30.0888  5.09242e+21
30.2061  5.02345e+21
30.3234  4.95522e+21
30.4407  4.88801e+21
30.558  4.82267e+21
30.6754  4.7595e+21
30.7927  4.69876e+21
30.91  4.64122e+21
31.0273  4.58675e+21
31.1446  4.53508e+21
31.2619  4.48562e+21
31.3792  4.43757e+21
31.4965  4.3896e+21
31.6138  4.34069e+21
31.7311  4.28954e+21
31.8484  4.23557e+21
31.9657  4.17812e+21
32.083  4.11724e+21
32.2003  4.05352e+21
32.3176  3.98812e+21
32.4349  3.92238e+21
32.5522  3.85803e+21
32.6695  3.79702e+21
32.7868  3.74107e+21
32.9042  3.69145e+21
33.0215  3.64931e+21
33.1388  3.61492e+21
33.2561  3.58771e+21
33.3734  3.56665e+21
33.4907  3.54998e+21
33.608  3.53535e+21
33.7253  3.52053e+21
33.8426  3.50313e+21
33.9599  3.48144e+21
34.0772  3.45409e+21
34.1945  3.42055e+21
34.3118  3.38104e+21
34.4291  3.33621e+21
34.5464  3.28756e+21
34.6637  3.23627e+21
34.781  3.18386e+21
34.8983  3.13157e+21
35.0156  3.08026e+21
35.1329  3.0303e+21
35.2503  2.98202e+21
35.3676  2.93485e+21
35.4849  2.88789e+21
35.6022  2.84034e+21
35.7195  2.79089e+21
35.8368  2.73821e+21
35.9541  2.68144e+21
36.0714  2.61986e+21
36.1887  2.55323e+21
36.306  2.48204e+21
36.4233  2.40734e+21
36.5406  2.33095e+21
36.6579  2.25475e+21
36.7752  2.18135e+21
36.8925  2.11303e+21
37.0098  2.05202e+21
37.1271  2.00015e+21
37.2444  1.95855e+21
37.3617  1.92789e+21
37.479  1.908e+21
37.5964  1.89798e+21
37.7137  1.89669e+21
37.831  1.90214e+21
37.9483  1.91215e+21
38.0656  1.92409e+21
38.1829  1.93561e+21
38.3002  1.94417e+21
38.4175  1.9478e+21
38.5348  1.94507e+21
38.6521  1.93518e+21
38.7694  1.91839e+21
38.8867  1.89559e+21
39.004  1.86828e+21
39.1213  1.83835e+21
39.2386  1.80775e+21
39.3559  1.77808e+21
39.4732  1.75048e+21
39.5905  1.72533e+21
39.7078  1.7024e+21
39.8251  1.68095e+21
39.9425  1.66003e+21
40.0598  1.63849e+21
40.1771  1.61558e+21
40.2944  1.59081e+21
40.4117  1.56399e+21
40.529  1.53525e+21
40.6463  1.50521e+21
40.7636  1.47438e+21
40.8809  1.44323e+21
40.9982  1.41244e+21
41.1155  1.38229e+21
41.2328  1.35328e+21
41.3501  1.32533e+21
41.4674  1.29883e+21
41.5847  1.27357e+21
41.702  1.2494e+21
41.8193  1.22596e+21
41.9366  1.20255e+21
42.0539  1.17866e+21
42.1712  1.15344e+21
42.2885  1.1262e+21
42.4059  1.09684e+21
42.5232  1.06532e+21
42.6405  1.03239e+21
42.7578  9.98832e+20
42.8751  9.66228e+20
42.9924  9.35977e+20
43.1097  9.09385e+20
43.227  8.87603e+20
43.3443  8.71328e+20
43.4616  8.60908e+20
43.5789  8.56264e+20
43.6962  8.5696e+20
43.8135  8.62393e+20
43.9308  8.71707e+20
44.0481  8.84064e+20
44.1654  8.9833e+20
44.2827  9.1341e+20
44.4  9.28028e+20
44.5173  9.40958e+20
44.6347  9.51045e+20
44.752  9.57208e+20
44.8693  9.59203e+20
44.9866  9.56909e+20
45.1039  9.50672e+20
45.2212  9.41548e+20
45.3385  9.30806e+20
45.4558  9.19621e+20
45.5731  9.09035e+20
45.6904  8.99934e+20
45.8077  8.9233e+20
45.925  8.86024e+20
46.0423  8.80086e+20
46.1596  8.73598e+20
46.2769  8.65371e+20
46.3942  8.54367e+20
46.5115  8.40041e+20
46.6288  8.21997e+20
46.7461  8.00708e+20
46.8634  7.76833e+20
46.9808  7.51502e+20
47.0981  7.26232e+20
47.2154  7.02506e+20
47.3327  6.82026e+20
47.45  6.65909e+20
47.5673  6.55127e+20
47.6846  6.50073e+20
47.8019  6.50203e+20
47.9192  6.54664e+20
48.0365  6.61857e+20
48.1538  6.69928e+20
48.2711  6.76793e+20
48.3884  6.80662e+20
48.5057  6.80146e+20
48.623  6.74401e+20
48.7403  6.63378e+20
48.8576  6.47506e+20
48.9749  6.27975e+20
49.0922  6.06202e+20
49.2095  5.8382e+20
49.3269  5.62501e+20
49.4442  5.43436e+20
49.5615  5.28235e+20
49.6788  5.17733e+20
49.7961  5.12471e+20
49.9134  5.12936e+20
50.0307  5.1906e+20
50.148  5.30324e+20
50.2653  5.45995e+20
50.3826  5.64992e+20
50.4999  5.85775e+20
50.6172  6.0688e+20
50.7345  6.26758e+20
50.8518  6.44159e+20
