#S 1 spectral density
#N 2
#UFWHM 30.6166
#L  abscissas [um]  spectral density
-58.5938  1.79981e+20
-58.4764  1.80223e+20
-58.3591  1.79736e+20
-58.2418  1.79022e+20
-58.1245  1.78591e+20
-58.0072  1.79068e+20
-57.8899  1.80844e+20
-57.7726  1.84399e+20
-57.6553  1.90052e+20
-57.538  1.97914e+20
-57.4207  2.07953e+20
-57.3034  2.19836e+20
-57.1861  2.32963e+20
-57.0688  2.4636e+20
-56.9515  2.59119e+20
-56.8342  2.70138e+20
-56.7169  2.78538e+20
-56.5996  2.83847e+20
-56.4823  2.85936e+20
-56.365  2.85295e+20
-56.2477  2.82675e+20
-56.1303  2.79006e+20
-56.013  2.75362e+20
-55.8957  2.72394e+20
-55.7784  2.70624e+20
-55.6611  2.69752e+20
-55.5438  2.69282e+20
-55.4265  2.68364e+20
-55.3092  2.66054e+20
-55.1919  2.61352e+20
-55.0746  2.53744e+20
-54.9573  2.42875e+20
-54.84  2.2916e+20
-54.7227  2.13136e+20
-54.6054  1.95848e+20
-54.4881  1.78299e+20
-54.3708  1.6166e+20
-54.2535  1.46945e+20
-54.1362  1.34869e+20
-54.0189  1.25966e+20
-53.9016  1.20408e+20
-53.7842  1.18115e+20
-53.6669  1.18752e+20
-53.5496  1.21894e+20
-53.4323  1.27051e+20
-53.315  1.3367e+20
-53.1977  1.41325e+20
-53.0804  1.49749e+20
-52.9631  1.58682e+20
-52.8458  1.67975e+20
-52.7285  1.77704e+20
-52.6112  1.87907e+20
-52.4939  1.98669e+20
-52.3766  2.10078e+20
-52.2593  2.22256e+20
-52.142  2.35321e+20
-52.0247  2.49118e+20
-51.9074  2.63643e+20
-51.7901  2.78456e+20
-51.6728  2.93134e+20
-51.5555  3.0696e+20
-51.4381  3.19126e+20
-51.3208  3.28697e+20
-51.2035  3.34704e+20
-51.0862  3.36631e+20
-50.9689  3.34036e+20
-50.8516  3.27087e+20
-50.7343  3.16418e+20
-50.617  3.03128e+20
-50.4997  2.88595e+20
-50.3824  2.7432e+20
-50.2651  2.61825e+20
-50.1478  2.52323e+20
-50.0305  2.46648e+20
-49.9132  2.4521e+20
-49.7959  2.47796e+20
-49.6786  2.53965e+20
-49.5613  2.62772e+20
-49.444  2.73171e+20
-49.3267  2.83994e+20
-49.2094  2.94172e+20
-49.092  3.02744e+20
-48.9747  3.09043e+20
-48.8574  3.12645e+20
-48.7401  3.13712e+20
-48.6228  3.12704e+20
-48.5055  3.10552e+20
-48.3882  3.08604e+20
-48.2709  3.08084e+20
-48.1536  3.10328e+20
-48.0363  3.16328e+20
-47.919  3.26532e+20
-47.8017  3.40715e+20
-47.6844  3.5812e+20
-47.5671  3.77338e+20
-47.4498  3.96744e+20
-47.3325  4.14648e+20
-47.2152  4.2948e+20
-47.0979  4.40254e+20
-46.9806  4.46316e+20
-46.8633  4.47628e+20
-46.7459  4.4487e+20
-46.6286  4.38735e+20
-46.5113  4.30412e+20
-46.394  4.20702e+20
-46.2767  4.10813e+20
-46.1594  4.01496e+20
-46.0421  3.93208e+20
-45.9248  3.86296e+20
-45.8075  3.80887e+20
-45.6902  3.76764e+20
-45.5729  3.73823e+20
-45.4556  3.71548e+20
-45.3383  3.69826e+20
-45.221  3.68385e+20
-45.1037  3.67389e+20
-44.9864  3.67392e+20
-44.8691  3.68911e+20
-44.7518  3.72895e+20
-44.6345  3.80279e+20
-44.5172  3.91808e+20
-44.3998  4.07817e+20
-44.2825  4.28097e+20
-44.1652  4.51773e+20
-44.0479  4.77505e+20
-43.9306  5.03445e+20
-43.8133  5.27658e+20
-43.696  5.48303e+20
-43.5787  5.63984e+20
-43.4614  5.73843e+20
-43.3441  5.77688e+20
-43.2268  5.75859e+20
-43.1095  5.6939e+20
-42.9922  5.59456e+20
-42.8749  5.47517e+20
-42.7576  5.34945e+20
-42.6403  5.23343e+20
-42.523  5.13892e+20
-42.4057  5.07754e+20
-42.2884  5.05612e+20
-42.171  5.0806e+20
-42.0537  5.15101e+20
-41.9364  5.2627e+20
-41.8191  5.40717e+20
-41.7018  5.56933e+20
-41.5845  5.73538e+20
-41.4672  5.8879e+20
-41.3499  6.01356e+20
-41.2326  6.10298e+20
-41.1153  6.15293e+20
-40.998  6.16815e+20
-40.8807  6.15742e+20
-40.7634  6.13354e+20
-40.6461  6.11246e+20
-40.5288  6.10538e+20
-40.4115  6.12287e+20
-40.2942  6.16996e+20
-40.1769  6.2435e+20
-40.0596  6.33793e+20
-39.9423  6.44344e+20
-39.825  6.54559e+20
-39.7076  6.63395e+20
-39.5903  6.69458e+20
-39.473  6.71964e+20
-39.3557  6.70493e+20
-39.2384  6.64915e+20
-39.1211  6.5567e+20
-39.0038  6.43696e+20
-38.8865  6.30512e+20
-38.7692  6.17887e+20
-38.6519  6.08029e+20
-38.5346  6.02741e+20
-38.4173  6.04003e+20
-38.3  6.12868e+20
-38.1827  6.29695e+20
-38.0654  6.53962e+20
-37.9481  6.84102e+20
-37.8308  7.18077e+20
-37.7135  7.53086e+20
-37.5962  7.86425e+20
-37.4789  8.15921e+20
-37.3615  8.39464e+20
-37.2442  8.56327e+20
-37.1269  8.66377e+20
-37.0096  8.70151e+20
-36.8923  8.69103e+20
-36.775  8.64641e+20
-36.6577  8.58695e+20
-36.5404  8.52645e+20
-36.4231  8.4755e+20
-36.3058  8.4441e+20
-36.1885  8.43136e+20
-36.0712  8.43687e+20
-35.9539  8.45107e+20
-35.8366  8.46538e+20
-35.7193  8.46785e+20
-35.602  8.44648e+20
-35.4847  8.39013e+20
-35.3674  8.29243e+20
-35.2501  8.1479e+20
-35.1328  7.95975e+20
-35.0154  7.7368e+20
-34.8981  7.49096e+20
-34.7808  7.23828e+20
-34.6635  6.99802e+20
-34.5462  6.78802e+20
-34.4289  6.62161e+20
-34.3116  6.51123e+20
-34.1943  6.46095e+20
-34.077  6.47082e+20
-33.9597  6.53747e+20
-33.8424  6.64986e+20
-33.7251  6.79869e+20
-33.6078  6.97219e+20
-33.4905  7.15997e+20
-33.3732  7.35419e+20
-33.2559  7.54808e+20
-33.1386  7.7416e+20
-33.0213  7.93537e+20
-32.904  8.13507e+20
-32.7867  8.35066e+20
-32.6693  8.59147e+20
-32.552  8.86898e+20
-32.4347  9.19353e+20
-32.3174  9.56916e+20
-32.2001  9.99841e+20
-32.0828  1.04748e+21
-31.9655  1.09884e+21
-31.8482  1.15225e+21
-31.7309  1.20556e+21
-31.6136  1.25696e+21
-31.4963  1.30444e+21
-31.379  1.34663e+21
-31.2617  1.38236e+21
-31.1444  1.41161e+21
-31.0271  1.43489e+21
-30.9098  1.45313e+21
-30.7925  1.46785e+21
-30.6752  1.48047e+21
-30.5579  1.49234e+21
-30.4406  1.50482e+21
-30.3232  1.51845e+21
-30.2059  1.5336e+21
-30.0886  1.54962e+21
-29.9713  1.56569e+21
-29.854  1.58066e+21
-29.7367  1.59322e+21
-29.6194  1.6023e+21
-29.5021  1.60705e+21
-29.3848  1.60749e+21
-29.2675  1.60406e+21
-29.1502  1.59787e+21
-29.0329  1.59041e+21
-28.9156  1.58378e+21
-28.7983  1.57975e+21
-28.681  1.58007e+21
-28.5637  1.58614e+21
-28.4464  1.59882e+21
-28.3291  1.61844e+21
-28.2118  1.64479e+21
-28.0944  1.67734e+21
-27.9771  1.71534e+21
-27.8598  1.75776e+21
-27.7425  1.80382e+21
-27.6252  1.85262e+21
-27.5079  1.90351e+21
-27.3906  1.9562e+21
-27.2733  2.01062e+21
-27.156  2.06748e+21
-27.0387  2.12748e+21
-26.9214  2.19185e+21
-26.8041  2.26199e+21
-26.6868  2.33893e+21
-26.5695  2.42333e+21
-26.4522  2.51489e+21
-26.3349  2.61278e+21
-26.2176  2.71462e+21
-26.1003  2.81793e+21
-25.983  2.91886e+21
-25.8657  3.01399e+21
-25.7483  3.10022e+21
-25.631  3.17476e+21
-25.5137  3.23633e+21
-25.3964  3.28477e+21
-25.2791  3.32065e+21
-25.1618  3.34632e+21
-25.0445  3.36492e+21
-24.9272  3.37981e+21
-24.8099  3.39502e+21
-24.6926  3.41491e+21
-24.5753  3.44319e+21
-24.458  3.48331e+21
-24.3407  3.53756e+21
-24.2234  3.60769e+21
-24.1061  3.69346e+21
-23.9888  3.79349e+21
-23.8715  3.90534e+21
-23.7542  4.02517e+21
-23.6369  4.14865e+21
-23.5196  4.27146e+21
-23.4023  4.38986e+21
-23.2849  4.50104e+21
-23.1676  4.60345e+21
-23.0503  4.69725e+21
-22.933  4.78418e+21
-22.8157  4.86657e+21
-22.6984  4.94797e+21
-22.5811  5.03157e+21
-22.4638  5.1214e+21
-22.3465  5.22009e+21
-22.2292  5.32999e+21
-22.1119  5.45211e+21
-21.9946  5.58679e+21
-21.8773  5.73298e+21
-21.76  5.88805e+21
-21.6427  6.04889e+21
-21.5254  6.21096e+21
-21.4081  6.37027e+21
-21.2908  6.52175e+21
-21.1735  6.66179e+21
-21.0561  6.78782e+21
-20.9388  6.89844e+21
-20.8215  6.99441e+21
-20.7042  7.07782e+21
-20.5869  7.15182e+21
-20.4696  7.22098e+21
-20.3523  7.28983e+21
-20.235  7.36232e+21
-20.1177  7.44167e+21
-20.0004  7.53055e+21
-19.8831  7.63036e+21
-19.7658  7.74144e+21
-19.6485  7.86344e+21
-19.5312  7.99587e+21
-19.4139  8.13743e+21
-19.2966  8.28679e+21
-19.1793  8.44289e+21
-19.062  8.60376e+21
-18.9447  8.76794e+21
-18.8274  8.93384e+21
-18.71  9.10038e+21
-18.5927  9.26631e+21
-18.4754  9.43114e+21
-18.3581  9.59465e+21
-18.2408  9.75776e+21
-18.1235  9.92033e+21
-18.0062  1.0083e+22
-17.8889  1.02455e+22
-17.7716  1.0408e+22
-17.6543  1.05689e+22
-17.537  1.0727e+22
-17.4197  1.08801e+22
-17.3024  1.10272e+22
-17.1851  1.1167e+22
-17.0678  1.12993e+22
-16.9505  1.1425e+22
-16.8332  1.15458e+22
-16.7159  1.16648e+22
-16.5986  1.17852e+22
-16.4813  1.19108e+22
-16.364  1.20454e+22
-16.2466  1.21922e+22
-16.1293  1.23538e+22
-16.012  1.25311e+22
-15.8947  1.27245e+22
-15.7774  1.29329e+22
-15.6601  1.3154e+22
-15.5428  1.33845e+22
-15.4255  1.362e+22
-15.3082  1.38558e+22
-15.1909  1.40876e+22
-15.0736  1.43108e+22
-14.9563  1.45217e+22
-14.839  1.47181e+22
-14.7217  1.48988e+22
-14.6044  1.50637e+22
-14.4871  1.5215e+22
-14.3698  1.53544e+22
-14.2525  1.54854e+22
-14.1352  1.56113e+22
-14.0178  1.57358e+22
-13.9005  1.58616e+22
-13.7832  1.59913e+22
-13.6659  1.6126e+22
-13.5486  1.62668e+22
-13.4313  1.64127e+22
-13.314  1.65629e+22
-13.1967  1.67154e+22
-13.0794  1.68683e+22
-12.9621  1.70188e+22
-12.8448  1.71648e+22
-12.7275  1.73041e+22
-12.6102  1.74359e+22
-12.4929  1.75594e+22
-12.3756  1.76751e+22
-12.2583  1.77843e+22
-12.141  1.78891e+22
-12.0237  1.79914e+22
-11.9064  1.8094e+22
-11.7891  1.81994e+22
-11.6718  1.83095e+22
-11.5544  1.84265e+22
-11.4371  1.85518e+22
-11.3198  1.86857e+22
-11.2025  1.88288e+22
-11.0852  1.89809e+22
-10.9679  1.91417e+22
-10.8506  1.93107e+22
-10.7333  1.94869e+22
-10.616  1.96692e+22
-10.4987  1.98575e+22
-10.3814  2.00504e+22
-10.2641  2.02473e+22
-10.1468  2.04474e+22
-10.0295  2.06502e+22
-9.91217  2.08542e+22
-9.79487  2.10588e+22
-9.67756  2.12618e+22
-9.56026  2.14613e+22
-9.44295  2.16545e+22
-9.32565  2.18394e+22
-9.20834  2.20125e+22
-9.09104  2.21716e+22
-8.97373  2.23147e+22
-8.85643  2.24406e+22
-8.73913  2.25489e+22
-8.62182  2.26408e+22
-8.50452  2.27186e+22
-8.38721  2.27852e+22
-8.26991  2.2844e+22
-8.1526  2.28993e+22
-8.03529  2.29542e+22
-7.91799  2.3012e+22
-7.80069  2.30754e+22
-7.68338  2.31453e+22
-7.56608  2.32221e+22
-7.44877  2.3305e+22
-7.33146  2.33912e+22
-7.21416  2.34781e+22
-7.09685  2.35624e+22
-6.97955  2.36399e+22
-6.86224  2.37077e+22
-6.74494  2.37641e+22
-6.62763  2.38065e+22
-6.51033  2.38363e+22
-6.39302  2.38548e+22
-6.27572  2.38652e+22
-6.15842  2.38723e+22
-6.04111  2.38811e+22
-5.92381  2.3897e+22
-5.8065  2.39261e+22
-5.68919  2.39726e+22
-5.57189  2.40407e+22
-5.45458  2.41322e+22
-5.33728  2.42486e+22
-5.21997  2.43882e+22
-5.10267  2.45483e+22
-4.98536  2.47247e+22
-4.86806  2.49116e+22
-4.75075  2.51026e+22
-4.63345  2.52917e+22
-4.51614  2.54727e+22
-4.39884  2.56407e+22
-4.28154  2.57933e+22
-4.16423  2.59287e+22
-4.04692  2.60475e+22
-3.92962  2.61524e+22
-3.81231  2.62471e+22
-3.69501  2.63355e+22
-3.5777  2.64222e+22
-3.4604  2.65106e+22
-3.34309  2.66033e+22
-3.22579  2.67011e+22
-3.10849  2.6804e+22
-2.99118  2.691e+22
-2.87387  2.70161e+22
-2.75657  2.71187e+22
-2.63926  2.72123e+22
-2.52196  2.72922e+22
-2.40465  2.73533e+22
-2.28735  2.73904e+22
-2.17005  2.74001e+22
-2.05274  2.73806e+22
-1.93544  2.73306e+22
-1.81813  2.72524e+22
-1.70083  2.71491e+22
-1.58352  2.70261e+22
-1.46622  2.68896e+22
-1.34891  2.67465e+22
-1.2316  2.6603e+22
-1.1143  2.64653e+22
-0.996995  2.63375e+22
-0.87969  2.62233e+22
-0.762385  2.61234e+22
-0.64508  2.60396e+22
-0.527775  2.5971e+22
-0.41047  2.59172e+22
-0.293165  2.58775e+22
-0.17586  2.58513e+22
-0.058555  2.58385e+22
0.05875  2.58384e+22
0.176055  2.58512e+22
0.29336  2.58768e+22
0.410665  2.59163e+22
0.52797  2.59694e+22
0.645275  2.60373e+22
0.76258  2.61203e+22
0.879885  2.62188e+22
0.99719  2.63317e+22
1.1145  2.64578e+22
1.2318  2.65935e+22
1.3491  2.67352e+22
1.46641  2.68761e+22
1.58371  2.70103e+22
1.70102  2.71308e+22
1.81832  2.72316e+22
1.93563  2.73072e+22
2.05294  2.73545e+22
2.17024  2.7372e+22
2.28754  2.73602e+22
2.40485  2.7321e+22
2.52216  2.72583e+22
2.63946  2.71768e+22
2.75677  2.70814e+22
2.87407  2.69776e+22
2.99137  2.68699e+22
3.10868  2.67623e+22
3.22599  2.66578e+22
3.34329  2.65584e+22
3.4606  2.64643e+22
3.5779  2.6374e+22
3.69521  2.62852e+22
3.81251  2.61948e+22
3.92982  2.60977e+22
4.04712  2.59906e+22
4.16443  2.58695e+22
4.28173  2.57319e+22
4.39903  2.55774e+22
4.51634  2.54072e+22
4.63364  2.52246e+22
4.75095  2.50339e+22
4.86825  2.48414e+22
4.98556  2.46534e+22
5.10286  2.44763e+22
5.22017  2.43152e+22
5.33748  2.4175e+22
5.45478  2.40582e+22
5.57209  2.39661e+22
5.68939  2.38972e+22
5.8067  2.385e+22
5.924  2.38201e+22
6.0413  2.38032e+22
6.15861  2.37933e+22
6.27591  2.3785e+22
6.39322  2.37732e+22
6.51052  2.37534e+22
6.62783  2.37221e+22
6.74514  2.36779e+22
6.86244  2.36208e+22
6.97975  2.35515e+22
7.09705  2.34727e+22
7.21436  2.33877e+22
7.33166  2.32997e+22
7.44897  2.32125e+22
7.56627  2.31293e+22
7.68358  2.30517e+22
7.80088  2.29809e+22
7.91819  2.29166e+22
8.03549  2.28577e+22
8.1528  2.2802e+22
8.2701  2.27455e+22
8.38741  2.2685e+22
8.50471  2.26169e+22
8.62202  2.25372e+22
8.73932  2.2443e+22
8.85662  2.23327e+22
8.97393  2.22047e+22
9.09123  2.20595e+22
9.20854  2.18982e+22
9.32584  2.17231e+22
9.44315  2.15363e+22
9.56045  2.13409e+22
9.67776  2.11399e+22
9.79506  2.09354e+22
9.91237  2.07295e+22
10.0297  2.05244e+22
10.147  2.03208e+22
10.2643  2.01201e+22
10.3816  1.99224e+22
10.4989  1.97292e+22
10.6162  1.95407e+22
10.7335  1.93581e+22
10.8508  1.91819e+22
10.9681  1.90127e+22
11.0854  1.88521e+22
11.2027  1.86998e+22
11.32  1.85564e+22
11.4373  1.84223e+22
11.5546  1.82971e+22
11.6719  1.81797e+22
11.7893  1.80691e+22
11.9066  1.79636e+22
12.0239  1.78602e+22
12.1412  1.77575e+22
12.2585  1.76524e+22
12.3758  1.75427e+22
12.4931  1.74265e+22
12.6104  1.73023e+22
12.7277  1.71702e+22
12.845  1.70307e+22
12.9623  1.68843e+22
13.0796  1.67336e+22
13.1969  1.65807e+22
13.3142  1.6428e+22
13.4315  1.62773e+22
13.5488  1.61314e+22
13.6661  1.59906e+22
13.7834  1.58555e+22
13.9007  1.57255e+22
14.018  1.55994e+22
14.1354  1.54744e+22
14.2527  1.53477e+22
14.37  1.52162e+22
14.4873  1.5076e+22
14.6046  1.4924e+22
14.7219  1.47583e+22
14.8392  1.45769e+22
14.9565  1.43801e+22
15.0738  1.41686e+22
15.1911  1.39453e+22
15.3084  1.37133e+22
15.4257  1.34773e+22
15.543  1.32422e+22
15.6603  1.30119e+22
15.7776  1.27913e+22
15.8949  1.25834e+22
16.0122  1.23904e+22
16.1295  1.22136e+22
16.2468  1.20528e+22
16.3641  1.19063e+22
16.4815  1.17722e+22
16.5988  1.16472e+22
16.7161  1.15269e+22
16.8334  1.14085e+22
16.9507  1.12879e+22
17.068  1.11627e+22
17.1853  1.10308e+22
17.3026  1.08913e+22
17.4199  1.07448e+22
17.5372  1.05921e+22
17.6545  1.04347e+22
17.7718  1.02747e+22
17.8891  1.01131e+22
18.0064  9.95145e+21
18.1237  9.78971e+21
18.241  9.62832e+21
18.3583  9.46644e+21
18.4756  9.30383e+21
18.5929  9.14027e+21
18.7102  8.97569e+21
18.8275  8.81061e+21
18.9449  8.64592e+21
19.0622  8.48336e+21
19.1795  8.3239e+21
19.2968  8.16935e+21
19.4141  8.02134e+21
19.5314  7.88113e+21
19.6487  7.75009e+21
19.766  7.62931e+21
19.8833  7.51944e+21
20.0006  7.42062e+21
20.1179  7.3325e+21
20.2352  7.25399e+21
20.3525  7.18213e+21
20.4698  7.11401e+21
20.5871  7.0453e+21
20.7044  6.97159e+21
20.8217  6.88869e+21
20.939  6.79319e+21
21.0563  6.68286e+21
21.1736  6.55761e+21
21.291  6.41829e+21
21.4083  6.26764e+21
21.5256  6.10974e+21
21.6429  5.94876e+21
21.7602  5.78954e+21
21.8775  5.63599e+21
21.9948  5.49156e+21
22.1121  5.35853e+21
22.2294  5.23775e+21
22.3467  5.12938e+21
22.464  5.0322e+21
22.5813  4.9437e+21
22.6986  4.86127e+21
22.8159  4.78113e+21
22.9332  4.69973e+21
23.0505  4.61382e+21
23.1678  4.5209e+21
23.2851  4.41952e+21
23.4024  4.30944e+21
23.5198  4.1922e+21
23.6371  4.07063e+21
23.7544  3.94856e+21
23.8717  3.83024e+21
23.989  3.7199e+21
24.1063  3.62133e+21
24.2236  3.53722e+21
24.3409  3.46864e+21
24.4582  3.41578e+21
24.5755  3.377e+21
24.6928  3.34984e+21
24.8101  3.33102e+21
24.9274  3.31672e+21
25.0447  3.3027e+21
25.162  3.285e+21
25.2793  3.25999e+21
25.3966  3.22473e+21
25.5139  3.17725e+21
25.6312  3.11643e+21
25.7485  3.04258e+21
25.8658  2.95746e+21
25.9832  2.86322e+21
26.1005  2.76345e+21
26.2178  2.66158e+21
26.3351  2.56093e+21
26.4524  2.46452e+21
26.5697  2.37432e+21
26.687  2.29139e+21
26.8043  2.21586e+21
26.9216  2.14706e+21
27.0389  2.08393e+21
27.1562  2.0252e+21
27.2735  1.96952e+21
27.3908  1.91625e+21
27.5081  1.86474e+21
27.6254  1.81491e+21
27.7427  1.76722e+21
27.86  1.72222e+21
27.9773  1.68082e+21
28.0946  1.64386e+21
28.212  1.61225e+21
28.3293  1.58692e+21
28.4466  1.56819e+21
28.5639  1.55637e+21
28.6812  1.55102e+21
28.7985  1.55135e+21
28.9158  1.55607e+21
29.0331  1.56328e+21
29.1504  1.57127e+21
29.2677  1.57795e+21
29.385  1.58188e+21
29.5023  1.58193e+21
29.6196  1.57765e+21
29.7369  1.56915e+21
29.8542  1.55715e+21
29.9715  1.54287e+21
30.0888  1.52738e+21
30.2061  1.51204e+21
30.3234  1.49762e+21
30.4407  1.48458e+21
30.558  1.47277e+21
30.6754  1.46129e+21
30.7927  1.44931e+21
30.91  1.43518e+21
31.0273  1.41729e+21
31.1446  1.39442e+21
31.2619  1.36557e+21
31.3792  1.33012e+21
31.4965  1.28854e+21
31.6138  1.24164e+21
31.7311  1.19084e+21
31.8484  1.13811e+21
31.9657  1.0854e+21
32.083  1.0348e+21
32.2003  9.87863e+20
32.3176  9.45693e+20
32.4349  9.08792e+20
32.5522  8.76997e+20
32.6695  8.49754e+20
32.7868  8.26209e+20
32.9042  8.05158e+20
33.0215  7.85539e+20
33.1388  7.66526e+20
33.2561  7.47486e+20
33.3734  7.2845e+20
33.4907  7.09432e+20
33.608  6.90993e+20
33.7253  6.73988e+20
33.8426  6.59514e+20
33.9599  6.48678e+20
34.0772  6.42527e+20
34.1945  6.41905e+20
34.3118  6.47285e+20
34.4291  6.58656e+20
34.5464  6.75614e+20
34.6637  6.96984e+20
34.781  7.2112e+20
34.8983  7.46383e+20
35.0156  7.70974e+20
35.1329  7.93279e+20
35.2503  8.11983e+20
35.3676  8.26329e+20
35.4849  8.36092e+20
35.6022  8.41673e+20
35.7195  8.43828e+20
35.8368  8.43533e+20
35.9541  8.42165e+20
36.0714  8.40761e+20
36.1887  8.40451e+20
36.306  8.41847e+20
36.4233  8.45154e+20
36.5406  8.50265e+20
36.6579  8.56355e+20
36.7752  8.62246e+20
36.8925  8.66616e+20
37.0098  8.67564e+20
37.1271  8.63583e+20
37.2444  8.53377e+20
37.3617  8.36265e+20
37.479  8.12508e+20
37.5964  7.82947e+20
37.7137  7.4948e+20
37.831  7.145e+20
37.9483  6.8062e+20
38.0656  6.50708e+20
38.1829  6.2667e+20
38.3002  6.10045e+20
38.4175  6.01456e+20
38.5348  6.00319e+20
38.6521  6.05705e+20
38.7694  6.15669e+20
38.8867  6.28247e+20
39.004  6.41313e+20
39.1213  6.53121e+20
39.2386  6.62307e+20
39.3559  6.67741e+20
39.4732  6.69127e+20
39.5905  6.66437e+20
39.7078  6.60245e+20
39.8251  6.51388e+20
39.9425  6.41129e+20
40.0598  6.30692e+20
40.1771  6.21258e+20
40.2944  6.13909e+20
40.4117  6.09375e+20
40.529  6.07544e+20
40.6463  6.08194e+20
40.7636  6.10342e+20
40.8809  6.12628e+20
40.9982  6.13667e+20
41.1155  6.11956e+20
41.2328  6.06749e+20
41.3501  5.97649e+20
41.4674  5.84942e+20
41.5847  5.6963e+20
41.702  5.52965e+20
41.8193  5.36779e+20
41.9366  5.22441e+20
42.0539  5.11387e+20
42.1712  5.04554e+20
42.2885  5.02189e+20
42.4059  5.04428e+20
42.5232  5.1073e+20
42.6405  5.20304e+20
42.7578  5.31965e+20
42.8751  5.44465e+20
42.9924  5.56425e+20
43.1097  5.66379e+20
43.227  5.72696e+20
43.3443  5.7442e+20
43.4616  5.70429e+20
43.5789  5.6046e+20
43.6962  5.44606e+20
43.8135  5.23889e+20
43.9308  4.99627e+20
44.0481  4.73655e+20
44.1654  4.48042e+20
44.2827  4.24442e+20
44.4  4.04294e+20
44.5173  3.8846e+20
44.6347  3.77096e+20
44.752  3.69831e+20
44.8693  3.65933e+20
44.9866  3.64509e+20
45.1039  3.6464e+20
45.2212  3.6564e+20
45.3385  3.67108e+20
45.4558  3.68906e+20
45.5731  3.71205e+20
45.6904  3.74323e+20
45.8077  3.78421e+20
45.925  3.83935e+20
46.0423  3.9088e+20
46.1596  3.99278e+20
46.2769  4.08645e+20
46.3942  4.18533e+20
46.5115  4.28166e+20
46.6288  4.36496e+20
46.7461  4.4253e+20
46.8634  4.45257e+20
46.9808  4.43764e+20
47.0981  4.37624e+20
47.2154  4.26778e+20
47.3327  4.11914e+20
47.45  3.93961e+20
47.5673  3.74597e+20
47.6846  3.5549e+20
47.8019  3.38284e+20
47.9192  3.24226e+20
48.0365  3.14246e+20
48.1538  3.08412e+20
48.2711  3.06295e+20
48.3884  3.0686e+20
48.5057  3.08928e+20
48.623  3.11024e+20
48.7403  3.11977e+20
48.8576  3.10818e+20
48.9749  3.07093e+20
49.0922  3.0076e+20
49.2095  2.92176e+20
49.3269  2.82013e+20
49.4442  2.71221e+20
49.5615  2.60855e+20
49.6788  2.52223e+20
49.7961  2.4622e+20
49.9134  2.43799e+20
50.0307  2.45458e+20
50.148  2.51254e+20
50.2653  2.60876e+20
50.3826  2.73485e+20
50.4999  2.87772e+20
50.6172  3.02321e+20
50.7345  3.15592e+20
50.8518  3.26159e+20
