#S 1 spectral density
#N 2
#UFWHM 13.7247
#L  abscissas [um]  spectral density
-58.5938  4.5758e+19
-58.4764  4.27307e+19
-58.3591  3.98767e+19
-58.2418  3.73947e+19
-58.1245  3.54434e+19
-58.0072  3.41493e+19
-57.8899  3.35899e+19
-57.7726  3.38901e+19
-57.6553  3.5208e+19
-57.538  3.76908e+19
-57.4207  4.14862e+19
-57.3034  4.65627e+19
-57.1861  5.2769e+19
-57.0688  5.96978e+19
-56.9515  6.67836e+19
-56.8342  7.33724e+19
-56.7169  7.87304e+19
-56.5996  8.22561e+19
-56.4823  8.35422e+19
-56.365  8.25485e+19
-56.2477  7.94211e+19
-56.1303  7.46008e+19
-56.013  6.86944e+19
-55.8957  6.23542e+19
-55.7784  5.62426e+19
-55.6611  5.08516e+19
-55.5438  4.65784e+19
-55.4265  4.36391e+19
-55.3092  4.2149e+19
-55.1919  4.20916e+19
-55.0746  4.3453e+19
-54.9573  4.60762e+19
-54.84  4.9844e+19
-54.7227  5.44967e+19
-54.6054  5.98233e+19
-54.4881  6.54857e+19
-54.3708  7.11173e+19
-54.2535  7.62916e+19
-54.1362  8.07222e+19
-54.0189  8.40757e+19
-53.9016  8.61222e+19
-53.7842  8.67738e+19
-53.6669  8.60668e+19
-53.5496  8.41533e+19
-53.4323  8.12631e+19
-53.315  7.7766e+19
-53.1977  7.39139e+19
-53.0804  7.01095e+19
-52.9631  6.66227e+19
-52.8458  6.36638e+19
-52.7285  6.13476e+19
-52.6112  5.96545e+19
-52.4939  5.84933e+19
-52.3766  5.77563e+19
-52.2593  5.73177e+19
-52.142  5.71427e+19
-52.0247  5.71845e+19
-51.9074  5.75516e+19
-51.7901  5.8364e+19
-51.6728  5.97675e+19
-51.5555  6.18661e+19
-51.4381  6.46172e+19
-51.3208  6.79429e+19
-51.2035  7.15974e+19
-51.0862  7.53798e+19
-50.9689  7.90052e+19
-50.8516  8.22623e+19
-50.7343  8.51538e+19
-50.617  8.76904e+19
-50.4997  8.99793e+19
-50.3824  9.22714e+19
-50.2651  9.4612e+19
-50.1478  9.7144e+19
-50.0305  9.97355e+19
-49.9132  1.02382e+20
-49.7959  1.04869e+20
-49.6786  1.07018e+20
-49.5613  1.08676e+20
-49.444  1.09878e+20
-49.3267  1.10577e+20
-49.2094  1.10837e+20
-49.092  1.10738e+20
-48.9747  1.10261e+20
-48.8574  1.09362e+20
-48.7401  1.07991e+20
-48.6228  1.06005e+20
-48.5055  1.03315e+20
-48.3882  9.99991e+19
-48.2709  9.61924e+19
-48.1536  9.21551e+19
-48.0363  8.82657e+19
-47.919  8.47933e+19
-47.8017  8.20271e+19
-47.6844  8.013e+19
-47.5671  7.91158e+19
-47.4498  7.88756e+19
-47.3325  7.92067e+19
-47.2152  7.98257e+19
-47.0979  8.05146e+19
-46.9806  8.10294e+19
-46.8633  8.12312e+19
-46.7459  8.095e+19
-46.6286  8.01247e+19
-46.5113  7.87016e+19
-46.394  7.66396e+19
-46.2767  7.40127e+19
-46.1594  7.08668e+19
-46.0421  6.7479e+19
-45.9248  6.40631e+19
-45.8075  6.09222e+19
-45.6902  5.84356e+19
-45.5729  5.68119e+19
-45.4556  5.62597e+19
-45.3383  5.68222e+19
-45.221  5.85613e+19
-45.1037  6.13929e+19
-44.9864  6.52368e+19
-44.8691  6.99699e+19
-44.7518  7.56057e+19
-44.6345  8.20269e+19
-44.5172  8.90945e+19
-44.3998  9.66098e+19
-44.2825  1.04189e+20
-44.1652  1.11353e+20
-44.0479  1.17566e+20
-43.9306  1.22236e+20
-43.8133  1.24912e+20
-43.696  1.25411e+20
-43.5787  1.23827e+20
-43.4614  1.20559e+20
-43.3441  1.16212e+20
-43.2268  1.11494e+20
-43.1095  1.07129e+20
-42.9922  1.03747e+20
-42.8749  1.01706e+20
-42.7576  1.0116e+20
-42.6403  1.02113e+20
-42.523  1.04351e+20
-42.4057  1.0773e+20
-42.2884  1.1204e+20
-42.171  1.17146e+20
-42.0537  1.22858e+20
-41.9364  1.29085e+20
-41.8191  1.35525e+20
-41.7018  1.41812e+20
-41.5845  1.47536e+20
-41.4672  1.52159e+20
-41.3499  1.55327e+20
-41.2326  1.56674e+20
-41.1153  1.56113e+20
-40.998  1.53838e+20
-40.8807  1.50142e+20
-40.7634  1.45489e+20
-40.6461  1.40392e+20
-40.5288  1.35321e+20
-40.4115  1.3059e+20
-40.2942  1.2645e+20
-40.1769  1.22912e+20
-40.0596  1.20157e+20
-39.9423  1.18182e+20
-39.825  1.17085e+20
-39.7076  1.17053e+20
-39.5903  1.18173e+20
-39.473  1.20545e+20
-39.3557  1.24097e+20
-39.2384  1.2855e+20
-39.1211  1.33396e+20
-39.0038  1.38069e+20
-38.8865  1.42061e+20
-38.7692  1.44801e+20
-38.6519  1.45987e+20
-38.5346  1.45556e+20
-38.4173  1.43715e+20
-38.3  1.4086e+20
-38.1827  1.37497e+20
-38.0654  1.34165e+20
-37.9481  1.31368e+20
-37.8308  1.29424e+20
-37.7135  1.28593e+20
-37.5962  1.29015e+20
-37.4789  1.30728e+20
-37.3615  1.33699e+20
-37.2442  1.38e+20
-37.1269  1.43473e+20
-37.0096  1.50003e+20
-36.8923  1.57356e+20
-36.775  1.65168e+20
-36.6577  1.73075e+20
-36.5404  1.8043e+20
-36.4231  1.86777e+20
-36.3058  1.9167e+20
-36.1885  1.94801e+20
-36.0712  1.96062e+20
-35.9539  1.95559e+20
-35.8366  1.93592e+20
-35.7193  1.90521e+20
-35.602  1.86947e+20
-35.4847  1.83245e+20
-35.3674  1.80039e+20
-35.2501  1.77726e+20
-35.1328  1.7666e+20
-35.0154  1.77112e+20
-34.8981  1.79216e+20
-34.7808  1.82993e+20
-34.6635  1.88287e+20
-34.5462  1.94777e+20
-34.4289  2.01907e+20
-34.3116  2.0913e+20
-34.1943  2.15919e+20
-34.077  2.21608e+20
-33.9597  2.25807e+20
-33.8424  2.28332e+20
-33.7251  2.2918e+20
-33.6078  2.28563e+20
-33.4905  2.26959e+20
-33.3732  2.24816e+20
-33.2559  2.22755e+20
-33.1386  2.21235e+20
-33.0213  2.20747e+20
-32.904  2.21608e+20
-32.7867  2.23973e+20
-32.6693  2.27978e+20
-32.552  2.33655e+20
-32.4347  2.40805e+20
-32.3174  2.49257e+20
-32.2001  2.5862e+20
-32.0828  2.68544e+20
-31.9655  2.78578e+20
-31.8482  2.88116e+20
-31.7309  2.96806e+20
-31.6136  3.04273e+20
-31.4963  3.10304e+20
-31.379  3.14893e+20
-31.2617  3.18215e+20
-31.1444  3.2054e+20
-31.0271  3.22159e+20
-30.9098  3.23477e+20
-30.7925  3.24644e+20
-30.6752  3.25949e+20
-30.5579  3.27415e+20
-30.4406  3.2896e+20
-30.3232  3.30273e+20
-30.2059  3.31215e+20
-30.0886  3.31374e+20
-29.9713  3.30383e+20
-29.854  3.28024e+20
-29.7367  3.24044e+20
-29.6194  3.18471e+20
-29.5021  3.11643e+20
-29.3848  3.03894e+20
-29.2675  2.95942e+20
-29.1502  2.88682e+20
-29.0329  2.82904e+20
-28.9156  2.79425e+20
-28.7983  2.78962e+20
-28.681  2.81762e+20
-28.5637  2.88003e+20
-28.4464  2.97347e+20
-28.3291  3.094e+20
-28.2118  3.2352e+20
-28.0944  3.38937e+20
-27.9771  3.5505e+20
-27.8598  3.71131e+20
-27.7425  3.86628e+20
-27.6252  4.01028e+20
-27.5079  4.13902e+20
-27.3906  4.25008e+20
-27.2733  4.34151e+20
-27.156  4.41336e+20
-27.0387  4.46889e+20
-26.9214  4.5125e+20
-26.8041  4.5509e+20
-26.6868  4.59179e+20
-26.5695  4.64251e+20
-26.4522  4.70824e+20
-26.3349  4.79023e+20
-26.2176  4.88735e+20
-26.1003  4.99281e+20
-25.983  5.10011e+20
-25.8657  5.20072e+20
-25.7483  5.28619e+20
-25.631  5.35145e+20
-25.5137  5.39684e+20
-25.3964  5.42317e+20
-25.2791  5.43562e+20
-25.1618  5.4416e+20
-25.0445  5.44906e+20
-24.9272  5.46431e+20
-24.8099  5.4938e+20
-24.6926  5.54027e+20
-24.5753  5.60743e+20
-24.458  5.69437e+20
-24.3407  5.80028e+20
-24.2234  5.92115e+20
-24.1061  6.05322e+20
-23.9888  6.18831e+20
-23.8715  6.31863e+20
-23.7542  6.43518e+20
-23.6369  6.52951e+20
-23.5196  6.5948e+20
-23.4023  6.62897e+20
-23.2849  6.63333e+20
-23.1676  6.61272e+20
-23.0503  6.57931e+20
-22.933  6.54264e+20
-22.8157  6.51938e+20
-22.6984  6.52073e+20
-22.5811  6.55756e+20
-22.4638  6.63854e+20
-22.3465  6.76584e+20
-22.2292  6.94246e+20
-22.1119  7.16533e+20
-21.9946  7.42906e+20
-21.8773  7.72544e+20
-21.76  8.04369e+20
-21.6427  8.37051e+20
-21.5254  8.69118e+20
-21.4081  8.98767e+20
-21.2908  9.24579e+20
-21.1735  9.4529e+20
-21.0561  9.60083e+20
-20.9388  9.69011e+20
-20.8215  9.72946e+20
-20.7042  9.72971e+20
-20.5869  9.71058e+20
-20.4696  9.69173e+20
-20.3523  9.6933e+20
-20.235  9.73022e+20
-20.1177  9.81403e+20
-20.0004  9.95013e+20
-19.8831  1.01411e+21
-19.7658  1.03817e+21
-19.6485  1.06713e+21
-19.5312  1.10027e+21
-19.4139  1.13723e+21
-19.2966  1.17748e+21
-19.1793  1.22021e+21
-19.062  1.26482e+21
-18.9447  1.31026e+21
-18.8274  1.35541e+21
-18.71  1.39933e+21
-18.5927  1.44117e+21
-18.4754  1.48039e+21
-18.3581  1.51716e+21
-18.2408  1.55166e+21
-18.1235  1.58519e+21
-18.0062  1.61849e+21
-17.8889  1.65289e+21
-17.7716  1.6894e+21
-17.6543  1.7285e+21
-17.537  1.77072e+21
-17.4197  1.81602e+21
-17.3024  1.86393e+21
-17.1851  1.91398e+21
-17.0678  1.96571e+21
-16.9505  2.01865e+21
-16.8332  2.07236e+21
-16.7159  2.12655e+21
-16.5986  2.181e+21
-16.4813  2.2352e+21
-16.364  2.28903e+21
-16.2466  2.34201e+21
-16.1293  2.39387e+21
-16.012  2.44442e+21
-15.8947  2.49359e+21
-15.7774  2.54133e+21
-15.6601  2.58817e+21
-15.5428  2.63416e+21
-15.4255  2.67989e+21
-15.3082  2.72599e+21
-15.1909  2.77265e+21
-15.0736  2.82029e+21
-14.9563  2.86949e+21
-14.839  2.92084e+21
-14.7217  2.97441e+21
-14.6044  3.03123e+21
-14.4871  3.09154e+21
-14.3698  3.15633e+21
-14.2525  3.2261e+21
-14.1352  3.30152e+21
-14.0178  3.3832e+21
-13.9005  3.47164e+21
-13.7832  3.5674e+21
-13.6659  3.67081e+21
-13.5486  3.78216e+21
-13.4313  3.90201e+21
-13.314  4.02989e+21
-13.1967  4.1661e+21
-13.0794  4.31037e+21
-12.9621  4.4625e+21
-12.8448  4.62231e+21
-12.7275  4.7897e+21
-12.6102  4.9645e+21
-12.4929  5.14681e+21
-12.3756  5.33706e+21
-12.2583  5.5359e+21
-12.141  5.74407e+21
-12.0237  5.9626e+21
-11.9064  6.19264e+21
-11.7891  6.43515e+21
-11.6718  6.69146e+21
-11.5544  6.96228e+21
-11.4371  7.24783e+21
-11.3198  7.54906e+21
-11.2025  7.86576e+21
-11.0852  8.19763e+21
-10.9679  8.54443e+21
-10.8506  8.90503e+21
-10.7333  9.27818e+21
-10.616  9.6633e+21
-10.4987  1.00582e+22
-10.3814  1.04619e+22
-10.2641  1.08735e+22
-10.1468  1.12928e+22
-10.0295  1.17188e+22
-9.91217  1.2153e+22
-9.79487  1.25958e+22
-9.67756  1.3049e+22
-9.56026  1.35141e+22
-9.44295  1.39931e+22
-9.32565  1.44878e+22
-9.20834  1.49999e+22
-9.09104  1.5531e+22
-8.97373  1.60817e+22
-8.85643  1.66537e+22
-8.73913  1.72467e+22
-8.62182  1.78603e+22
-8.50452  1.84942e+22
-8.38721  1.91471e+22
-8.26991  1.98183e+22
-8.1526  2.0506e+22
-8.03529  2.12087e+22
-7.91799  2.19246e+22
-7.80069  2.26531e+22
-7.68338  2.3392e+22
-7.56608  2.4141e+22
-7.44877  2.48986e+22
-7.33146  2.56644e+22
-7.21416  2.64372e+22
-7.09685  2.72162e+22
-6.97955  2.79998e+22
-6.86224  2.87867e+22
-6.74494  2.95746e+22
-6.62763  3.03614e+22
-6.51033  3.11445e+22
-6.39302  3.19214e+22
-6.27572  3.269e+22
-6.15842  3.34474e+22
-6.04111  3.41911e+22
-5.92381  3.49206e+22
-5.8065  3.56337e+22
-5.68919  3.633e+22
-5.57189  3.70103e+22
-5.45458  3.76754e+22
-5.33728  3.83271e+22
-5.21997  3.89682e+22
-5.10267  3.96014e+22
-4.98536  4.02297e+22
-4.86806  4.08558e+22
-4.75075  4.14825e+22
-4.63345  4.21113e+22
-4.51614  4.27434e+22
-4.39884  4.33792e+22
-4.28154  4.40183e+22
-4.16423  4.46607e+22
-4.04692  4.53034e+22
-3.92962  4.59447e+22
-3.81231  4.65822e+22
-3.69501  4.72117e+22
-3.5777  4.78305e+22
-3.4604  4.84343e+22
-3.34309  4.90189e+22
-3.22579  4.95808e+22
-3.10849  5.01179e+22
-2.99118  5.06272e+22
-2.87387  5.11084e+22
-2.75657  5.15612e+22
-2.63926  5.19871e+22
-2.52196  5.23869e+22
-2.40465  5.27636e+22
-2.28735  5.31189e+22
-2.17005  5.34556e+22
-2.05274  5.37762e+22
-1.93544  5.40824e+22
-1.81813  5.43765e+22
-1.70083  5.46602e+22
-1.58352  5.49348e+22
-1.46622  5.52011e+22
-1.34891  5.54592e+22
-1.2316  5.57089e+22
-1.1143  5.59486e+22
-0.996995  5.61763e+22
-0.87969  5.63896e+22
-0.762385  5.65846e+22
-0.64508  5.67589e+22
-0.527775  5.69095e+22
-0.41047  5.70336e+22
-0.293165  5.71289e+22
-0.17586  5.71947e+22
-0.058555  5.72298e+22
0.05875  5.72334e+22
0.176055  5.72057e+22
0.29336  5.71474e+22
0.410665  5.70592e+22
0.52797  5.69424e+22
0.645275  5.67989e+22
0.76258  5.66315e+22
0.879885  5.64433e+22
0.99719  5.62371e+22
1.1145  5.60165e+22
1.2318  5.57839e+22
1.3491  5.55413e+22
1.46641  5.52903e+22
1.58371  5.50311e+22
1.70102  5.4764e+22
1.81832  5.44878e+22
1.93563  5.42013e+22
2.05294  5.39027e+22
2.17024  5.359e+22
2.28754  5.3261e+22
2.40485  5.2913e+22
2.52216  5.25438e+22
2.63946  5.21509e+22
2.75677  5.17319e+22
2.87407  5.12853e+22
2.99137  5.08103e+22
3.10868  5.03064e+22
3.22599  4.97747e+22
3.34329  4.92177e+22
3.4606  4.86375e+22
3.5779  4.80384e+22
3.69521  4.74244e+22
3.81251  4.67988e+22
3.92982  4.61657e+22
4.04712  4.55288e+22
4.16443  4.48903e+22
4.28173  4.42529e+22
4.39903  4.36179e+22
4.51634  4.29867e+22
4.63364  4.23591e+22
4.75095  4.1735e+22
4.86825  4.11129e+22
4.98556  4.04911e+22
5.10286  3.98673e+22
5.22017  3.92374e+22
5.33748  3.85994e+22
5.45478  3.79504e+22
5.57209  3.72873e+22
5.68939  3.6609e+22
5.8067  3.59135e+22
5.924  3.52011e+22
6.0413  3.44721e+22
6.15861  3.37282e+22
6.27591  3.297e+22
6.39322  3.22012e+22
6.51052  3.14233e+22
6.62783  3.06393e+22
6.74514  2.98513e+22
6.86244  2.90623e+22
6.97975  2.8274e+22
7.09705  2.74888e+22
7.21436  2.6708e+22
7.33166  2.5933e+22
7.44897  2.5165e+22
7.56627  2.44046e+22
7.68358  2.36531e+22
7.80088  2.29106e+22
7.91819  2.21789e+22
8.03549  2.14592e+22
8.1528  2.07522e+22
8.2701  2.00602e+22
8.38741  1.93849e+22
8.50471  1.87267e+22
8.62202  1.80883e+22
8.73932  1.74701e+22
8.85662  1.68722e+22
8.97393  1.62957e+22
9.09123  1.57397e+22
9.20854  1.52038e+22
9.32584  1.46866e+22
9.44315  1.41871e+22
9.56045  1.37031e+22
9.67776  1.32329e+22
9.79506  1.27747e+22
9.91237  1.23263e+22
10.0297  1.18866e+22
10.147  1.14546e+22
10.2643  1.10295e+22
10.3816  1.06121e+22
10.4989  1.02021e+22
10.6162  9.80109e+21
10.7335  9.41019e+21
10.8508  9.03114e+21
10.9681  8.66459e+21
11.0854  8.31235e+21
11.2027  7.97495e+21
11.32  7.65317e+21
11.4373  7.34691e+21
11.5546  7.0564e+21
11.6719  6.78101e+21
11.7893  6.52035e+21
11.9066  6.27343e+21
12.0239  6.03919e+21
12.1412  5.81664e+21
12.2585  5.60453e+21
12.3758  5.40199e+21
12.4931  5.20797e+21
12.6104  5.02208e+21
12.7277  4.84402e+21
12.845  4.67336e+21
12.9623  4.51043e+21
13.0796  4.35538e+21
13.1969  4.20813e+21
13.3142  4.0696e+21
13.4315  3.9395e+21
13.5488  3.81755e+21
13.6661  3.70432e+21
13.7834  3.59925e+21
13.9007  3.50191e+21
14.018  3.41194e+21
14.1354  3.32914e+21
14.2527  3.25261e+21
14.37  3.18184e+21
14.4873  3.11611e+21
14.6046  3.05498e+21
14.7219  2.99735e+21
14.8392  2.94285e+21
14.9565  2.89085e+21
15.0738  2.84097e+21
15.1911  2.79254e+21
15.3084  2.74541e+21
15.4257  2.69889e+21
15.543  2.65266e+21
15.6603  2.60624e+21
15.7776  2.55914e+21
15.8949  2.51107e+21
16.0122  2.46169e+21
16.1295  2.41093e+21
16.2468  2.35888e+21
16.3641  2.3057e+21
16.4815  2.25177e+21
16.5988  2.19732e+21
16.7161  2.14282e+21
16.8334  2.08841e+21
16.9507  2.03454e+21
17.068  1.98149e+21
17.1853  1.92953e+21
17.3026  1.87929e+21
17.4199  1.83135e+21
17.5372  1.78601e+21
17.6545  1.74362e+21
17.7718  1.70429e+21
17.8891  1.66761e+21
18.0064  1.633e+21
18.1237  1.59948e+21
18.241  1.56569e+21
18.3583  1.53077e+21
18.4756  1.49365e+21
18.5929  1.45389e+21
18.7102  1.41162e+21
18.8275  1.36724e+21
18.9449  1.32163e+21
19.0622  1.27582e+21
19.1795  1.23083e+21
19.2968  1.18779e+21
19.4141  1.14723e+21
19.5314  1.10992e+21
19.6487  1.07653e+21
19.766  1.04732e+21
19.8833  1.02299e+21
20.0006  1.00379e+21
20.1179  9.90011e+20
20.2352  9.81425e+20
20.3525  9.77498e+20
20.4698  9.77149e+20
20.5871  9.78737e+20
20.7044  9.80232e+20
20.8217  9.7972e+20
20.939  9.75386e+20
21.0563  9.65844e+20
21.1736  9.50458e+20
21.291  9.29314e+20
21.4083  9.02943e+20
21.5256  8.72823e+20
21.6429  8.405e+20
21.7602  8.07514e+20
21.8775  7.75395e+20
21.9948  7.4558e+20
22.1121  7.19166e+20
22.2294  6.96974e+20
22.3467  6.79226e+20
22.464  6.66443e+20
22.5813  6.58445e+20
22.6986  6.54779e+20
22.8159  6.54619e+20
22.9332  6.57019e+20
23.0505  6.60541e+20
23.1678  6.63899e+20
23.2851  6.65756e+20
23.4024  6.65264e+20
23.5198  6.61655e+20
23.6371  6.54958e+20
23.7544  6.4541e+20
23.8717  6.33634e+20
23.989  6.20566e+20
24.1063  6.07019e+20
24.2236  5.93876e+20
24.3409  5.81885e+20
24.4582  5.71372e+20
24.5755  5.6284e+20
24.6928  5.56267e+20
24.8101  5.5173e+20
24.9274  5.48922e+20
25.0447  5.47497e+20
25.162  5.46893e+20
25.2793  5.46356e+20
25.3966  5.45093e+20
25.5139  5.42492e+20
25.6312  5.37988e+20
25.7485  5.31332e+20
25.8658  5.22708e+20
25.9832  5.12714e+20
26.1005  5.01867e+20
26.2178  4.91248e+20
26.3351  4.81587e+20
26.4524  4.73409e+20
26.5697  4.6684e+20
26.687  4.61776e+20
26.8043  4.576e+20
26.9216  4.53739e+20
27.0389  4.49297e+20
27.1562  4.43661e+20
27.2735  4.36352e+20
27.3908  4.27156e+20
27.5081  4.15867e+20
27.6254  4.02908e+20
27.7427  3.88346e+20
27.86  3.72771e+20
27.9773  3.56598e+20
28.0946  3.40404e+20
28.212  3.24885e+20
28.3293  3.10739e+20
28.4466  2.98629e+20
28.5639  2.89244e+20
28.6812  2.8299e+20
28.7985  2.80205e+20
28.9158  2.80703e+20
29.0331  2.84148e+20
29.1504  2.89961e+20
29.2677  2.97202e+20
29.385  3.05091e+20
29.5023  3.1279e+20
29.6196  3.19598e+20
29.7369  3.25036e+20
29.8542  3.28919e+20
29.9715  3.3124e+20
30.0888  3.32098e+20
30.2061  3.31931e+20
30.3234  3.30986e+20
30.4407  3.29557e+20
30.558  3.27999e+20
30.6754  3.26565e+20
30.7927  3.25206e+20
30.91  3.23985e+20
31.0273  3.22727e+20
31.1446  3.21072e+20
31.2619  3.18767e+20
31.3792  3.15433e+20
31.4965  3.10747e+20
31.6138  3.04705e+20
31.7311  2.97255e+20
31.8484  2.8853e+20
31.9657  2.78948e+20
32.083  2.69011e+20
32.2003  2.59043e+20
32.3176  2.49715e+20
32.4349  2.41309e+20
32.5522  2.34214e+20
32.6695  2.28632e+20
32.7868  2.24676e+20
32.9042  2.22387e+20
33.0215  2.21636e+20
33.1388  2.22166e+20
33.2561  2.23706e+20
33.3734  2.25781e+20
33.4907  2.27964e+20
33.608  2.29571e+20
33.7253  2.30092e+20
33.8426  2.29234e+20
33.9599  2.26606e+20
34.0772  2.22337e+20
34.1945  2.16575e+20
34.3118  2.0975e+20
34.4291  2.02444e+20
34.5464  1.95302e+20
34.6637  1.8886e+20
34.781  1.83572e+20
34.8983  1.79861e+20
35.0156  1.77797e+20
35.1329  1.77385e+20
35.2503  1.78511e+20
35.3676  1.80893e+20
35.4849  1.84138e+20
35.6022  1.87801e+20
35.7195  1.9145e+20
35.8368  1.9443e+20
35.9541  1.9638e+20
36.0714  1.96798e+20
36.1887  1.95423e+20
36.306  1.92195e+20
36.4233  1.87229e+20
36.5406  1.80753e+20
36.6579  1.73297e+20
36.7752  1.65382e+20
36.8925  1.57471e+20
37.0098  1.50098e+20
37.1271  1.43559e+20
37.2444  1.38094e+20
37.3617  1.33852e+20
37.479  1.30892e+20
37.5964  1.29238e+20
37.7137  1.2889e+20
37.831  1.29779e+20
37.9483  1.31742e+20
38.0656  1.34602e+20
38.1829  1.37989e+20
38.3002  1.41346e+20
38.4175  1.44154e+20
38.5348  1.45981e+20
38.6521  1.46312e+20
38.7694  1.45077e+20
38.8867  1.42271e+20
39.004  1.38222e+20
39.1213  1.33454e+20
39.2386  1.28599e+20
39.3559  1.24178e+20
39.4732  1.20677e+20
39.5905  1.18337e+20
39.7078  1.17236e+20
39.8251  1.17299e+20
39.9425  1.1843e+20
40.0598  1.2048e+20
40.1771  1.23302e+20
40.2944  1.26823e+20
40.4117  1.31079e+20
40.529  1.35825e+20
40.6463  1.40937e+20
40.7636  1.46041e+20
40.8809  1.50689e+20
40.9982  1.54369e+20
41.1155  1.5665e+20
41.2328  1.57107e+20
41.3501  1.55708e+20
41.4674  1.52492e+20
41.5847  1.47785e+20
41.702  1.42036e+20
41.8193  1.35728e+20
41.9366  1.29288e+20
42.0539  1.23088e+20
42.1712  1.17365e+20
42.2885  1.12284e+20
42.4059  1.07998e+20
42.5232  1.04657e+20
42.6405  1.02427e+20
42.7578  1.01524e+20
42.8751  1.0213e+20
42.9924  1.04194e+20
43.1097  1.07618e+20
43.227  1.11996e+20
43.3443  1.16684e+20
43.4616  1.21037e+20
43.5789  1.24255e+20
43.6962  1.25747e+20
43.8135  1.25125e+20
43.9308  1.22341e+20
44.0481  1.17612e+20
44.1654  1.1139e+20
44.2827  1.04167e+20
44.4  9.65498e+19
44.5173  8.9033e+19
44.6347  8.19439e+19
44.752  7.55579e+19
44.8693  6.99486e+19
44.9866  6.52003e+19
45.1039  6.14079e+19
45.2212  5.86123e+19
45.3385  5.68995e+19
45.4558  5.63438e+19
45.5731  5.69333e+19
45.6904  5.85865e+19
45.8077  6.11343e+19
45.925  6.42623e+19
46.0423  6.76793e+19
46.1596  7.10652e+19
46.2769  7.41705e+19
46.3942  7.67907e+19
46.5115  7.88411e+19
46.6288  8.02532e+19
46.7461  8.10745e+19
46.8634  8.13356e+19
46.9808  8.11571e+19
47.0981  8.06328e+19
47.2154  7.99734e+19
47.3327  7.93558e+19
47.45  7.90598e+19
47.5673  7.93552e+19
47.6846  8.03871e+19
47.8019  8.23108e+19
47.9192  8.51282e+19
48.0365  8.86168e+19
48.1538  9.25713e+19
48.2711  9.65932e+19
48.3884  1.00394e+20
48.5057  1.03656e+20
48.623  1.06304e+20
48.7403  1.08303e+20
48.8576  1.0969e+20
48.9749  1.10528e+20
49.0922  1.10986e+20
49.2095  1.11091e+20
49.3269  1.10783e+20
49.4442  1.10086e+20
49.5615  1.08887e+20
49.6788  1.07191e+20
49.7961  1.05046e+20
49.9134  1.02578e+20
50.0307  9.99316e+19
50.148  9.73045e+19
50.2653  9.47909e+19
50.3826  9.24153e+19
50.4999  9.01706e+19
50.6172  8.78572e+19
50.7345  8.52943e+19
50.8518  8.23711e+19
50.9691  7.90715e+19
