#S 1 spectral density
#N 2
#UFWHM 23.9302
#L  abscissas [um]  spectral density
-58.5938  1.12908e+20
-58.4764  1.03573e+20
-58.3591  9.44395e+19
-58.2418  8.58734e+19
-58.1245  7.81964e+19
-58.0072  7.18178e+19
-57.8899  6.71522e+19
-57.7726  6.46166e+19
-57.6553  6.46716e+19
-57.538  6.76882e+19
-57.4207  7.38063e+19
-57.3034  8.29016e+19
-57.1861  9.45578e+19
-57.0688  1.07953e+20
-56.9515  1.2214e+20
-56.8342  1.35921e+20
-56.7169  1.48367e+20
-56.5996  1.58728e+20
-56.4823  1.66775e+20
-56.365  1.72613e+20
-56.2477  1.76853e+20
-56.1303  1.80116e+20
-56.013  1.83227e+20
-55.8957  1.86616e+20
-55.7784  1.90482e+20
-55.6611  1.94434e+20
-55.5438  1.9779e+20
-55.4265  1.9982e+20
-55.3092  1.99657e+20
-55.1919  1.96742e+20
-55.0746  1.91035e+20
-54.9573  1.82781e+20
-54.84  1.7289e+20
-54.7227  1.62406e+20
-54.6054  1.52602e+20
-54.4881  1.44603e+20
-54.3708  1.39169e+20
-54.2535  1.36748e+20
-54.1362  1.3726e+20
-54.0189  1.40209e+20
-53.9016  1.4473e+20
-53.7842  1.49828e+20
-53.6669  1.54536e+20
-53.5496  1.5801e+20
-53.4323  1.59671e+20
-53.315  1.59311e+20
-53.1977  1.57033e+20
-53.0804  1.53215e+20
-52.9631  1.48458e+20
-52.8458  1.43433e+20
-52.7285  1.38746e+20
-52.6112  1.34909e+20
-52.4939  1.32188e+20
-52.3766  1.30765e+20
-52.2593  1.30621e+20
-52.142  1.31706e+20
-52.0247  1.33912e+20
-51.9074  1.37214e+20
-51.7901  1.41595e+20
-51.6728  1.47256e+20
-51.5555  1.54256e+20
-51.4381  1.62668e+20
-51.3208  1.72488e+20
-51.2035  1.8348e+20
-51.0862  1.95366e+20
-50.9689  2.07542e+20
-50.8516  2.19397e+20
-50.7343  2.30158e+20
-50.617  2.39092e+20
-50.4997  2.4549e+20
-50.3824  2.48732e+20
-50.2651  2.4835e+20
-50.1478  2.44205e+20
-50.0305  2.3623e+20
-49.9132  2.24873e+20
-49.7959  2.10585e+20
-49.6786  1.94216e+20
-49.5613  1.76676e+20
-49.444  1.58974e+20
-49.3267  1.41963e+20
-49.2094  1.26416e+20
-49.092  1.12853e+20
-48.9747  1.01565e+20
-48.8574  9.27192e+19
-48.7401  8.62951e+19
-48.6228  8.22758e+19
-48.5055  8.06735e+19
-48.3882  8.1503e+19
-48.2709  8.47703e+19
-48.1536  9.0405e+19
-48.0363  9.8096e+19
-47.919  1.07409e+20
-47.8017  1.17626e+20
-47.6844  1.27954e+20
-47.5671  1.37495e+20
-47.4498  1.45686e+20
-47.3325  1.5215e+20
-47.2152  1.56989e+20
-47.0979  1.60727e+20
-46.9806  1.64164e+20
-46.8633  1.68259e+20
-46.7459  1.73875e+20
-46.6286  1.81623e+20
-46.5113  1.91611e+20
-46.394  2.03647e+20
-46.2767  2.17008e+20
-46.1594  2.30747e+20
-46.0421  2.43692e+20
-45.9248  2.5484e+20
-45.8075  2.63239e+20
-45.6902  2.6808e+20
-45.5729  2.69088e+20
-45.4556  2.66074e+20
-45.3383  2.59372e+20
-45.221  2.49494e+20
-45.1037  2.37283e+20
-44.9864  2.2397e+20
-44.8691  2.109e+20
-44.7518  1.99358e+20
-44.6345  1.90592e+20
-44.5172  1.85407e+20
-44.3998  1.84102e+20
-44.2825  1.8611e+20
-44.1652  1.90563e+20
-44.0479  1.96083e+20
-43.9306  2.01081e+20
-43.8133  2.04224e+20
-43.696  2.04648e+20
-43.5787  2.02234e+20
-43.4614  1.97423e+20
-43.3441  1.91485e+20
-43.2268  1.85888e+20
-43.1095  1.82269e+20
-42.9922  1.81819e+20
-42.8749  1.85359e+20
-42.7576  1.92952e+20
-42.6403  2.04167e+20
-42.523  2.18048e+20
-42.4057  2.33459e+20
-42.2884  2.49219e+20
-42.171  2.64307e+20
-42.0537  2.78033e+20
-41.9364  2.89963e+20
-41.8191  2.99742e+20
-41.7018  3.07274e+20
-41.5845  3.12515e+20
-41.4672  3.15384e+20
-41.3499  3.16055e+20
-41.2326  3.14506e+20
-41.1153  3.11098e+20
-40.998  3.06202e+20
-40.8807  3.00249e+20
-40.7634  2.93784e+20
-40.6461  2.87236e+20
-40.5288  2.80777e+20
-40.4115  2.74412e+20
-40.2942  2.68104e+20
-40.1769  2.61367e+20
-40.0596  2.53974e+20
-39.9423  2.45716e+20
-39.825  2.36628e+20
-39.7076  2.27041e+20
-39.5903  2.17447e+20
-39.473  2.08566e+20
-39.3557  2.01264e+20
-39.2384  1.96259e+20
-39.1211  1.94075e+20
-39.0038  1.95274e+20
-38.8865  2.00023e+20
-38.7692  2.08377e+20
-38.6519  2.20357e+20
-38.5346  2.35715e+20
-38.4173  2.54126e+20
-38.3  2.75097e+20
-38.1827  2.98022e+20
-38.0654  3.22087e+20
-37.9481  3.46401e+20
-37.8308  3.70031e+20
-37.7135  3.92127e+20
-37.5962  4.11998e+20
-37.4789  4.29259e+20
-37.3615  4.4391e+20
-37.2442  4.56092e+20
-37.1269  4.66382e+20
-37.0096  4.74974e+20
-36.8923  4.8238e+20
-36.775  4.88708e+20
-36.6577  4.93886e+20
-36.5404  4.97469e+20
-36.4231  4.98902e+20
-36.3058  4.97751e+20
-36.1885  4.93584e+20
-36.0712  4.86337e+20
-35.9539  4.76164e+20
-35.8366  4.63766e+20
-35.7193  4.5011e+20
-35.602  4.36339e+20
-35.4847  4.23574e+20
-35.3674  4.13032e+20
-35.2501  4.05583e+20
-35.1328  4.0179e+20
-35.0154  4.01938e+20
-34.8981  4.05867e+20
-34.7808  4.12998e+20
-34.6635  4.22278e+20
-34.5462  4.32682e+20
-34.4289  4.42802e+20
-34.3116  4.51514e+20
-34.1943  4.57837e+20
-34.077  4.6147e+20
-33.9597  4.62543e+20
-33.8424  4.61886e+20
-33.7251  4.60711e+20
-33.6078  4.60795e+20
-33.4905  4.63869e+20
-33.3732  4.71487e+20
-33.2559  4.84751e+20
-33.1386  5.0419e+20
-33.0213  5.29435e+20
-32.904  5.59359e+20
-32.7867  5.92531e+20
-32.6693  6.26778e+20
-32.552  6.59835e+20
-32.4347  6.89918e+20
-32.3174  7.14795e+20
-32.2001  7.33437e+20
-32.0828  7.44852e+20
-31.9655  7.48703e+20
-31.8482  7.45393e+20
-31.7309  7.35423e+20
-31.6136  7.20082e+20
-31.4963  7.00717e+20
-31.379  6.79044e+20
-31.2617  6.56593e+20
-31.1444  6.3492e+20
-31.0271  6.15443e+20
-30.9098  5.99019e+20
-30.7925  5.8641e+20
-30.6752  5.77762e+20
-30.5579  5.72855e+20
-30.4406  5.71277e+20
-30.3232  5.72574e+20
-30.2059  5.76218e+20
-30.0886  5.81564e+20
-29.9713  5.88246e+20
-29.854  5.96072e+20
-29.7367  6.0504e+20
-29.6194  6.15129e+20
-29.5021  6.26305e+20
-29.3848  6.38638e+20
-29.2675  6.52196e+20
-29.1502  6.66384e+20
-29.0329  6.80864e+20
-28.9156  6.94849e+20
-28.7983  7.07441e+20
-28.681  7.17708e+20
-28.5637  7.24691e+20
-28.4464  7.27906e+20
-28.3291  7.27003e+20
-28.2118  7.22244e+20
-28.0944  7.14737e+20
-27.9771  7.05535e+20
-27.8598  6.96439e+20
-27.7425  6.89512e+20
-27.6252  6.86527e+20
-27.5079  6.89412e+20
-27.3906  6.9941e+20
-27.2733  7.17606e+20
-27.156  7.44706e+20
-27.0387  7.80462e+20
-26.9214  8.24631e+20
-26.8041  8.76278e+20
-26.6868  9.34111e+20
-26.5695  9.96229e+20
-26.4522  1.06059e+21
-26.3349  1.12505e+21
-26.2176  1.18731e+21
-26.1003  1.24555e+21
-25.983  1.29808e+21
-25.8657  1.344e+21
-25.7483  1.38321e+21
-25.631  1.41606e+21
-25.5137  1.44356e+21
-25.3964  1.46623e+21
-25.2791  1.4853e+21
-25.1618  1.50084e+21
-25.0445  1.51293e+21
-24.9272  1.52098e+21
-24.8099  1.52429e+21
-24.6926  1.52212e+21
-24.5753  1.51468e+21
-24.458  1.502e+21
-24.3407  1.48578e+21
-24.2234  1.46792e+21
-24.1061  1.45105e+21
-23.9888  1.438e+21
-23.8715  1.43134e+21
-23.7542  1.43337e+21
-23.6369  1.44566e+21
-23.5196  1.46902e+21
-23.4023  1.50363e+21
-23.2849  1.54878e+21
-23.1676  1.60339e+21
-23.0503  1.66579e+21
-22.933  1.73397e+21
-22.8157  1.80582e+21
-22.6984  1.87899e+21
-22.5811  1.95179e+21
-22.4638  2.02318e+21
-22.3465  2.09268e+21
-22.2292  2.16144e+21
-22.1119  2.23135e+21
-21.9946  2.30506e+21
-21.8773  2.38592e+21
-21.76  2.47684e+21
-21.6427  2.58017e+21
-21.5254  2.69668e+21
-21.4081  2.82589e+21
-21.2908  2.96521e+21
-21.1735  3.1109e+21
-21.0561  3.2584e+21
-20.9388  3.40247e+21
-20.8215  3.53876e+21
-20.7042  3.66341e+21
-20.5869  3.77413e+21
-20.4696  3.86983e+21
-20.3523  3.95135e+21
-20.235  4.02025e+21
-20.1177  4.07982e+21
-20.0004  4.13406e+21
-19.8831  4.18759e+21
-19.7658  4.24528e+21
-19.6485  4.31245e+21
-19.5312  4.39412e+21
-19.4139  4.49403e+21
-19.2966  4.6149e+21
-19.1793  4.75798e+21
-19.062  4.92203e+21
-18.9447  5.10404e+21
-18.8274  5.2992e+21
-18.71  5.50142e+21
-18.5927  5.704e+21
-18.4754  5.90081e+21
-18.3581  6.08637e+21
-18.2408  6.25794e+21
-18.1235  6.41391e+21
-18.0062  6.55522e+21
-17.8889  6.68475e+21
-17.7716  6.80696e+21
-17.6543  6.92709e+21
-17.537  7.05051e+21
-17.4197  7.18224e+21
-17.3024  7.32619e+21
-17.1851  7.48541e+21
-17.0678  7.6609e+21
-16.9505  7.85272e+21
-16.8332  8.05919e+21
-16.7159  8.27796e+21
-16.5986  8.50569e+21
-16.4813  8.73929e+21
-16.364  8.97575e+21
-16.2466  9.21236e+21
-16.1293  9.44788e+21
-16.012  9.68199e+21
-15.8947  9.91546e+21
-15.7774  1.015e+22
-15.6601  1.03883e+22
-15.5428  1.06323e+22
-15.4255  1.08843e+22
-15.3082  1.11456e+22
-15.1909  1.14159e+22
-15.0736  1.1694e+22
-14.9563  1.19772e+22
-14.839  1.22621e+22
-14.7217  1.25441e+22
-14.6044  1.28182e+22
-14.4871  1.30807e+22
-14.3698  1.33274e+22
-14.2525  1.35558e+22
-14.1352  1.37649e+22
-14.0178  1.39552e+22
-13.9005  1.41284e+22
-13.7832  1.42882e+22
-13.6659  1.44383e+22
-13.5486  1.45849e+22
-13.4313  1.47315e+22
-13.314  1.48836e+22
-13.1967  1.50447e+22
-13.0794  1.52175e+22
-12.9621  1.54036e+22
-12.8448  1.56031e+22
-12.7275  1.58148e+22
-12.6102  1.60374e+22
-12.4929  1.62688e+22
-12.3756  1.65065e+22
-12.2583  1.67491e+22
-12.141  1.69952e+22
-12.0237  1.72443e+22
-11.9064  1.74964e+22
-11.7891  1.77531e+22
-11.6718  1.80155e+22
-11.5544  1.82855e+22
-11.4371  1.85651e+22
-11.3198  1.88554e+22
-11.2025  1.91573e+22
-11.0852  1.94708e+22
-10.9679  1.9794e+22
-10.8506  2.01245e+22
-10.7333  2.04577e+22
-10.616  2.07888e+22
-10.4987  2.1112e+22
-10.3814  2.14219e+22
-10.2641  2.17129e+22
-10.1468  2.19813e+22
-10.0295  2.22247e+22
-9.91217  2.24425e+22
-9.79487  2.26364e+22
-9.67756  2.28096e+22
-9.56026  2.29665e+22
-9.44295  2.31131e+22
-9.32565  2.32553e+22
-9.20834  2.33985e+22
-9.09104  2.35474e+22
-8.97373  2.37054e+22
-8.85643  2.38756e+22
-8.73913  2.40572e+22
-8.62182  2.42504e+22
-8.50452  2.44529e+22
-8.38721  2.46618e+22
-8.26991  2.48739e+22
-8.1526  2.50858e+22
-8.03529  2.52937e+22
-7.91799  2.54955e+22
-7.80069  2.569e+22
-7.68338  2.58759e+22
-7.56608  2.60541e+22
-7.44877  2.62262e+22
-7.33146  2.63942e+22
-7.21416  2.65606e+22
-7.09685  2.67281e+22
-6.97955  2.68987e+22
-6.86224  2.70743e+22
-6.74494  2.7256e+22
-6.62763  2.74429e+22
-6.51033  2.76342e+22
-6.39302  2.78281e+22
-6.27572  2.80214e+22
-6.15842  2.82118e+22
-6.04111  2.83957e+22
-5.92381  2.85707e+22
-5.8065  2.87348e+22
-5.68919  2.88874e+22
-5.57189  2.90291e+22
-5.45458  2.9161e+22
-5.33728  2.92873e+22
-5.21997  2.94114e+22
-5.10267  2.95385e+22
-4.98536  2.96736e+22
-4.86806  2.98217e+22
-4.75075  2.99873e+22
-4.63345  3.01736e+22
-4.51614  3.03832e+22
-4.39884  3.06164e+22
-4.28154  3.08729e+22
-4.16423  3.11506e+22
-4.04692  3.14456e+22
-3.92962  3.17536e+22
-3.81231  3.20684e+22
-3.69501  3.2383e+22
-3.5777  3.26901e+22
-3.4604  3.2982e+22
-3.34309  3.32516e+22
-3.22579  3.34927e+22
-3.10849  3.3701e+22
-2.99118  3.38736e+22
-2.87387  3.40091e+22
-2.75657  3.41083e+22
-2.63926  3.4173e+22
-2.52196  3.42061e+22
-2.40465  3.42107e+22
-2.28735  3.41898e+22
-2.17005  3.41474e+22
-2.05274  3.40869e+22
-1.93544  3.40109e+22
-1.81813  3.39235e+22
-1.70083  3.38276e+22
-1.58352  3.37269e+22
-1.46622  3.36247e+22
-1.34891  3.35238e+22
-1.2316  3.34266e+22
-1.1143  3.33347e+22
-0.996995  3.32491e+22
-0.87969  3.31708e+22
-0.762385  3.30986e+22
-0.64508  3.30341e+22
-0.527775  3.29776e+22
-0.41047  3.29296e+22
-0.293165  3.28916e+22
-0.17586  3.28651e+22
-0.058555  3.28513e+22
0.05875  3.28503e+22
0.176055  3.28629e+22
0.29336  3.28876e+22
0.410665  3.2924e+22
0.52797  3.297e+22
0.645275  3.30248e+22
0.76258  3.30873e+22
0.879885  3.31572e+22
0.99719  3.32338e+22
1.1145  3.33172e+22
1.2318  3.34068e+22
1.3491  3.35018e+22
1.46641  3.36001e+22
1.58371  3.36996e+22
1.70102  3.37974e+22
1.81832  3.38902e+22
1.93563  3.39746e+22
2.05294  3.40469e+22
2.17024  3.41043e+22
2.28754  3.41434e+22
2.40485  3.41605e+22
2.52216  3.41523e+22
2.63946  3.41157e+22
2.75677  3.40472e+22
2.87407  3.39444e+22
2.99137  3.38052e+22
3.10868  3.36291e+22
3.22599  3.34173e+22
3.34329  3.31727e+22
3.4606  3.29002e+22
3.5779  3.26055e+22
3.69521  3.22959e+22
3.81251  3.19793e+22
3.92982  3.16623e+22
4.04712  3.13523e+22
4.16443  3.10556e+22
4.28173  3.07762e+22
4.39903  3.05181e+22
4.51634  3.02833e+22
4.63364  3.00725e+22
4.75095  2.98843e+22
4.86825  2.97171e+22
4.98556  2.9567e+22
5.10286  2.94303e+22
5.22017  2.9301e+22
5.33748  2.91748e+22
5.45478  2.90466e+22
5.57209  2.89125e+22
5.68939  2.87687e+22
5.8067  2.86142e+22
5.924  2.84478e+22
6.0413  2.82712e+22
6.15861  2.80857e+22
6.27591  2.78938e+22
6.39322  2.76991e+22
6.51052  2.75042e+22
6.62783  2.73118e+22
6.74514  2.71239e+22
6.86244  2.69419e+22
6.97975  2.67656e+22
7.09705  2.65943e+22
7.21436  2.64264e+22
7.33166  2.62592e+22
7.44897  2.60906e+22
7.56627  2.59179e+22
7.68358  2.57386e+22
7.80088  2.55517e+22
7.91819  2.53561e+22
8.03549  2.51528e+22
8.1528  2.49434e+22
8.2701  2.47301e+22
8.38741  2.45165e+22
8.50471  2.43059e+22
8.62202  2.41017e+22
8.73932  2.39066e+22
8.85662  2.37233e+22
8.97393  2.35515e+22
9.09123  2.33913e+22
9.20854  2.32406e+22
9.32584  2.30956e+22
9.44315  2.29515e+22
9.56045  2.28029e+22
9.67776  2.26439e+22
9.79506  2.2469e+22
9.91237  2.2273e+22
10.0297  2.20536e+22
10.147  2.18087e+22
10.2643  2.15388e+22
10.3816  2.12465e+22
10.4989  2.09356e+22
10.6162  2.06113e+22
10.7335  2.02796e+22
10.8508  1.99461e+22
10.9681  1.96154e+22
11.0854  1.92922e+22
11.2027  1.89789e+22
11.32  1.86771e+22
11.4373  1.83872e+22
11.5546  1.81082e+22
11.6719  1.78386e+22
11.7893  1.75768e+22
11.9066  1.73211e+22
12.0239  1.70693e+22
12.1412  1.68211e+22
12.2585  1.65759e+22
12.3758  1.63342e+22
12.4931  1.60973e+22
12.6104  1.58668e+22
12.7277  1.56451e+22
12.845  1.54341e+22
12.9623  1.52355e+22
13.0796  1.50501e+22
13.1969  1.48776e+22
13.3142  1.47172e+22
13.4315  1.45656e+22
13.5488  1.44194e+22
13.6661  1.42736e+22
13.7834  1.41236e+22
13.9007  1.39645e+22
14.018  1.37914e+22
14.1354  1.36017e+22
14.2527  1.3393e+22
14.37  1.31654e+22
14.4873  1.29196e+22
14.6046  1.26579e+22
14.7219  1.23848e+22
14.8392  1.21041e+22
14.9565  1.18204e+22
15.0738  1.15386e+22
15.1911  1.12615e+22
15.3084  1.09924e+22
15.4257  1.07325e+22
15.543  1.0482e+22
15.6603  1.0239e+22
15.7776  1.00023e+22
15.8949  9.76899e+21
16.0122  9.53698e+21
16.1295  9.30456e+21
16.2468  9.07089e+21
16.3641  8.8359e+21
16.4815  8.60171e+21
16.5988  8.37035e+21
16.7161  8.14472e+21
16.8334  7.92843e+21
16.9507  7.72446e+21
17.068  7.5352e+21
17.1853  7.36209e+21
17.3026  7.20522e+21
17.4199  7.06332e+21
17.5372  6.93339e+21
17.6545  6.81172e+21
17.7718  6.6931e+21
17.8891  6.57192e+21
18.0064  6.44367e+21
18.1237  6.30354e+21
18.241  6.14866e+21
18.3583  5.9784e+21
18.4756  5.79406e+21
18.5929  5.59894e+21
18.7102  5.39809e+21
18.8275  5.19804e+21
18.9449  5.00514e+21
19.0622  4.82558e+21
19.1795  4.6641e+21
19.2968  4.52356e+21
19.4141  4.40514e+21
19.5314  4.30761e+21
19.6487  4.22816e+21
19.766  4.16306e+21
19.8833  4.10706e+21
20.0006  4.05541e+21
20.1179  4.00287e+21
20.2352  3.94498e+21
20.3525  3.87755e+21
20.4698  3.79771e+21
20.5871  3.70358e+21
20.7044  3.59454e+21
20.8217  3.4717e+21
20.939  3.33733e+21
21.0563  3.19509e+21
21.1736  3.0498e+21
21.291  2.90623e+21
21.4083  2.76919e+21
21.5256  2.64234e+21
21.6429  2.52803e+21
21.7602  2.4269e+21
21.8775  2.33801e+21
21.9948  2.25904e+21
22.1121  2.1871e+21
22.2294  2.11887e+21
22.3467  2.05168e+21
22.464  1.98353e+21
22.5813  1.91358e+21
22.6986  1.84216e+21
22.8159  1.7705e+21
22.9332  1.70014e+21
23.0505  1.63351e+21
23.1678  1.57256e+21
23.2851  1.51939e+21
23.4024  1.47572e+21
23.5198  1.44257e+21
23.6371  1.42053e+21
23.7544  1.40953e+21
23.8717  1.40863e+21
23.989  1.4164e+21
24.1063  1.43039e+21
24.2236  1.44807e+21
24.3409  1.46666e+21
24.4582  1.48351e+21
24.5755  1.49665e+21
24.6928  1.50476e+21
24.8101  1.50737e+21
24.9274  1.50457e+21
25.0447  1.49707e+21
25.162  1.48558e+21
25.2793  1.47061e+21
25.3966  1.45211e+21
25.5139  1.42977e+21
25.6312  1.40285e+21
25.7485  1.37046e+21
25.8658  1.3317e+21
25.9832  1.28607e+21
26.1005  1.23401e+21
26.2178  1.17629e+21
26.3351  1.11447e+21
26.4524  1.05056e+21
26.5697  9.86767e+20
26.687  9.25228e+20
26.8043  8.68276e+20
26.9216  8.17385e+20
27.0389  7.73829e+20
27.1562  7.38692e+20
27.2735  7.12346e+20
27.3908  6.94581e+20
27.5081  6.85054e+20
27.6254  6.82655e+20
27.7427  6.85951e+20
27.86  6.93143e+20
27.9773  7.02297e+20
28.0946  7.11661e+20
28.212  7.19243e+20
28.3293  7.23876e+20
28.4466  7.24774e+20
28.5639  7.21471e+20
28.6812  7.14539e+20
28.7985  7.04213e+20
28.9158  6.91621e+20
29.0331  6.77798e+20
29.1504  6.63261e+20
29.2677  6.49218e+20
29.385  6.3584e+20
29.5023  6.23549e+20
29.6196  6.12406e+20
29.7369  6.02487e+20
29.8542  5.93717e+20
29.9715  5.85998e+20
30.0888  5.79356e+20
30.2061  5.74096e+20
30.3234  5.706e+20
30.4407  5.69378e+20
30.558  5.7105e+20
30.6754  5.76061e+20
30.7927  5.84824e+20
30.91  5.97519e+20
31.0273  6.13876e+20
31.1446  6.3335e+20
31.2619  6.54834e+20
31.3792  6.77162e+20
31.4965  6.98719e+20
31.6138  7.17911e+20
31.7311  7.32906e+20
31.8484  7.42611e+20
31.9657  7.45783e+20
32.083  7.41591e+20
32.2003  7.29961e+20
32.3176  7.11223e+20
32.4349  6.86108e+20
32.5522  6.56107e+20
32.6695  6.23e+20
32.7868  5.88921e+20
32.9042  5.55844e+20
33.0215  5.26079e+20
33.1388  5.01044e+20
33.2561  4.81806e+20
33.3734  4.68701e+20
33.4907  4.61166e+20
33.608  4.58171e+20
33.7253  4.58172e+20
33.8426  4.59195e+20
33.9599  4.5982e+20
34.0772  4.58598e+20
34.1945  4.54867e+20
34.3118  4.48348e+20
34.4291  4.39544e+20
34.5464  4.29383e+20
34.6637  4.19038e+20
34.781  4.09762e+20
34.8983  4.02744e+20
35.0156  3.98907e+20
35.1329  3.98844e+20
35.2503  4.02706e+20
35.3676  4.10257e+20
35.4849  4.20868e+20
35.6022  4.33676e+20
35.7195  4.47469e+20
35.8368  4.61088e+20
35.9541  4.73399e+20
36.0714  4.83493e+20
36.1887  4.90647e+20
36.306  4.94805e+20
36.4233  4.9588e+20
36.5406  4.94389e+20
36.6579  4.90768e+20
36.7752  4.85612e+20
36.8925  4.7921e+20
37.0098  4.71761e+20
37.1271  4.63076e+20
37.2444  4.52812e+20
37.3617  4.40551e+20
37.479  4.25876e+20
37.5964  4.08555e+20
37.7137  3.88704e+20
37.831  3.66627e+20
37.9483  3.43095e+20
38.0656  3.18848e+20
38.1829  2.94961e+20
38.3002  2.72226e+20
38.4175  2.51444e+20
38.5348  2.33262e+20
38.6521  2.18125e+20
38.7694  2.06367e+20
38.8867  1.98178e+20
39.004  1.93577e+20
39.1213  1.92525e+20
39.2386  1.94813e+20
39.3559  1.99973e+20
39.4732  2.07366e+20
39.5905  2.16239e+20
39.7078  2.25862e+20
39.8251  2.35501e+20
39.9425  2.44583e+20
40.0598  2.52834e+20
40.1771  2.60211e+20
40.2944  2.66982e+20
40.4117  2.73379e+20
40.529  2.797e+20
40.6463  2.86234e+20
40.7636  2.92853e+20
40.8809  2.99299e+20
40.9982  3.05234e+20
41.1155  3.10146e+20
41.2328  3.13535e+20
41.3501  3.15e+20
41.4674  3.14321e+20
41.5847  3.11394e+20
41.702  3.06114e+20
41.8193  2.98573e+20
41.9366  2.88748e+20
42.0539  2.76831e+20
42.1712  2.63087e+20
42.2885  2.4802e+20
42.4059  2.32299e+20
42.5232  2.1697e+20
42.6405  2.03222e+20
42.7578  1.92159e+20
42.8751  1.84722e+20
42.9924  1.81355e+20
43.1097  1.81944e+20
43.227  1.85675e+20
43.3443  1.91328e+20
43.4616  1.97258e+20
43.5789  2.01968e+20
43.6962  2.04308e+20
43.8135  2.03745e+20
43.9308  2.0055e+20
44.0481  1.95481e+20
44.1654  1.89933e+20
44.2827  1.85499e+20
44.4  1.83553e+20
44.5173  1.85042e+20
44.6347  1.90354e+20
44.752  1.99208e+20
44.8693  2.10765e+20
44.9866  2.23889e+20
45.1039  2.3719e+20
45.2212  2.49294e+20
45.3385  2.59107e+20
45.4558  2.65697e+20
45.5731  2.68574e+20
45.6904  2.6746e+20
45.8077  2.62435e+20
45.925  2.5395e+20
46.0423  2.42766e+20
46.1596  2.29758e+20
46.2769  2.16003e+20
46.3942  2.0268e+20
46.5115  1.9072e+20
46.6288  1.80756e+20
46.7461  1.73087e+20
46.8634  1.67544e+20
46.9808  1.63477e+20
47.0981  1.6003e+20
47.2154  1.56311e+20
47.3327  1.51415e+20
47.45  1.449e+20
47.5673  1.36674e+20
47.6846  1.27119e+20
47.8019  1.16814e+20
47.9192  1.06629e+20
48.0365  9.73713e+19
48.1538  8.97439e+19
48.2711  8.42166e+19
48.3884  8.10457e+19
48.5057  8.03251e+19
48.623  8.20122e+19
48.7403  8.60984e+19
48.8576  9.26221e+19
48.9749  1.0156e+20
49.0922  1.12914e+20
49.2095  1.26576e+20
49.3269  1.42178e+20
49.4442  1.59235e+20
49.5615  1.76972e+20
49.6788  1.94489e+20
49.7961  2.10763e+20
49.9134  2.2497e+20
50.0307  2.36227e+20
50.148  2.43975e+20
50.2653  2.47993e+20
50.3826  2.48157e+20
50.4999  2.44755e+20
50.6172  2.38226e+20
50.7345  2.29188e+20
50.8518  2.18349e+20
