#S 1 spectral density
#N 2
#UFWHM 41.526
#L  abscissas [um]  spectral density
-58.5938  4.61751e+20
-58.4764  4.41669e+20
-58.3591  4.22223e+20
-58.2418  4.04592e+20
-58.1245  3.89409e+20
-58.0072  3.76874e+20
-57.8899  3.66861e+20
-57.7726  3.59056e+20
-57.6553  3.53106e+20
-57.538  3.48539e+20
-57.4207  3.45139e+20
-57.3034  3.42682e+20
-57.1861  3.41179e+20
-57.0688  3.40405e+20
-56.9515  3.40452e+20
-56.8342  3.41277e+20
-56.7169  3.42911e+20
-56.5996  3.45691e+20
-56.4823  3.49795e+20
-56.365  3.55724e+20
-56.2477  3.64024e+20
-56.1303  3.75064e+20
-56.013  3.89078e+20
-55.8957  4.05918e+20
-55.7784  4.25198e+20
-55.6611  4.45979e+20
-55.5438  4.67024e+20
-55.4265  4.87072e+20
-55.3092  5.04796e+20
-55.1919  5.18998e+20
-55.0746  5.28943e+20
-54.9573  5.34306e+20
-54.84  5.35286e+20
-54.7227  5.32492e+20
-54.6054  5.26846e+20
-54.4881  5.19526e+20
-54.3708  5.11897e+20
-54.2535  5.05146e+20
-54.1362  5.00205e+20
-54.0189  4.97849e+20
-53.9016  4.98364e+20
-53.7842  5.01799e+20
-53.6669  5.07539e+20
-53.5496  5.14892e+20
-53.4323  5.23062e+20
-53.315  5.30862e+20
-53.1977  5.37427e+20
-53.0804  5.42003e+20
-52.9631  5.44153e+20
-52.8458  5.43574e+20
-52.7285  5.40638e+20
-52.6112  5.35708e+20
-52.4939  5.29731e+20
-52.3766  5.2341e+20
-52.2593  5.17802e+20
-52.142  5.13764e+20
-52.0247  5.11707e+20
-51.9074  5.1213e+20
-51.7901  5.14769e+20
-51.6728  5.19006e+20
-51.5555  5.24037e+20
-51.4381  5.28521e+20
-51.3208  5.31142e+20
-51.2035  5.30431e+20
-51.0862  5.25485e+20
-50.9689  5.15672e+20
-50.8516  5.01013e+20
-50.7343  4.82392e+20
-50.617  4.61074e+20
-50.4997  4.38843e+20
-50.3824  4.17787e+20
-50.2651  3.99901e+20
-50.1478  3.86949e+20
-50.0305  3.8026e+20
-49.9132  3.80551e+20
-49.7959  3.88016e+20
-49.6786  4.02377e+20
-49.5613  4.22806e+20
-49.444  4.48066e+20
-49.3267  4.76725e+20
-49.2094  5.07158e+20
-49.092  5.37782e+20
-48.9747  5.66849e+20
-48.8574  5.92809e+20
-48.7401  6.14715e+20
-48.6228  6.3169e+20
-48.5055  6.4357e+20
-48.3882  6.50919e+20
-48.2709  6.54588e+20
-48.1536  6.55789e+20
-48.0363  6.56207e+20
-47.919  6.5709e+20
-47.8017  6.5961e+20
-47.6844  6.64423e+20
-47.5671  6.71493e+20
-47.4498  6.80463e+20
-47.3325  6.90284e+20
-47.2152  6.99838e+20
-47.0979  7.07822e+20
-46.9806  7.12926e+20
-46.8633  7.14349e+20
-46.7459  7.11584e+20
-46.6286  7.0461e+20
-46.5113  6.93768e+20
-46.394  6.79783e+20
-46.2767  6.63903e+20
-46.1594  6.47416e+20
-46.0421  6.31772e+20
-45.9248  6.18212e+20
-45.8075  6.07802e+20
-45.6902  6.01219e+20
-45.5729  5.98635e+20
-45.4556  5.99717e+20
-45.3383  6.03772e+20
-45.221  6.09925e+20
-45.1037  6.1727e+20
-44.9864  6.25209e+20
-44.8691  6.33389e+20
-44.7518  6.41851e+20
-44.6345  6.50995e+20
-44.5172  6.61694e+20
-44.3998  6.74586e+20
-44.2825  6.90298e+20
-44.1652  7.08902e+20
-44.0479  7.3026e+20
-43.9306  7.53718e+20
-43.8133  7.78222e+20
-43.696  8.02698e+20
-43.5787  8.25953e+20
-43.4614  8.46957e+20
-43.3441  8.64911e+20
-43.2268  8.79198e+20
-43.1095  8.89439e+20
-42.9922  8.95574e+20
-42.8749  8.97401e+20
-42.7576  8.95228e+20
-42.6403  8.89525e+20
-42.523  8.80907e+20
-42.4057  8.70374e+20
-42.2884  8.58961e+20
-42.171  8.47906e+20
-42.0537  8.38624e+20
-41.9364  8.31987e+20
-41.8191  8.28818e+20
-41.7018  8.29132e+20
-41.5845  8.32884e+20
-41.4672  8.39426e+20
-41.3499  8.47832e+20
-41.2326  8.57112e+20
-41.1153  8.66449e+20
-40.998  8.75145e+20
-40.8807  8.82954e+20
-40.7634  8.89725e+20
-40.6461  8.95805e+20
-40.5288  9.01656e+20
-40.4115  9.08234e+20
-40.2942  9.16587e+20
-40.1769  9.27923e+20
-40.0596  9.43588e+20
-39.9423  9.64876e+20
-39.825  9.9323e+20
-39.7076  1.02934e+21
-39.5903  1.07362e+21
-39.473  1.12556e+21
-39.3557  1.18366e+21
-39.2384  1.24585e+21
-39.1211  1.30901e+21
-39.0038  1.36985e+21
-38.8865  1.42514e+21
-38.7692  1.47226e+21
-38.6519  1.50932e+21
-38.5346  1.53581e+21
-38.4173  1.55244e+21
-38.3  1.56124e+21
-38.1827  1.5649e+21
-38.0654  1.56682e+21
-37.9481  1.57056e+21
-37.8308  1.57916e+21
-37.7135  1.5951e+21
-37.5962  1.61966e+21
-37.4789  1.65323e+21
-37.3615  1.69523e+21
-37.2442  1.74373e+21
-37.1269  1.79638e+21
-37.0096  1.85e+21
-36.8923  1.90144e+21
-36.775  1.94749e+21
-36.6577  1.9854e+21
-36.5404  2.01303e+21
-36.4231  2.02939e+21
-36.3058  2.03435e+21
-36.1885  2.02895e+21
-36.0712  2.01513e+21
-35.9539  1.99561e+21
-35.8366  1.97321e+21
-35.7193  1.95138e+21
-35.602  1.93293e+21
-35.4847  1.92021e+21
-35.3674  1.91496e+21
-35.2501  1.91819e+21
-35.1328  1.93016e+21
-35.0154  1.95063e+21
-34.8981  1.97873e+21
-34.7808  2.01361e+21
-34.6635  2.05394e+21
-34.5462  2.09881e+21
-34.4289  2.14711e+21
-34.3116  2.19829e+21
-34.1943  2.2519e+21
-34.077  2.30816e+21
-33.9597  2.36754e+21
-33.8424  2.43073e+21
-33.7251  2.49855e+21
-33.6078  2.57193e+21
-33.4905  2.65125e+21
-33.3732  2.73642e+21
-33.2559  2.82695e+21
-33.1386  2.92136e+21
-33.0213  3.01756e+21
-32.904  3.11281e+21
-32.7867  3.20438e+21
-32.6693  3.28923e+21
-32.552  3.36472e+21
-32.4347  3.42889e+21
-32.3174  3.48053e+21
-32.2001  3.51927e+21
-32.0828  3.54593e+21
-31.9655  3.56203e+21
-31.8482  3.57006e+21
-31.7309  3.5729e+21
-31.6136  3.57391e+21
-31.4963  3.57612e+21
-31.379  3.58286e+21
-31.2617  3.59651e+21
-31.1444  3.61867e+21
-31.0271  3.65062e+21
-30.9098  3.69228e+21
-30.7925  3.74298e+21
-30.6752  3.80141e+21
-30.5579  3.86605e+21
-30.4406  3.93469e+21
-30.3232  4.0058e+21
-30.2059  4.07763e+21
-30.0886  4.14916e+21
-29.9713  4.21929e+21
-29.854  4.28809e+21
-29.7367  4.35534e+21
-29.6194  4.42148e+21
-29.5021  4.48682e+21
-29.3848  4.55218e+21
-29.2675  4.61825e+21
-29.1502  4.6852e+21
-29.0329  4.75298e+21
-28.9156  4.82154e+21
-28.7983  4.89004e+21
-28.681  4.95744e+21
-28.5637  5.02267e+21
-28.4464  5.08462e+21
-28.3291  5.14208e+21
-28.2118  5.19461e+21
-28.0944  5.24259e+21
-27.9771  5.28632e+21
-27.8598  5.32737e+21
-27.7425  5.36761e+21
-27.6252  5.40928e+21
-27.5079  5.45456e+21
-27.3906  5.50556e+21
-27.2733  5.56419e+21
-27.156  5.63202e+21
-27.0387  5.7094e+21
-26.9214  5.79697e+21
-26.8041  5.89365e+21
-26.6868  5.99871e+21
-26.5695  6.11e+21
-26.4522  6.22498e+21
-26.3349  6.34081e+21
-26.2176  6.45418e+21
-26.1003  6.56202e+21
-25.983  6.66176e+21
-25.8657  6.75189e+21
-25.7483  6.8314e+21
-25.631  6.90126e+21
-25.5137  6.96309e+21
-25.3964  7.01951e+21
-25.2791  7.07324e+21
-25.1618  7.12776e+21
-25.0445  7.18545e+21
-24.9272  7.24827e+21
-24.8099  7.31686e+21
-24.6926  7.39157e+21
-24.5753  7.47196e+21
-24.458  7.55662e+21
-24.3407  7.644e+21
-24.2234  7.73305e+21
-24.1061  7.82231e+21
-23.9888  7.91094e+21
-23.8715  7.99844e+21
-23.7542  8.0847e+21
-23.6369  8.16959e+21
-23.5196  8.25357e+21
-23.4023  8.33775e+21
-23.2849  8.42236e+21
-23.1676  8.50805e+21
-23.0503  8.59533e+21
-22.933  8.68402e+21
-22.8157  8.77348e+21
-22.6984  8.86246e+21
-22.5811  8.94937e+21
-22.4638  9.03291e+21
-22.3465  9.11069e+21
-22.2292  9.18208e+21
-22.1119  9.24602e+21
-21.9946  9.30327e+21
-21.8773  9.35441e+21
-21.76  9.40131e+21
-21.6427  9.44629e+21
-21.5254  9.49167e+21
-21.4081  9.53981e+21
-21.2908  9.59311e+21
-21.1735  9.65372e+21
-21.0561  9.72333e+21
-20.9388  9.80388e+21
-20.8215  9.89682e+21
-20.7042  1.00026e+22
-20.5869  1.0121e+22
-20.4696  1.02514e+22
-20.3523  1.03916e+22
-20.235  1.05386e+22
-20.1177  1.06876e+22
-20.0004  1.08342e+22
-19.8831  1.09745e+22
-19.7658  1.1104e+22
-19.6485  1.12199e+22
-19.5312  1.13214e+22
-19.4139  1.14088e+22
-19.2966  1.14842e+22
-19.1793  1.15509e+22
-19.062  1.1613e+22
-18.9447  1.16744e+22
-18.8274  1.17389e+22
-18.71  1.18103e+22
-18.5927  1.189e+22
-18.4754  1.19791e+22
-18.3581  1.20778e+22
-18.2408  1.21843e+22
-18.1235  1.22965e+22
-18.0062  1.24109e+22
-17.8889  1.25239e+22
-17.7716  1.26319e+22
-17.6543  1.27304e+22
-17.537  1.28166e+22
-17.4197  1.28879e+22
-17.3024  1.29439e+22
-17.1851  1.29849e+22
-17.0678  1.30129e+22
-16.9505  1.30316e+22
-16.8332  1.30453e+22
-16.7159  1.30585e+22
-16.5986  1.30755e+22
-16.4813  1.30998e+22
-16.364  1.3134e+22
-16.2466  1.31796e+22
-16.1293  1.32371e+22
-16.012  1.33045e+22
-15.8947  1.33804e+22
-15.7774  1.34624e+22
-15.6601  1.3548e+22
-15.5428  1.36348e+22
-15.4255  1.37204e+22
-15.3082  1.3803e+22
-15.1909  1.38827e+22
-15.0736  1.39585e+22
-14.9563  1.40313e+22
-14.839  1.41025e+22
-14.7217  1.41744e+22
-14.6044  1.42488e+22
-14.4871  1.43285e+22
-14.3698  1.44156e+22
-14.2525  1.45122e+22
-14.1352  1.46188e+22
-14.0178  1.47365e+22
-13.9005  1.4864e+22
-13.7832  1.49999e+22
-13.6659  1.51423e+22
-13.5486  1.52877e+22
-13.4313  1.5433e+22
-13.314  1.55749e+22
-13.1967  1.571e+22
-13.0794  1.5836e+22
-12.9621  1.595e+22
-12.8448  1.60512e+22
-12.7275  1.61384e+22
-12.6102  1.62122e+22
-12.4929  1.62732e+22
-12.3756  1.63224e+22
-12.2583  1.63619e+22
-12.141  1.63933e+22
-12.0237  1.64182e+22
-11.9064  1.64374e+22
-11.7891  1.64516e+22
-11.6718  1.64614e+22
-11.5544  1.64667e+22
-11.4371  1.64683e+22
-11.3198  1.64653e+22
-11.2025  1.64592e+22
-11.0852  1.64508e+22
-10.9679  1.64421e+22
-10.8506  1.64354e+22
-10.7333  1.64333e+22
-10.616  1.64382e+22
-10.4987  1.6454e+22
-10.3814  1.64817e+22
-10.2641  1.6524e+22
-10.1468  1.65814e+22
-10.0295  1.66544e+22
-9.91217  1.67417e+22
-9.79487  1.68418e+22
-9.67756  1.69515e+22
-9.56026  1.70674e+22
-9.44295  1.7185e+22
-9.32565  1.73007e+22
-9.20834  1.74099e+22
-9.09104  1.75091e+22
-8.97373  1.75966e+22
-8.85643  1.76704e+22
-8.73913  1.77308e+22
-8.62182  1.77791e+22
-8.50452  1.7818e+22
-8.38721  1.78513e+22
-8.26991  1.78822e+22
-8.1526  1.79158e+22
-8.03529  1.79552e+22
-7.91799  1.80036e+22
-7.80069  1.80627e+22
-7.68338  1.8133e+22
-7.56608  1.82139e+22
-7.44877  1.83033e+22
-7.33146  1.83979e+22
-7.21416  1.84929e+22
-7.09685  1.85835e+22
-6.97955  1.86651e+22
-6.86224  1.87331e+22
-6.74494  1.87853e+22
-6.62763  1.88187e+22
-6.51033  1.88345e+22
-6.39302  1.88341e+22
-6.27572  1.88215e+22
-6.15842  1.88012e+22
-6.04111  1.87787e+22
-5.92381  1.87597e+22
-5.8065  1.87498e+22
-5.68919  1.87521e+22
-5.57189  1.87703e+22
-5.45458  1.88049e+22
-5.33728  1.88556e+22
-5.21997  1.89198e+22
-5.10267  1.89938e+22
-4.98536  1.90725e+22
-4.86806  1.91506e+22
-4.75075  1.92224e+22
-4.63345  1.92829e+22
-4.51614  1.9328e+22
-4.39884  1.93552e+22
-4.28154  1.93644e+22
-4.16423  1.93565e+22
-4.04692  1.93347e+22
-3.92962  1.93034e+22
-3.81231  1.92681e+22
-3.69501  1.92346e+22
-3.5777  1.92075e+22
-3.4604  1.9192e+22
-3.34309  1.91907e+22
-3.22579  1.92054e+22
-3.10849  1.92362e+22
-2.99118  1.92819e+22
-2.87387  1.93406e+22
-2.75657  1.94088e+22
-2.63926  1.94823e+22
-2.52196  1.95563e+22
-2.40465  1.96259e+22
-2.28735  1.96859e+22
-2.17005  1.97318e+22
-2.05274  1.9761e+22
-1.93544  1.97703e+22
-1.81813  1.97603e+22
-1.70083  1.97318e+22
-1.58352  1.96885e+22
-1.46622  1.96343e+22
-1.34891  1.95746e+22
-1.2316  1.95141e+22
-1.1143  1.94576e+22
-0.996995  1.94077e+22
-0.87969  1.93671e+22
-0.762385  1.93358e+22
-0.64508  1.93137e+22
-0.527775  1.92994e+22
-0.41047  1.92909e+22
-0.293165  1.92864e+22
-0.17586  1.92842e+22
-0.058555  1.92835e+22
0.05875  1.92832e+22
0.176055  1.92835e+22
0.29336  1.92848e+22
0.410665  1.92888e+22
0.52797  1.92965e+22
0.645275  1.931e+22
0.76258  1.93311e+22
0.879885  1.93612e+22
0.99719  1.94006e+22
1.1145  1.94489e+22
1.2318  1.95042e+22
1.3491  1.95634e+22
1.46641  1.96216e+22
1.58371  1.96742e+22
1.70102  1.9716e+22
1.81832  1.9743e+22
1.93563  1.9752e+22
2.05294  1.97414e+22
2.17024  1.9712e+22
2.28754  1.96655e+22
2.40485  1.96052e+22
2.52216  1.95356e+22
2.63946  1.94619e+22
2.75677  1.93886e+22
2.87407  1.93208e+22
2.99137  1.92623e+22
3.10868  1.92167e+22
3.22599  1.91856e+22
3.34329  1.91712e+22
3.4606  1.91724e+22
3.5779  1.91876e+22
3.69521  1.92136e+22
3.81251  1.92465e+22
3.92982  1.92805e+22
4.04712  1.93104e+22
4.16443  1.9331e+22
4.28173  1.93375e+22
4.39903  1.93269e+22
4.51634  1.92981e+22
4.63364  1.92518e+22
4.75095  1.919e+22
4.86825  1.91171e+22
4.98556  1.9038e+22
5.10286  1.89584e+22
5.22017  1.88837e+22
5.33748  1.88188e+22
5.45478  1.87674e+22
5.57209  1.87322e+22
5.68939  1.8713e+22
5.8067  1.87097e+22
5.924  1.87188e+22
6.0413  1.87367e+22
6.15861  1.87577e+22
6.27591  1.87766e+22
6.39322  1.87877e+22
6.51052  1.87863e+22
6.62783  1.87689e+22
6.74514  1.87335e+22
6.86244  1.86803e+22
6.97975  1.86109e+22
7.09705  1.85282e+22
7.21436  1.84365e+22
7.33166  1.83409e+22
7.44897  1.8246e+22
7.56627  1.81563e+22
7.68358  1.80752e+22
7.80088  1.80046e+22
7.91819  1.79452e+22
8.03549  1.7897e+22
8.1528  1.78578e+22
8.2701  1.7824e+22
8.38741  1.77923e+22
8.50471  1.77589e+22
8.62202  1.77192e+22
8.73932  1.76702e+22
8.85662  1.76091e+22
8.97393  1.75345e+22
9.09123  1.74463e+22
9.20854  1.7346e+22
9.32584  1.72362e+22
9.44315  1.71199e+22
9.56045  1.70014e+22
9.67776  1.68851e+22
9.79506  1.6775e+22
9.91237  1.66747e+22
10.0297  1.65869e+22
10.147  1.65138e+22
10.2643  1.64564e+22
10.3816  1.64137e+22
10.4989  1.63858e+22
10.6162  1.63699e+22
10.7335  1.63645e+22
10.8508  1.6366e+22
10.9681  1.63721e+22
11.0854  1.63802e+22
11.2027  1.63876e+22
11.32  1.63926e+22
11.4373  1.63942e+22
11.5546  1.63917e+22
11.6719  1.63849e+22
11.7893  1.63739e+22
11.9066  1.63582e+22
12.0239  1.63377e+22
12.1412  1.63117e+22
12.2585  1.62791e+22
12.3758  1.62385e+22
12.4931  1.61881e+22
12.6104  1.61261e+22
12.7277  1.60517e+22
12.845  1.59641e+22
12.9623  1.58622e+22
13.0796  1.57476e+22
13.1969  1.56217e+22
13.3142  1.54863e+22
13.4315  1.53444e+22
13.5488  1.51993e+22
13.6661  1.5054e+22
13.7834  1.49118e+22
13.9007  1.47759e+22
14.018  1.46487e+22
14.1354  1.45311e+22
14.2527  1.44241e+22
14.37  1.43278e+22
14.4873  1.42403e+22
14.6046  1.41605e+22
14.7219  1.40857e+22
14.8392  1.40138e+22
14.9565  1.39424e+22
15.0738  1.3869e+22
15.1911  1.37932e+22
15.3084  1.37133e+22
15.4257  1.363e+22
15.543  1.35441e+22
15.6603  1.3457e+22
15.7776  1.33713e+22
15.8949  1.32889e+22
16.0122  1.32122e+22
16.1295  1.31441e+22
16.2468  1.30862e+22
16.3641  1.30398e+22
16.4815  1.30047e+22
16.5988  1.29796e+22
16.7161  1.29614e+22
16.8334  1.29473e+22
16.9507  1.29325e+22
17.068  1.29126e+22
17.1853  1.28833e+22
17.3026  1.28413e+22
17.4199  1.27846e+22
17.5372  1.27127e+22
17.6545  1.26258e+22
17.7718  1.2527e+22
17.8891  1.24192e+22
18.0064  1.23062e+22
18.1237  1.21919e+22
18.241  1.20804e+22
18.3583  1.19744e+22
18.4756  1.18763e+22
18.5929  1.17875e+22
18.7102  1.17085e+22
18.8275  1.16375e+22
18.9449  1.1573e+22
19.0622  1.15117e+22
19.1795  1.14494e+22
19.2968  1.13825e+22
19.4141  1.13068e+22
19.5314  1.12191e+22
19.6487  1.11175e+22
19.766  1.1001e+22
19.8833  1.08716e+22
20.0006  1.07314e+22
20.1179  1.05845e+22
20.2352  1.04357e+22
20.3525  1.02892e+22
20.4698  1.01497e+22
20.5871  1.00199e+22
20.7044  9.90172e+21
20.8217  9.79648e+21
20.939  9.70409e+21
21.0563  9.62372e+21
21.1736  9.5543e+21
21.291  9.49406e+21
21.4083  9.44054e+21
21.5256  9.3925e+21
21.6429  9.34698e+21
21.7602  9.30185e+21
21.8775  9.25446e+21
21.9948  9.20291e+21
22.1121  9.14544e+21
22.2294  9.08108e+21
22.3467  9.00924e+21
22.464  8.93115e+21
22.5813  8.84765e+21
22.6986  8.76057e+21
22.8159  8.67151e+21
22.9332  8.58241e+21
23.0505  8.494e+21
23.1678  8.40717e+21
23.2851  8.32193e+21
23.4024  8.23808e+21
23.5198  8.15461e+21
23.6371  8.07118e+21
23.7544  7.98697e+21
23.8717  7.90133e+21
23.989  7.8145e+21
24.1063  7.72651e+21
24.2236  7.63781e+21
24.3409  7.54952e+21
24.4582  7.46258e+21
24.5755  7.37863e+21
24.6928  7.29877e+21
24.8101  7.22439e+21
24.9274  7.15608e+21
25.0447  7.09361e+21
25.162  7.03644e+21
25.2793  6.9824e+21
25.3966  6.92866e+21
25.5139  6.87247e+21
25.6312  6.8108e+21
25.7485  6.74089e+21
25.8658  6.66148e+21
25.9832  6.57173e+21
26.1005  6.47193e+21
26.2178  6.36451e+21
26.3351  6.25157e+21
26.4524  6.13632e+21
26.5697  6.02177e+21
26.687  5.91114e+21
26.8043  5.80671e+21
26.9216  5.71058e+21
27.0389  5.6237e+21
27.1562  5.54694e+21
27.2735  5.47989e+21
27.3908  5.42172e+21
27.5081  5.37122e+21
27.6254  5.32654e+21
27.7427  5.28539e+21
27.86  5.24569e+21
27.9773  5.20521e+21
28.0946  5.16205e+21
28.212  5.11469e+21
28.3293  5.06268e+21
28.4466  5.00582e+21
28.5639  4.94452e+21
28.6812  4.87987e+21
28.7985  4.81309e+21
28.9158  4.74523e+21
29.0331  4.67741e+21
29.1504  4.61021e+21
29.2677  4.54397e+21
29.385  4.47856e+21
29.5023  4.41366e+21
29.6196  4.34883e+21
29.7369  4.2832e+21
29.8542  4.21673e+21
29.9715  4.14873e+21
30.0888  4.07915e+21
30.2061  4.00845e+21
30.3234  3.93736e+21
30.4407  3.86698e+21
30.558  3.79915e+21
30.6754  3.73548e+21
30.7927  3.67778e+21
30.91  3.62792e+21
31.0273  3.58709e+21
31.1446  3.55585e+21
31.2619  3.53415e+21
31.3792  3.52115e+21
31.4965  3.51479e+21
31.6138  3.51277e+21
31.7311  3.51202e+21
31.8484  3.50945e+21
31.9657  3.50153e+21
32.083  3.48555e+21
32.2003  3.45907e+21
32.3176  3.4205e+21
32.4349  3.36921e+21
32.5522  3.3055e+21
32.6695  3.23064e+21
32.7868  3.14656e+21
32.9042  3.05576e+21
33.0215  2.9614e+21
33.1388  2.86627e+21
33.2561  2.77297e+21
33.3734  2.68344e+21
33.4907  2.5993e+21
33.608  2.52105e+21
33.7253  2.4487e+21
33.8426  2.38182e+21
33.9599  2.31956e+21
34.0772  2.26111e+21
34.1945  2.20569e+21
34.3118  2.1529e+21
34.4291  2.10257e+21
34.5464  2.05519e+21
34.6637  2.01128e+21
34.781  1.97177e+21
34.8983  1.93786e+21
35.0156  1.91049e+21
35.1329  1.89077e+21
35.2503  1.87953e+21
35.3676  1.8769e+21
35.4849  1.88267e+21
35.6022  1.89588e+21
35.7195  1.91469e+21
35.8368  1.93669e+21
35.9541  1.95914e+21
36.0714  1.97884e+21
36.1887  1.99264e+21
36.306  1.99809e+21
36.4233  1.99317e+21
36.5406  1.97706e+21
36.6579  1.94957e+21
36.7752  1.91211e+21
36.8925  1.86653e+21
37.0098  1.81565e+21
37.1271  1.76276e+21
37.2444  1.71092e+21
37.3617  1.66329e+21
37.479  1.62229e+21
37.5964  1.58946e+21
37.7137  1.56572e+21
37.831  1.55054e+21
37.9483  1.5426e+21
38.0656  1.53921e+21
38.1829  1.53763e+21
38.3002  1.53424e+21
38.4175  1.52563e+21
38.5348  1.50913e+21
38.6521  1.48274e+21
38.7694  1.4459e+21
38.8867  1.39917e+21
39.004  1.34429e+21
39.1213  1.28406e+21
39.2386  1.22163e+21
39.3559  1.1604e+21
39.4732  1.10319e+21
39.5905  1.05227e+21
39.7078  1.00891e+21
39.8251  9.73653e+20
39.9425  9.4617e+20
40.0598  9.25453e+20
40.1771  9.10402e+20
40.2944  8.99636e+20
40.4117  8.91687e+20
40.529  8.8541e+20
40.6463  8.79846e+20
40.7636  8.74075e+20
40.8809  8.67529e+20
40.9982  8.60103e+20
41.1155  8.51649e+20
41.2328  8.42669e+20
41.3501  8.33647e+20
41.4674  8.25692e+20
41.5847  8.1958e+20
41.702  8.16161e+20
41.8193  8.16213e+20
41.9366  8.19774e+20
42.0539  8.26717e+20
42.1712  8.3633e+20
42.2885  8.47545e+20
42.4059  8.59171e+20
42.5232  8.69812e+20
42.6405  8.78575e+20
42.7578  8.84304e+20
42.8751  8.86531e+20
42.9924  8.84766e+20
43.1097  8.78809e+20
43.227  8.68675e+20
43.3443  8.54532e+20
43.4616  8.36778e+20
43.5789  8.1597e+20
43.6962  7.92974e+20
43.8135  7.68821e+20
43.9308  7.4461e+20
44.0481  7.21586e+20
44.1654  7.0057e+20
44.2827  6.82326e+20
44.4  6.67039e+20
44.5173  6.54488e+20
44.6347  6.44165e+20
44.752  6.35154e+20
44.8693  6.26957e+20
44.9866  6.19119e+20
45.1039  6.11377e+20
45.2212  6.04199e+20
45.3385  5.98295e+20
45.4558  5.94446e+20
45.5731  5.93636e+20
45.6904  5.96546e+20
45.8077  6.03379e+20
45.925  6.14023e+20
46.0423  6.27731e+20
46.1596  6.43551e+20
46.2769  6.60185e+20
46.3942  6.76095e+20
46.5115  6.90093e+20
46.6288  7.00875e+20
46.7461  7.07842e+20
46.8634  7.10544e+20
46.9808  7.09091e+20
47.0981  7.04001e+20
47.2154  6.96037e+20
47.3327  6.86586e+20
47.45  6.76877e+20
47.5673  6.68016e+20
47.6846  6.61085e+20
47.8019  6.5642e+20
47.9192  6.54001e+20
48.0365  6.53222e+20
48.1538  6.529e+20
48.2711  6.51623e+20
48.3884  6.47926e+20
48.5057  6.40527e+20
48.623  6.28502e+20
48.7403  6.11454e+20
48.8576  5.89455e+20
48.9749  5.63353e+20
49.0922  5.34352e+20
49.2095  5.03842e+20
49.3269  4.7355e+20
49.4442  4.45013e+20
49.5615  4.2e+20
49.6788  3.99935e+20
49.7961  3.85892e+20
49.9134  3.78668e+20
50.0307  3.78703e+20
50.148  3.85657e+20
50.2653  3.98831e+20
50.3826  4.16872e+20
50.4999  4.38021e+20
50.6172  4.60223e+20
50.7345  4.81512e+20
50.8518  4.99976e+20
