#S 1 spectral density
#N 2
#UFWHM 30.0301
#L  abscissas [um]  spectral density
-58.5938  1.49834e+20
-58.4764  1.53485e+20
-58.3591  1.56176e+20
-58.2418  1.57785e+20
-58.1245  1.58398e+20
-58.0072  1.58466e+20
-57.8899  1.5851e+20
-57.7726  1.59387e+20
-57.6553  1.62034e+20
-57.538  1.67287e+20
-57.4207  1.75797e+20
-57.3034  1.87804e+20
-57.1861  2.03028e+20
-57.0688  2.20533e+20
-56.9515  2.39072e+20
-56.8342  2.56956e+20
-56.7169  2.72504e+20
-56.5996  2.84299e+20
-56.4823  2.91374e+20
-56.365  2.9351e+20
-56.2477  2.91034e+20
-56.1303  2.84778e+20
-56.013  2.76105e+20
-55.8957  2.66254e+20
-55.7784  2.56571e+20
-55.6611  2.47728e+20
-55.5438  2.40203e+20
-55.4265  2.33962e+20
-55.3092  2.28692e+20
-55.1919  2.23713e+20
-55.0746  2.18509e+20
-54.9573  2.12443e+20
-54.84  2.0536e+20
-54.7227  1.97088e+20
-54.6054  1.87876e+20
-54.4881  1.77973e+20
-54.3708  1.67895e+20
-54.2535  1.58175e+20
-54.1362  1.49296e+20
-54.0189  1.41778e+20
-53.9016  1.35981e+20
-53.7842  1.32178e+20
-53.6669  1.30509e+20
-53.5496  1.31078e+20
-53.4323  1.3386e+20
-53.315  1.38729e+20
-53.1977  1.45495e+20
-53.0804  1.5401e+20
-52.9631  1.63963e+20
-52.8458  1.74997e+20
-52.7285  1.86845e+20
-52.6112  1.99162e+20
-52.4939  2.11613e+20
-52.3766  2.23907e+20
-52.2593  2.35893e+20
-52.142  2.47555e+20
-52.0247  2.58743e+20
-51.9074  2.69682e+20
-51.7901  2.80251e+20
-51.6728  2.90519e+20
-51.5555  3.00294e+20
-51.4381  3.09237e+20
-51.3208  3.16835e+20
-51.2035  3.22335e+20
-51.0862  3.25272e+20
-50.9689  3.24989e+20
-50.8516  3.21221e+20
-50.7343  3.14034e+20
-50.617  3.03848e+20
-50.4997  2.91397e+20
-50.3824  2.77648e+20
-50.2651  2.63795e+20
-50.1478  2.51055e+20
-50.0305  2.40527e+20
-49.9132  2.33195e+20
-49.7959  2.29621e+20
-49.6786  2.3024e+20
-49.5613  2.34989e+20
-49.444  2.43513e+20
-49.3267  2.55067e+20
-49.2094  2.68623e+20
-49.092  2.82913e+20
-48.9747  2.96544e+20
-48.8574  3.08154e+20
-48.7401  3.16811e+20
-48.6228  3.21855e+20
-48.5055  3.23306e+20
-48.3882  3.21893e+20
-48.2709  3.18588e+20
-48.1536  3.14868e+20
-48.0363  3.12308e+20
-47.919  3.12188e+20
-47.8017  3.15313e+20
-47.6844  3.21963e+20
-47.5671  3.31691e+20
-47.4498  3.43552e+20
-47.3325  3.56203e+20
-47.2152  3.68124e+20
-47.0979  3.77991e+20
-46.9806  3.84594e+20
-46.8633  3.87215e+20
-46.7459  3.85796e+20
-46.6286  3.80464e+20
-46.5113  3.71987e+20
-46.394  3.61117e+20
-46.2767  3.49185e+20
-46.1594  3.37372e+20
-46.0421  3.26749e+20
-45.9248  3.18266e+20
-45.8075  3.12615e+20
-45.6902  3.09961e+20
-45.5729  3.10269e+20
-45.4556  3.12827e+20
-45.3383  3.16956e+20
-45.221  3.21616e+20
-45.1037  3.26012e+20
-44.9864  3.29717e+20
-44.8691  3.32392e+20
-44.7518  3.34348e+20
-44.6345  3.36228e+20
-44.5172  3.389e+20
-44.3998  3.43178e+20
-44.2825  3.49784e+20
-44.1652  3.58952e+20
-44.0479  3.7066e+20
-43.9306  3.84401e+20
-43.8133  3.99427e+20
-43.696  4.1489e+20
-43.5787  4.2996e+20
-43.4614  4.43959e+20
-43.3441  4.56475e+20
-43.2268  4.67205e+20
-43.1095  4.76167e+20
-42.9922  4.83337e+20
-42.8749  4.88879e+20
-42.7576  4.92873e+20
-42.6403  4.95831e+20
-42.523  4.98061e+20
-42.4057  5.0024e+20
-42.2884  5.02931e+20
-42.171  5.06904e+20
-42.0537  5.1275e+20
-41.9364  5.20709e+20
-41.8191  5.30752e+20
-41.7018  5.42136e+20
-41.5845  5.54122e+20
-41.4672  5.65385e+20
-41.3499  5.74701e+20
-41.2326  5.80998e+20
-41.1153  5.8361e+20
-40.998  5.82516e+20
-40.8807  5.78124e+20
-40.7634  5.71349e+20
-40.6461  5.63663e+20
-40.5288  5.56334e+20
-40.4115  5.5091e+20
-40.2942  5.48663e+20
-40.1769  5.50193e+20
-40.0596  5.55939e+20
-39.9423  5.65825e+20
-39.825  5.79007e+20
-39.7076  5.94594e+20
-39.5903  6.1099e+20
-39.473  6.26612e+20
-39.3557  6.39791e+20
-39.2384  6.48917e+20
-39.1211  6.52792e+20
-39.0038  6.5077e+20
-38.8865  6.43117e+20
-38.7692  6.30845e+20
-38.6519  6.15951e+20
-38.5346  6.00749e+20
-38.4173  5.88226e+20
-38.3  5.81006e+20
-38.1827  5.8127e+20
-38.0654  5.90398e+20
-37.9481  6.08571e+20
-37.8308  6.3508e+20
-37.7135  6.67955e+20
-37.5962  7.04678e+20
-37.4789  7.42603e+20
-37.3615  7.78626e+20
-37.2442  8.10559e+20
-37.1269  8.36645e+20
-37.0096  8.55744e+20
-36.8923  8.67859e+20
-36.775  8.73312e+20
-36.6577  8.73394e+20
-36.5404  8.69412e+20
-36.4231  8.6283e+20
-36.3058  8.55446e+20
-36.1885  8.48258e+20
-36.0712  8.42367e+20
-35.9539  8.37962e+20
-35.8366  8.35038e+20
-35.7193  8.32976e+20
-35.602  8.3074e+20
-35.4847  8.26999e+20
-35.3674  8.20591e+20
-35.2501  8.10183e+20
-35.1328  7.95143e+20
-35.0154  7.75488e+20
-34.8981  7.51654e+20
-34.7808  7.24748e+20
-34.6635  6.96512e+20
-34.5462  6.68922e+20
-34.4289  6.43819e+20
-34.3116  6.23239e+20
-34.1943  6.08584e+20
-34.077  6.0092e+20
-33.9597  6.00874e+20
-33.8424  6.08164e+20
-33.7251  6.22349e+20
-33.6078  6.42387e+20
-33.4905  6.66933e+20
-33.3732  6.94532e+20
-33.2559  7.23445e+20
-33.1386  7.52434e+20
-33.0213  7.80201e+20
-32.904  8.05999e+20
-32.7867  8.29809e+20
-32.6693  8.51778e+20
-32.552  8.72853e+20
-32.4347  8.94252e+20
-32.3174  9.17113e+20
-32.2001  9.42784e+20
-32.0828  9.71991e+20
-31.9655  1.00519e+21
-31.8482  1.04213e+21
-31.7309  1.08177e+21
-31.6136  1.12307e+21
-31.4963  1.16431e+21
-31.379  1.20392e+21
-31.2617  1.24013e+21
-31.1444  1.27199e+21
-31.0271  1.29886e+21
-30.9098  1.3206e+21
-30.7925  1.33777e+21
-30.6752  1.35119e+21
-30.5579  1.36192e+21
-30.4406  1.37147e+21
-30.3232  1.38096e+21
-30.2059  1.3915e+21
-30.0886  1.40337e+21
-29.9713  1.41668e+21
-29.854  1.43096e+21
-29.7367  1.44532e+21
-29.6194  1.45876e+21
-29.5021  1.47011e+21
-29.3848  1.47867e+21
-29.2675  1.48404e+21
-29.1502  1.48631e+21
-29.0329  1.48604e+21
-28.9156  1.48459e+21
-28.7983  1.48328e+21
-28.681  1.48379e+21
-28.5637  1.48775e+21
-28.4464  1.49663e+21
-28.3291  1.5115e+21
-28.2118  1.53301e+21
-28.0944  1.56141e+21
-27.9771  1.5965e+21
-27.8598  1.63758e+21
-27.7425  1.68379e+21
-27.6252  1.73386e+21
-27.5079  1.78651e+21
-27.3906  1.84057e+21
-27.2733  1.89512e+21
-27.156  1.94999e+21
-27.0387  2.00524e+21
-26.9214  2.06176e+21
-26.8041  2.12089e+21
-26.6868  2.18396e+21
-26.5695  2.25226e+21
-26.4522  2.32641e+21
-26.3349  2.40664e+21
-26.2176  2.4917e+21
-26.1003  2.5802e+21
-25.983  2.66924e+21
-25.8657  2.75611e+21
-25.7483  2.83815e+21
-25.631  2.91267e+21
-25.5137  2.97819e+21
-25.3964  3.03397e+21
-25.2791  3.07994e+21
-25.1618  3.1175e+21
-25.0445  3.14879e+21
-24.9272  3.17634e+21
-24.8099  3.20334e+21
-24.6926  3.23355e+21
-24.5753  3.27035e+21
-24.458  3.31702e+21
-24.3407  3.37602e+21
-24.2234  3.4494e+21
-24.1061  3.53729e+21
-23.9888  3.63874e+21
-23.8715  3.75157e+21
-23.7542  3.87216e+21
-23.6369  3.99608e+21
-23.5196  4.11877e+21
-23.4023  4.23602e+21
-23.2849  4.34442e+21
-23.1676  4.44182e+21
-23.0503  4.52778e+21
-22.933  4.60374e+21
-22.8157  4.67194e+21
-22.6984  4.73619e+21
-22.5811  4.80038e+21
-22.4638  4.86947e+21
-22.3465  4.94735e+21
-22.2292  5.03777e+21
-22.1119  5.14303e+21
-21.9946  5.26454e+21
-21.8773  5.40199e+21
-21.76  5.55297e+21
-21.6427  5.71401e+21
-21.5254  5.87967e+21
-21.4081  6.04456e+21
-21.2908  6.20187e+21
-21.1735  6.34613e+21
-21.0561  6.47299e+21
-20.9388  6.57956e+21
-20.8215  6.66567e+21
-20.7042  6.7332e+21
-20.5869  6.78587e+21
-20.4696  6.82955e+21
-20.3523  6.87073e+21
-20.235  6.91589e+21
-20.1177  6.971e+21
-20.0004  7.04151e+21
-19.8831  7.13126e+21
-19.7658  7.2425e+21
-19.6485  7.37608e+21
-19.5312  7.53177e+21
-19.4139  7.70755e+21
-19.2966  7.90041e+21
-19.1793  8.10691e+21
-19.062  8.32195e+21
-18.9447  8.54064e+21
-18.8274  8.75787e+21
-18.71  8.96918e+21
-18.5927  9.17053e+21
-18.4754  9.35929e+21
-18.3581  9.53397e+21
-18.2408  9.69537e+21
-18.1235  9.84399e+21
-18.0062  9.98218e+21
-17.8889  1.01121e+22
-17.7716  1.02366e+22
-17.6543  1.03572e+22
-17.537  1.04759e+22
-17.4197  1.05927e+22
-17.3024  1.07088e+22
-17.1851  1.08242e+22
-17.0678  1.0939e+22
-16.9505  1.10537e+22
-16.8332  1.11692e+22
-16.7159  1.1287e+22
-16.5986  1.14088e+22
-16.4813  1.15368e+22
-16.364  1.16736e+22
-16.2466  1.18216e+22
-16.1293  1.19831e+22
-16.012  1.21599e+22
-15.8947  1.23531e+22
-15.7774  1.25632e+22
-15.6601  1.27895e+22
-15.5428  1.303e+22
-15.4255  1.32817e+22
-15.3082  1.35406e+22
-15.1909  1.38022e+22
-15.0736  1.40612e+22
-14.9563  1.43124e+22
-14.839  1.45517e+22
-14.7217  1.47753e+22
-14.6044  1.49806e+22
-14.4871  1.51673e+22
-14.3698  1.53352e+22
-14.2525  1.54862e+22
-14.1352  1.5623e+22
-14.0178  1.57492e+22
-13.9005  1.58683e+22
-13.7832  1.59843e+22
-13.6659  1.61001e+22
-13.5486  1.62192e+22
-13.4313  1.63424e+22
-13.314  1.64711e+22
-13.1967  1.66049e+22
-13.0794  1.67431e+22
-12.9621  1.68835e+22
-12.8448  1.70242e+22
-12.7275  1.71625e+22
-12.6102  1.7297e+22
-12.4929  1.74261e+22
-12.3756  1.75491e+22
-12.2583  1.76665e+22
-12.141  1.77799e+22
-12.0237  1.78906e+22
-11.9064  1.80014e+22
-11.7891  1.81154e+22
-11.6718  1.82349e+22
-11.5544  1.8363e+22
-11.4371  1.85022e+22
-11.3198  1.86535e+22
-11.2025  1.88182e+22
-11.0852  1.89964e+22
-10.9679  1.91876e+22
-10.8506  1.93904e+22
-10.7333  1.96029e+22
-10.616  1.9822e+22
-10.4987  2.00458e+22
-10.3814  2.02708e+22
-10.2641  2.04942e+22
-10.1468  2.07136e+22
-10.0295  2.09274e+22
-9.91217  2.11335e+22
-9.79487  2.13316e+22
-9.67756  2.15207e+22
-9.56026  2.17006e+22
-9.44295  2.18711e+22
-9.32565  2.20327e+22
-9.20834  2.21851e+22
-9.09104  2.23282e+22
-8.97373  2.24625e+22
-8.85643  2.25884e+22
-8.73913  2.27058e+22
-8.62182  2.28159e+22
-8.50452  2.29201e+22
-8.38721  2.30196e+22
-8.26991  2.31157e+22
-8.1526  2.32104e+22
-8.03529  2.33047e+22
-7.91799  2.34e+22
-7.80069  2.34974e+22
-7.68338  2.3597e+22
-7.56608  2.36989e+22
-7.44877  2.38027e+22
-7.33146  2.39067e+22
-7.21416  2.40091e+22
-7.09685  2.4108e+22
-6.97955  2.42003e+22
-6.86224  2.42842e+22
-6.74494  2.4358e+22
-6.62763  2.44196e+22
-6.51033  2.44695e+22
-6.39302  2.4508e+22
-6.27572  2.4537e+22
-6.15842  2.45595e+22
-6.04111  2.4579e+22
-5.92381  2.45994e+22
-5.8065  2.46256e+22
-5.68919  2.46614e+22
-5.57189  2.47108e+22
-5.45458  2.47764e+22
-5.33728  2.48609e+22
-5.21997  2.49646e+22
-5.10267  2.50873e+22
-4.98536  2.52271e+22
-4.86806  2.53811e+22
-4.75075  2.55455e+22
-4.63345  2.57162e+22
-4.51614  2.58886e+22
-4.39884  2.60585e+22
-4.28154  2.62234e+22
-4.16423  2.63804e+22
-4.04692  2.65283e+22
-3.92962  2.66674e+22
-3.81231  2.67983e+22
-3.69501  2.69217e+22
-3.5777  2.70393e+22
-3.4604  2.71517e+22
-3.34309  2.72596e+22
-3.22579  2.73624e+22
-3.10849  2.74601e+22
-2.99118  2.75512e+22
-2.87387  2.76342e+22
-2.75657  2.77077e+22
-2.63926  2.7769e+22
-2.52196  2.78157e+22
-2.40465  2.78457e+22
-2.28735  2.78558e+22
-2.17005  2.78442e+22
-2.05274  2.78099e+22
-1.93544  2.77517e+22
-1.81813  2.76714e+22
-1.70083  2.75705e+22
-1.58352  2.74529e+22
-1.46622  2.73229e+22
-1.34891  2.71854e+22
-1.2316  2.70452e+22
-1.1143  2.69071e+22
-0.996995  2.67748e+22
-0.87969  2.66517e+22
-0.762385  2.65392e+22
-0.64508  2.64402e+22
-0.527775  2.63554e+22
-0.41047  2.62857e+22
-0.293165  2.62324e+22
-0.17586  2.61963e+22
-0.058555  2.61781e+22
0.05875  2.6178e+22
0.176055  2.61959e+22
0.29336  2.62315e+22
0.410665  2.62845e+22
0.52797  2.63533e+22
0.645275  2.64374e+22
0.76258  2.65356e+22
0.879885  2.66467e+22
0.99719  2.67684e+22
1.1145  2.68992e+22
1.2318  2.70353e+22
1.3491  2.71738e+22
1.46641  2.73091e+22
1.58371  2.74369e+22
1.70102  2.75521e+22
1.81832  2.76504e+22
1.93563  2.77284e+22
2.05294  2.77838e+22
2.17024  2.7816e+22
2.28754  2.78254e+22
2.40485  2.7813e+22
2.52216  2.77812e+22
2.63946  2.77325e+22
2.75677  2.76693e+22
2.87407  2.75941e+22
2.99137  2.75091e+22
3.10868  2.74161e+22
3.22599  2.73167e+22
3.34329  2.7212e+22
3.4606  2.71026e+22
3.5779  2.69882e+22
3.69521  2.68687e+22
3.81251  2.67435e+22
3.92982  2.66104e+22
4.04712  2.64695e+22
4.16443  2.63196e+22
4.28173  2.61608e+22
4.39903  2.59943e+22
4.51634  2.58225e+22
4.63364  2.56488e+22
4.75095  2.54765e+22
4.86825  2.53107e+22
4.98556  2.51554e+22
5.10286  2.50147e+22
5.22017  2.48908e+22
5.33748  2.47861e+22
5.45478  2.47008e+22
5.57209  2.46341e+22
5.68939  2.45835e+22
5.8067  2.45465e+22
5.924  2.45191e+22
6.0413  2.44974e+22
6.15861  2.44765e+22
6.27591  2.44525e+22
6.39322  2.44221e+22
6.51052  2.43823e+22
6.62783  2.43309e+22
6.74514  2.42676e+22
6.86244  2.4193e+22
6.97975  2.41079e+22
7.09705  2.40145e+22
7.21436  2.39149e+22
7.33166  2.38115e+22
7.44897  2.37067e+22
7.56627  2.36024e+22
7.68358  2.34997e+22
7.80088  2.33991e+22
7.91819  2.33008e+22
8.03549  2.32043e+22
8.1528  2.31092e+22
8.2701  2.30131e+22
8.38741  2.29153e+22
8.50471  2.28143e+22
8.62202  2.27082e+22
8.73932  2.25958e+22
8.85662  2.24765e+22
8.97393  2.23486e+22
9.09123  2.22122e+22
9.20854  2.20668e+22
9.32584  2.19125e+22
9.44315  2.17488e+22
9.56045  2.15761e+22
9.67776  2.13943e+22
9.79506  2.12035e+22
9.91237  2.10038e+22
10.0297  2.07963e+22
10.147  2.05814e+22
10.2643  2.03611e+22
10.3816  2.01366e+22
10.4989  1.99111e+22
10.6162  1.9687e+22
10.7335  1.94673e+22
10.8508  1.92548e+22
10.9681  1.90516e+22
11.0854  1.88606e+22
11.2027  1.86823e+22
11.32  1.85175e+22
11.4373  1.8366e+22
11.5546  1.82271e+22
11.6719  1.80987e+22
11.7893  1.79789e+22
11.9066  1.78652e+22
12.0239  1.77538e+22
12.1412  1.76429e+22
12.2585  1.75296e+22
12.3758  1.74119e+22
12.4931  1.72886e+22
12.6104  1.71592e+22
12.7277  1.70246e+22
12.845  1.68862e+22
12.9623  1.67454e+22
13.0796  1.6605e+22
13.1969  1.64669e+22
13.3142  1.6333e+22
13.4315  1.62039e+22
13.5488  1.60808e+22
13.6661  1.59618e+22
13.7834  1.58456e+22
13.9007  1.57294e+22
14.018  1.561e+22
14.1354  1.54834e+22
14.2527  1.5346e+22
14.37  1.51945e+22
14.4873  1.50259e+22
14.6046  1.48387e+22
14.7219  1.46327e+22
14.8392  1.44086e+22
14.9565  1.41691e+22
15.0738  1.39175e+22
15.1911  1.36585e+22
15.3084  1.33969e+22
15.4257  1.3138e+22
15.543  1.28866e+22
15.6603  1.26462e+22
15.7776  1.24206e+22
15.8949  1.22109e+22
16.0122  1.20181e+22
16.1295  1.18418e+22
16.2468  1.1681e+22
16.3641  1.15334e+22
16.4815  1.13974e+22
16.5988  1.12701e+22
16.7161  1.11487e+22
16.8334  1.10318e+22
16.9507  1.09169e+22
17.068  1.0803e+22
17.1853  1.06889e+22
17.3026  1.05742e+22
17.4199  1.04588e+22
17.5372  1.03424e+22
17.6545  1.02246e+22
17.7718  1.01046e+22
17.8891  9.98074e+21
18.0064  9.85142e+21
18.1237  9.71385e+21
18.241  9.56598e+21
18.3583  9.40555e+21
18.4756  9.23149e+21
18.5929  9.04386e+21
18.7102  8.8438e+21
18.8275  8.63405e+21
18.9449  8.41826e+21
19.0622  8.2015e+21
19.1795  7.98832e+21
19.2968  7.7839e+21
19.4141  7.59293e+21
19.5314  7.41911e+21
19.6487  7.26534e+21
19.766  7.13348e+21
19.8833  7.02381e+21
20.0006  6.93533e+21
20.1179  6.86579e+21
20.2352  6.81154e+21
20.3525  6.76695e+21
20.4698  6.72632e+21
20.5871  6.68284e+21
20.7044  6.63021e+21
20.8217  6.56286e+21
20.939  6.47691e+21
21.0563  6.37036e+21
21.1736  6.24409e+21
21.291  6.10039e+21
21.4083  5.94382e+21
21.5256  5.78033e+21
21.6429  5.61581e+21
21.7602  5.45646e+21
21.8775  5.30716e+21
21.9948  5.17158e+21
22.1121  5.05186e+21
22.2294  4.94806e+21
22.3467  4.85931e+21
22.464  4.78297e+21
22.5813  4.71523e+21
22.6986  4.65223e+21
22.8159  4.58924e+21
22.9332  4.52201e+21
23.0505  4.44707e+21
23.1678  4.36196e+21
23.2851  4.26559e+21
23.4024  4.15828e+21
23.5198  4.04219e+21
23.6371  3.92075e+21
23.7544  3.79825e+21
23.8717  3.67919e+21
23.989  3.56786e+21
24.1063  3.46792e+21
24.2236  3.3817e+21
24.3409  3.3099e+21
24.4582  3.2523e+21
24.5755  3.207e+21
24.6928  3.17141e+21
24.8101  3.14236e+21
24.9274  3.11638e+21
25.0447  3.08985e+21
25.162  3.05958e+21
25.2793  3.02286e+21
25.3966  2.9777e+21
25.5139  2.923e+21
25.6312  2.85838e+21
25.7485  2.78469e+21
25.8658  2.70385e+21
25.9832  2.61792e+21
26.1005  2.53008e+21
26.2178  2.44301e+21
26.3351  2.35909e+21
26.4524  2.28028e+21
26.5697  2.20742e+21
26.687  2.14045e+21
26.8043  2.0787e+21
26.9216  2.02081e+21
27.0389  1.96546e+21
27.1562  1.91138e+21
27.2735  1.85763e+21
27.3908  1.80421e+21
27.5081  1.75132e+21
27.6254  1.69976e+21
27.7427  1.65082e+21
27.86  1.6057e+21
27.9773  1.56567e+21
28.0946  1.53165e+21
28.212  1.50421e+21
28.3293  1.48371e+21
28.4466  1.46968e+21
28.5639  1.46163e+21
28.6812  1.45836e+21
28.7985  1.45845e+21
28.9158  1.4604e+21
29.0331  1.46242e+21
29.1504  1.46319e+21
29.2677  1.46143e+21
29.385  1.45661e+21
29.5023  1.44858e+21
29.6196  1.43776e+21
29.7369  1.42496e+21
29.8542  1.4112e+21
29.9715  1.39764e+21
30.0888  1.3849e+21
30.2061  1.37363e+21
30.3234  1.36374e+21
30.4407  1.35476e+21
30.558  1.34575e+21
30.6754  1.33531e+21
30.7927  1.32243e+21
30.91  1.30576e+21
31.0273  1.28433e+21
31.1446  1.25785e+21
31.2619  1.2264e+21
31.3792  1.19051e+21
31.4965  1.15157e+21
31.6138  1.11095e+21
31.7311  1.07026e+21
31.8484  1.03117e+21
31.9657  9.9489e+20
32.083  9.62313e+20
32.2003  9.33649e+20
32.3176  9.08527e+20
32.4349  8.86084e+20
32.5522  8.65089e+20
32.6695  8.44275e+20
32.7868  8.22597e+20
32.9042  7.99127e+20
33.0215  7.73516e+20
33.1388  7.46039e+20
33.2561  7.17311e+20
33.3734  6.88748e+20
33.4907  6.6159e+20
33.608  6.37427e+20
33.7253  6.17813e+20
33.8426  6.04058e+20
33.9599  5.97203e+20
34.0772  5.9774e+20
34.1945  6.05738e+20
34.3118  6.20656e+20
34.4291  6.41453e+20
34.5464  6.66757e+20
34.6637  6.94585e+20
34.781  7.22799e+20
34.8983  7.49586e+20
35.0156  7.73336e+20
35.1329  7.92917e+20
35.2503  8.07791e+20
35.3676  8.18119e+20
35.4849  8.24543e+20
35.6022  8.28246e+20
35.7195  8.30547e+20
35.8368  8.32591e+20
35.9541  8.35566e+20
36.0714  8.39989e+20
36.1887  8.46057e+20
36.306  8.53272e+20
36.4233  8.6069e+20
36.5406  8.67146e+20
36.6579  8.71015e+20
36.7752  8.70719e+20
36.8925  8.65051e+20
37.0098  8.52744e+20
37.1271  8.33382e+20
37.2444  8.07169e+20
37.3617  7.75042e+20
37.479  7.38937e+20
37.5964  7.01063e+20
37.7137  6.64392e+20
37.831  6.317e+20
37.9483  6.05424e+20
38.0656  5.87548e+20
38.1829  5.78672e+20
38.3002  5.78586e+20
38.4175  5.85994e+20
38.5348  5.98493e+20
38.6521  6.1363e+20
38.7694  6.28415e+20
38.8867  6.40474e+20
39.004  6.47842e+20
39.1213  6.49589e+20
39.2386  6.4558e+20
39.3559  6.36302e+20
39.4732  6.23092e+20
39.5905  6.07404e+20
39.7078  5.91009e+20
39.8251  5.75533e+20
39.9425  5.62458e+20
40.0598  5.52809e+20
40.1771  5.47167e+20
40.2944  5.45702e+20
40.4117  5.48167e+20
40.529  5.5353e+20
40.6463  5.60783e+20
40.7636  5.68493e+20
40.8809  5.75122e+20
40.9982  5.79457e+20
41.1155  5.80357e+20
41.2328  5.77538e+20
41.3501  5.71081e+20
41.4674  5.61637e+20
41.5847  5.50316e+20
41.702  5.38256e+20
41.8193  5.26871e+20
41.9366  5.16887e+20
42.0539  5.08973e+20
42.1712  5.03243e+20
42.2885  4.99242e+20
42.4059  4.96565e+20
42.5232  4.94452e+20
42.6405  4.92286e+20
42.7578  4.89345e+20
42.8751  4.85284e+20
42.9924  4.79822e+20
43.1097  4.72755e+20
43.227  4.63778e+20
43.3443  4.531e+20
43.4616  4.40611e+20
43.5789  4.26674e+20
43.6962  4.11609e+20
43.8135  3.9624e+20
43.9308  3.81262e+20
44.0481  3.67577e+20
44.1654  3.56011e+20
44.2827  3.46909e+20
44.4  3.4041e+20
44.5173  3.3622e+20
44.6347  3.3363e+20
44.752  3.31765e+20
44.8693  3.2979e+20
44.9866  3.2715e+20
45.1039  3.23517e+20
45.2212  3.19119e+20
45.3385  3.14503e+20
45.4558  3.10478e+20
45.5731  3.08001e+20
45.6904  3.07924e+20
45.8077  3.1063e+20
45.925  3.16434e+20
46.0423  3.24986e+20
46.1596  3.35727e+20
46.2769  3.47576e+20
46.3942  3.59483e+20
46.5115  3.70263e+20
46.6288  3.7869e+20
46.7461  3.83905e+20
46.8634  3.85266e+20
46.9808  3.82495e+20
47.0981  3.7584e+20
47.2154  3.65943e+20
47.3327  3.54049e+20
47.45  3.41409e+20
47.5673  3.29649e+20
47.6846  3.20062e+20
47.8019  3.13601e+20
47.9192  3.10576e+20
48.0365  3.1085e+20
48.1538  3.13497e+20
48.2711  3.17213e+20
48.3884  3.20457e+20
48.5057  3.21874e+20
48.623  3.2028e+20
48.7403  3.15125e+20
48.8576  3.0634e+20
48.9749  2.94613e+20
49.0922  2.80992e+20
49.2095  2.66771e+20
49.3269  2.53295e+20
49.4442  2.41864e+20
49.5615  2.33444e+20
49.6788  2.28908e+20
49.7961  2.28467e+20
49.9134  2.32195e+20
50.0307  2.39716e+20
50.148  2.50307e+20
50.2653  2.63111e+20
50.3826  2.76989e+20
50.4999  2.90703e+20
50.6172  3.03138e+20
50.7345  3.13295e+20
50.8518  3.20387e+20
