#S 1 spectral density
#N 2
#UFWHM 29.6782
#L  abscissas [um]  spectral density
-58.5938  1.04363e+20
-58.4764  1.0879e+20
-58.3591  1.13741e+20
-58.2418  1.18424e+20
-58.1245  1.22183e+20
-58.0072  1.24785e+20
-57.8899  1.26244e+20
-57.7726  1.27129e+20
-57.6553  1.28392e+20
-57.538  1.31169e+20
-57.4207  1.36583e+20
-57.3034  1.45496e+20
-57.1861  1.5825e+20
-57.0688  1.74462e+20
-56.9515  1.93185e+20
-56.8342  2.12834e+20
-56.7169  2.31569e+20
-56.5996  2.47522e+20
-56.4823  2.59188e+20
-56.365  2.65668e+20
-56.2477  2.66681e+20
-56.1303  2.62543e+20
-56.013  2.54354e+20
-55.8957  2.43305e+20
-55.7784  2.30934e+20
-55.6611  2.18384e+20
-55.5438  2.06731e+20
-55.4265  1.96615e+20
-55.3092  1.88391e+20
-55.1919  1.81973e+20
-55.0746  1.77247e+20
-54.9573  1.73789e+20
-54.84  1.71386e+20
-54.7227  1.69605e+20
-54.6054  1.68244e+20
-54.4881  1.66992e+20
-54.3708  1.65695e+20
-54.2535  1.64245e+20
-54.1362  1.6258e+20
-54.0189  1.60788e+20
-53.9016  1.5896e+20
-53.7842  1.57298e+20
-53.6669  1.56059e+20
-53.5496  1.5562e+20
-53.4323  1.56313e+20
-53.315  1.58478e+20
-53.1977  1.62311e+20
-53.0804  1.68036e+20
-52.9631  1.75594e+20
-52.8458  1.84722e+20
-52.7285  1.95075e+20
-52.6112  2.06104e+20
-52.4939  2.1714e+20
-52.3766  2.27504e+20
-52.2593  2.36655e+20
-52.142  2.44278e+20
-52.0247  2.50073e+20
-51.9074  2.54336e+20
-51.7901  2.57211e+20
-51.6728  2.59318e+20
-51.5555  2.61156e+20
-51.4381  2.63167e+20
-51.3208  2.65652e+20
-51.2035  2.68529e+20
-51.0862  2.7178e+20
-50.9689  2.74876e+20
-50.8516  2.77308e+20
-50.7343  2.78503e+20
-50.617  2.77957e+20
-50.4997  2.75262e+20
-50.3824  2.70191e+20
-50.2651  2.62833e+20
-50.1478  2.53596e+20
-50.0305  2.43136e+20
-49.9132  2.3246e+20
-49.7959  2.22624e+20
-49.6786  2.14969e+20
-49.5613  2.10631e+20
-49.444  2.10557e+20
-49.3267  2.15251e+20
-49.2094  2.24634e+20
-49.092  2.38036e+20
-48.9747  2.54124e+20
-48.8574  2.71166e+20
-48.7401  2.87381e+20
-48.6228  3.00938e+20
-48.5055  3.10568e+20
-48.3882  3.15737e+20
-48.2709  3.16397e+20
-48.1536  3.13321e+20
-48.0363  3.07881e+20
-47.919  3.01595e+20
-47.8017  2.95972e+20
-47.6844  2.92256e+20
-47.5671  2.91207e+20
-47.4498  2.93069e+20
-47.3325  2.97471e+20
-47.2152  3.03691e+20
-47.0979  3.10717e+20
-46.9806  3.17312e+20
-46.8633  3.2238e+20
-46.7459  3.2511e+20
-46.6286  3.24818e+20
-46.5113  3.21324e+20
-46.394  3.14682e+20
-46.2767  3.05584e+20
-46.1594  2.94947e+20
-46.0421  2.83895e+20
-45.9248  2.73658e+20
-45.8075  2.65417e+20
-45.6902  2.5995e+20
-45.5729  2.57778e+20
-45.4556  2.58652e+20
-45.3383  2.62123e+20
-45.221  2.6714e+20
-45.1037  2.72637e+20
-44.9864  2.77667e+20
-44.8691  2.8128e+20
-44.7518  2.83074e+20
-44.6345  2.83065e+20
-44.5172  2.81663e+20
-44.3998  2.79448e+20
-44.2825  2.77253e+20
-44.1652  2.75683e+20
-44.0479  2.75421e+20
-43.9306  2.76903e+20
-43.8133  2.80465e+20
-43.696  2.86436e+20
-43.5787  2.94997e+20
-43.4614  3.06325e+20
-43.3441  3.20595e+20
-43.2268  3.3766e+20
-43.1095  3.5726e+20
-42.9922  3.78702e+20
-42.8749  4.01135e+20
-42.7576  4.23322e+20
-42.6403  4.44315e+20
-42.523  4.62987e+20
-42.4057  4.78754e+20
-42.2884  4.91215e+20
-42.171  5.00551e+20
-42.0537  5.07309e+20
-41.9364  5.12124e+20
-41.8191  5.15742e+20
-41.7018  5.18491e+20
-41.5845  5.20852e+20
-41.4672  5.227e+20
-41.3499  5.23803e+20
-41.2326  5.23787e+20
-41.1153  5.22293e+20
-40.998  5.1918e+20
-40.8807  5.14433e+20
-40.7634  5.08283e+20
-40.6461  5.0144e+20
-40.5288  4.9447e+20
-40.4115  4.8845e+20
-40.2942  4.84495e+20
-40.1769  4.83386e+20
-40.0596  4.8612e+20
-39.9423  4.93458e+20
-39.825  5.05522e+20
-39.7076  5.22249e+20
-39.5903  5.42843e+20
-39.473  5.65976e+20
-39.3557  5.89789e+20
-39.2384  6.12062e+20
-39.1211  6.30462e+20
-39.0038  6.4289e+20
-38.8865  6.47971e+20
-38.7692  6.45181e+20
-38.6519  6.35193e+20
-38.5346  6.19507e+20
-38.4173  6.00774e+20
-38.3  5.82016e+20
-38.1827  5.66378e+20
-38.0654  5.56733e+20
-37.9481  5.55088e+20
-37.8308  5.62648e+20
-37.7135  5.79309e+20
-37.5962  6.04045e+20
-37.4789  6.35196e+20
-37.3615  6.70118e+20
-37.2442  7.06347e+20
-37.1269  7.41382e+20
-37.0096  7.72799e+20
-36.8923  7.99094e+20
-36.775  8.18987e+20
-36.6577  8.32251e+20
-36.5404  8.38992e+20
-36.4231  8.39927e+20
-36.3058  8.36508e+20
-36.1885  8.3001e+20
-36.0712  8.22104e+20
-35.9539  8.14018e+20
-35.8366  8.06823e+20
-35.7193  8.011e+20
-35.602  7.9681e+20
-35.4847  7.93321e+20
-35.3674  7.89856e+20
-35.2501  7.85053e+20
-35.1328  7.77731e+20
-35.0154  7.67173e+20
-34.8981  7.52765e+20
-34.7808  7.34531e+20
-34.6635  7.13135e+20
-34.5462  6.89757e+20
-34.4289  6.65729e+20
-34.3116  6.43e+20
-34.1943  6.2337e+20
-34.077  6.08697e+20
-33.9597  6.00688e+20
-33.8424  6.00387e+20
-33.7251  6.08617e+20
-33.6078  6.25494e+20
-33.4905  6.50406e+20
-33.3732  6.82193e+20
-33.2559  7.18795e+20
-33.1386  7.58135e+20
-33.0213  7.97544e+20
-32.904  8.34538e+20
-32.7867  8.67321e+20
-32.6693  8.94201e+20
-32.552  9.14742e+20
-32.4347  9.29226e+20
-32.3174  9.38546e+20
-32.2001  9.44523e+20
-32.0828  9.48983e+20
-31.9655  9.54036e+20
-31.8482  9.61454e+20
-31.7309  9.72239e+20
-31.6136  9.87261e+20
-31.4963  1.00632e+21
-31.379  1.02878e+21
-31.2617  1.05315e+21
-31.1444  1.07815e+21
-31.0271  1.10222e+21
-30.9098  1.12395e+21
-30.7925  1.1425e+21
-30.6752  1.15739e+21
-30.5579  1.1686e+21
-30.4406  1.17704e+21
-30.3232  1.18385e+21
-30.2059  1.19052e+21
-30.0886  1.1982e+21
-29.9713  1.20816e+21
-29.854  1.2211e+21
-29.7367  1.23712e+21
-29.6194  1.25596e+21
-29.5021  1.27663e+21
-29.3848  1.29806e+21
-29.2675  1.31908e+21
-29.1502  1.33848e+21
-29.0329  1.35545e+21
-28.9156  1.36976e+21
-28.7983  1.38144e+21
-28.681  1.39121e+21
-28.5637  1.40013e+21
-28.4464  1.40972e+21
-28.3291  1.42149e+21
-28.2118  1.43702e+21
-28.0944  1.4577e+21
-27.9771  1.48454e+21
-27.8598  1.51795e+21
-27.7425  1.55788e+21
-27.6252  1.60344e+21
-27.5079  1.65342e+21
-27.3906  1.70606e+21
-27.2733  1.75966e+21
-27.156  1.81288e+21
-27.0387  1.86455e+21
-26.9214  1.91446e+21
-26.8041  1.963e+21
-26.6868  2.01101e+21
-26.5695  2.05968e+21
-26.4522  2.11015e+21
-26.3349  2.16366e+21
-26.2176  2.22051e+21
-26.1003  2.28105e+21
-25.983  2.34444e+21
-25.8657  2.40993e+21
-25.7483  2.47666e+21
-25.631  2.54326e+21
-25.5137  2.6091e+21
-25.3964  2.67343e+21
-25.2791  2.73574e+21
-25.1618  2.79606e+21
-25.0445  2.85471e+21
-24.9272  2.91203e+21
-24.8099  2.96882e+21
-24.6926  3.02646e+21
-24.5753  3.0864e+21
-24.458  3.15035e+21
-24.3407  3.21995e+21
-24.2234  3.2971e+21
-24.1061  3.38248e+21
-23.9888  3.47626e+21
-23.8715  3.57782e+21
-23.7542  3.68529e+21
-23.6369  3.79595e+21
-23.5196  3.90674e+21
-23.4023  4.01445e+21
-23.2849  4.11617e+21
-23.1676  4.20972e+21
-23.0503  4.29401e+21
-22.933  4.36951e+21
-22.8157  4.43722e+21
-22.6984  4.49972e+21
-22.5811  4.55988e+21
-22.4638  4.62191e+21
-22.3465  4.68954e+21
-22.2292  4.76684e+21
-22.1119  4.85689e+21
-21.9946  4.96217e+21
-21.8773  5.08365e+21
-21.76  5.22024e+21
-21.6427  5.36942e+21
-21.5254  5.52643e+21
-21.4081  5.68586e+21
-21.2908  5.84054e+21
-21.1735  5.98405e+21
-21.0561  6.11072e+21
-20.9388  6.21622e+21
-20.8215  6.29898e+21
-20.7042  6.3598e+21
-20.5869  6.40182e+21
-20.4696  6.43088e+21
-20.3523  6.45414e+21
-20.235  6.47935e+21
-20.1177  6.51433e+21
-20.0004  6.56662e+21
-19.8831  6.64222e+21
-19.7658  6.74536e+21
-19.6485  6.87847e+21
-19.5312  7.04224e+21
-19.4139  7.23477e+21
-19.2966  7.45226e+21
-19.1793  7.68975e+21
-19.062  7.93989e+21
-18.9447  8.19494e+21
-18.8274  8.44677e+21
-18.71  8.68785e+21
-18.5927  8.91149e+21
-18.4754  9.1129e+21
-18.3581  9.28929e+21
-18.2408  9.4413e+21
-18.1235  9.57006e+21
-18.0062  9.67972e+21
-17.8889  9.77508e+21
-17.7716  9.86206e+21
-17.6543  9.94568e+21
-17.537  1.00312e+22
-17.4197  1.01219e+22
-17.3024  1.02209e+22
-17.1851  1.03296e+22
-17.0678  1.04483e+22
-16.9505  1.05767e+22
-16.8332  1.0714e+22
-16.7159  1.0859e+22
-16.5986  1.10107e+22
-16.4813  1.11685e+22
-16.364  1.1332e+22
-16.2466  1.15018e+22
-16.1293  1.1679e+22
-16.012  1.18652e+22
-15.8947  1.2062e+22
-15.7774  1.22713e+22
-15.6601  1.24947e+22
-15.5428  1.27324e+22
-15.4255  1.29837e+22
-15.3082  1.32466e+22
-15.1909  1.35176e+22
-15.0736  1.37921e+22
-14.9563  1.40644e+22
-14.839  1.43292e+22
-14.7217  1.45807e+22
-14.6044  1.48137e+22
-14.4871  1.50255e+22
-14.3698  1.52131e+22
-14.2525  1.53765e+22
-14.1352  1.55166e+22
-14.0178  1.56366e+22
-13.9005  1.57401e+22
-13.7832  1.5832e+22
-13.6659  1.59173e+22
-13.5486  1.60017e+22
-13.4313  1.60888e+22
-13.314  1.61827e+22
-13.1967  1.62857e+22
-13.0794  1.63993e+22
-12.9621  1.65229e+22
-12.8448  1.66559e+22
-12.7275  1.67958e+22
-12.6102  1.69408e+22
-12.4929  1.70886e+22
-12.3756  1.72371e+22
-12.2583  1.73855e+22
-12.141  1.75336e+22
-12.0237  1.76816e+22
-11.9064  1.78309e+22
-11.7891  1.7984e+22
-11.6718  1.81429e+22
-11.5544  1.83108e+22
-11.4371  1.84904e+22
-11.3198  1.86835e+22
-11.2025  1.88919e+22
-11.0852  1.9116e+22
-10.9679  1.93553e+22
-10.8506  1.9608e+22
-10.7333  1.98709e+22
-10.616  2.01394e+22
-10.4987  2.04091e+22
-10.3814  2.06744e+22
-10.2641  2.09297e+22
-10.1468  2.11706e+22
-10.0295  2.13935e+22
-9.91217  2.15956e+22
-9.79487  2.17767e+22
-9.67756  2.19369e+22
-9.56026  2.20784e+22
-9.44295  2.22042e+22
-9.32565  2.23185e+22
-9.20834  2.24252e+22
-9.09104  2.25282e+22
-8.97373  2.26315e+22
-8.85643  2.27381e+22
-8.73913  2.28493e+22
-8.62182  2.2967e+22
-8.50452  2.30911e+22
-8.38721  2.32212e+22
-8.26991  2.33558e+22
-8.1526  2.34934e+22
-8.03529  2.36319e+22
-7.91799  2.37696e+22
-7.80069  2.39055e+22
-7.68338  2.40381e+22
-7.56608  2.41674e+22
-7.44877  2.42935e+22
-7.33146  2.44162e+22
-7.21416  2.45359e+22
-7.09685  2.4653e+22
-6.97955  2.47669e+22
-6.86224  2.48776e+22
-6.74494  2.49846e+22
-6.62763  2.50861e+22
-6.51033  2.51816e+22
-6.39302  2.52698e+22
-6.27572  2.53497e+22
-6.15842  2.54213e+22
-6.04111  2.54843e+22
-5.92381  2.55393e+22
-5.8065  2.55882e+22
-5.68919  2.56326e+22
-5.57189  2.56753e+22
-5.45458  2.5719e+22
-5.33728  2.57679e+22
-5.21997  2.58248e+22
-5.10267  2.58929e+22
-4.98536  2.59748e+22
-4.86806  2.60718e+22
-4.75075  2.61849e+22
-4.63345  2.63136e+22
-4.51614  2.64566e+22
-4.39884  2.66112e+22
-4.28154  2.67753e+22
-4.16423  2.6945e+22
-4.04692  2.71165e+22
-3.92962  2.72865e+22
-3.81231  2.74513e+22
-3.69501  2.7607e+22
-3.5777  2.77505e+22
-3.4604  2.78786e+22
-3.34309  2.79892e+22
-3.22579  2.80803e+22
-3.10849  2.8152e+22
-2.99118  2.82043e+22
-2.87387  2.82388e+22
-2.75657  2.8258e+22
-2.63926  2.82639e+22
-2.52196  2.8259e+22
-2.40465  2.82455e+22
-2.28735  2.82241e+22
-2.17005  2.81954e+22
-2.05274  2.81597e+22
-1.93544  2.81155e+22
-1.81813  2.80631e+22
-1.70083  2.80014e+22
-1.58352  2.79305e+22
-1.46622  2.78511e+22
-1.34891  2.7764e+22
-1.2316  2.76703e+22
-1.1143  2.75722e+22
-0.996995  2.74711e+22
-0.87969  2.737e+22
-0.762385  2.72702e+22
-0.64508  2.71759e+22
-0.527775  2.70897e+22
-0.41047  2.70148e+22
-0.293165  2.69549e+22
-0.17586  2.69129e+22
-0.058555  2.68914e+22
0.05875  2.68911e+22
0.176055  2.69122e+22
0.29336  2.69533e+22
0.410665  2.70126e+22
0.52797  2.70865e+22
0.645275  2.71718e+22
0.76258  2.72652e+22
0.879885  2.73635e+22
0.99719  2.74634e+22
1.1145  2.75629e+22
1.2318  2.76594e+22
1.3491  2.77515e+22
1.46641  2.78367e+22
1.58371  2.79142e+22
1.70102  2.79829e+22
1.81832  2.80423e+22
1.93563  2.80925e+22
2.05294  2.8134e+22
2.17024  2.81676e+22
2.28754  2.81941e+22
2.40485  2.8213e+22
2.52216  2.82243e+22
2.63946  2.82268e+22
2.75677  2.82183e+22
2.87407  2.81969e+22
2.99137  2.81597e+22
3.10868  2.81049e+22
3.22599  2.8031e+22
3.34329  2.79376e+22
3.4606  2.78251e+22
3.5779  2.76949e+22
3.69521  2.75495e+22
3.81251  2.73923e+22
3.92982  2.72257e+22
4.04712  2.70542e+22
4.16443  2.68814e+22
4.28173  2.67104e+22
4.39903  2.65451e+22
4.51634  2.63891e+22
4.63364  2.62452e+22
4.75095  2.61151e+22
4.86825  2.60007e+22
4.98556  2.59022e+22
5.10286  2.58192e+22
5.22017  2.57494e+22
5.33748  2.56911e+22
5.45478  2.56408e+22
5.57209  2.55954e+22
5.68939  2.55509e+22
5.8067  2.55049e+22
5.924  2.54543e+22
6.0413  2.53977e+22
6.15861  2.5333e+22
6.27591  2.52599e+22
6.39322  2.51786e+22
6.51052  2.50892e+22
6.62783  2.49924e+22
6.74514  2.48896e+22
6.86244  2.4782e+22
6.97975  2.46704e+22
7.09705  2.45555e+22
7.21436  2.44378e+22
7.33166  2.43171e+22
7.44897  2.41936e+22
7.56627  2.40669e+22
7.68358  2.39365e+22
7.80088  2.38026e+22
7.91819  2.36656e+22
8.03549  2.35263e+22
8.1528  2.33867e+22
8.2701  2.32475e+22
8.38741  2.31112e+22
8.50471  2.29795e+22
8.62202  2.28536e+22
8.73932  2.27338e+22
8.85662  2.26207e+22
8.97393  2.25123e+22
9.09123  2.2407e+22
9.20854  2.23018e+22
9.32584  2.21932e+22
9.44315  2.20766e+22
9.56045  2.19485e+22
9.67776  2.1805e+22
9.79506  2.16427e+22
9.91237  2.14597e+22
10.0297  2.12558e+22
10.147  2.10314e+22
10.2643  2.07892e+22
10.3816  2.05325e+22
10.4989  2.02664e+22
10.6162  1.99959e+22
10.7335  1.97267e+22
10.8508  1.94636e+22
10.9681  1.92105e+22
11.0854  1.89713e+22
11.2027  1.87471e+22
11.32  1.85386e+22
11.4373  1.83455e+22
11.5546  1.81664e+22
11.6719  1.79985e+22
11.7893  1.78397e+22
11.9066  1.76872e+22
12.0239  1.75377e+22
12.1412  1.73901e+22
12.2585  1.72425e+22
12.3758  1.70944e+22
12.4931  1.69461e+22
12.6104  1.67985e+22
12.7277  1.66537e+22
12.845  1.65142e+22
12.9623  1.63814e+22
13.0796  1.62578e+22
13.1969  1.61445e+22
13.3142  1.60416e+22
13.4315  1.59474e+22
13.5488  1.58603e+22
13.6661  1.57761e+22
13.7834  1.56904e+22
13.9007  1.55983e+22
14.018  1.54945e+22
14.1354  1.53743e+22
14.2527  1.52335e+22
14.37  1.50699e+22
14.4873  1.48818e+22
14.6046  1.46697e+22
14.7219  1.44362e+22
14.8392  1.41846e+22
14.9565  1.39197e+22
15.0738  1.36472e+22
15.1911  1.33728e+22
15.3084  1.31018e+22
15.4257  1.28391e+22
15.543  1.25881e+22
15.6603  1.23504e+22
15.7776  1.21275e+22
15.8949  1.19184e+22
16.0122  1.17219e+22
16.1295  1.15363e+22
16.2468  1.13598e+22
16.3641  1.11905e+22
16.4815  1.10279e+22
16.5988  1.08713e+22
16.7161  1.07204e+22
16.8334  1.05766e+22
16.9507  1.04406e+22
17.068  1.03134e+22
17.1853  1.0196e+22
17.3026  1.00884e+22
17.4199  9.99049e+21
17.5372  9.90055e+21
17.6545  9.81585e+21
17.7718  9.73281e+21
17.8891  9.64631e+21
18.0064  9.55136e+21
18.1237  9.44201e+21
18.241  9.31358e+21
18.3583  9.16225e+21
18.4756  8.98611e+21
18.5929  8.7856e+21
18.7102  8.56309e+21
18.8275  8.3235e+21
18.9449  8.07316e+21
19.0622  7.82017e+21
19.1795  7.57216e+21
19.2968  7.33705e+21
19.4141  7.1218e+21
19.5314  6.93169e+21
19.6487  6.77016e+21
19.766  6.63914e+21
19.8833  6.53782e+21
20.0006  6.46372e+21
20.1179  6.41258e+21
20.2352  6.37851e+21
20.3525  6.35389e+21
20.4698  6.33111e+21
20.5871  6.30215e+21
20.7044  6.26009e+21
20.8217  6.19934e+21
20.939  6.1166e+21
21.0563  6.01107e+21
21.1736  5.88494e+21
21.291  5.74197e+21
21.4083  5.58803e+21
21.5256  5.42998e+21
21.6429  5.2742e+21
21.7602  5.1267e+21
21.8775  4.99184e+21
21.9948  4.87222e+21
22.1121  4.76874e+21
22.2294  4.68017e+21
22.3467  4.60459e+21
22.464  4.53849e+21
22.5813  4.47783e+21
22.6986  4.41891e+21
22.8159  4.35778e+21
22.9332  4.29116e+21
23.0505  4.21684e+21
23.1678  4.13352e+21
23.2851  4.04115e+21
23.4024  3.94062e+21
23.5198  3.83415e+21
23.6371  3.72467e+21
23.7544  3.61539e+21
23.8717  3.50941e+21
23.989  3.40927e+21
24.1063  3.31688e+21
24.2236  3.23305e+21
24.3409  3.15738e+21
24.4582  3.08911e+21
24.5755  3.02649e+21
24.6928  2.96784e+21
24.8101  2.91147e+21
24.9274  2.85591e+21
25.0447  2.79987e+21
25.162  2.74252e+21
25.2793  2.68339e+21
25.3966  2.62225e+21
25.5139  2.55925e+21
25.6312  2.49462e+21
25.7485  2.42907e+21
25.8658  2.36371e+21
25.9832  2.2992e+21
26.1005  2.23701e+21
26.2178  2.17782e+21
26.3351  2.12201e+21
26.4524  2.06973e+21
26.5697  2.02039e+21
26.687  1.97282e+21
26.8043  1.92599e+21
26.9216  1.87854e+21
27.0389  1.82968e+21
27.1562  1.77906e+21
27.2735  1.72691e+21
27.3908  1.67441e+21
27.5081  1.62292e+21
27.6254  1.57405e+21
27.7427  1.52959e+21
27.86  1.49074e+21
27.9773  1.45835e+21
28.0946  1.43254e+21
28.212  1.41276e+21
28.3293  1.39813e+21
28.4466  1.38707e+21
28.5639  1.37821e+21
28.6812  1.36992e+21
28.7985  1.36068e+21
28.9158  1.34958e+21
29.0331  1.33584e+21
29.1504  1.3194e+21
29.2677  1.30056e+21
29.385  1.28019e+21
29.5023  1.25936e+21
29.6196  1.23931e+21
29.7369  1.2212e+21
29.8542  1.2058e+21
29.9715  1.19359e+21
30.0888  1.18415e+21
30.2061  1.17696e+21
30.3234  1.17083e+21
30.4407  1.16444e+21
30.558  1.15639e+21
30.6754  1.1454e+21
30.7927  1.13098e+21
30.91  1.11289e+21
31.0273  1.09148e+21
31.1446  1.06783e+21
31.2619  1.04329e+21
31.3792  1.01929e+21
31.4965  9.97536e+20
31.6138  9.79087e+20
31.7311  9.64563e+20
31.8484  9.54169e+20
31.9657  9.47213e+20
32.083  9.42462e+20
32.2003  9.38224e+20
32.3176  9.32464e+20
32.4349  9.23193e+20
32.5522  9.08791e+20
32.6695  8.88223e+20
32.7868  8.61398e+20
32.9042  8.28816e+20
33.0215  7.91899e+20
33.1388  7.5277e+20
33.2561  7.13703e+20
33.3734  6.77495e+20
33.4907  6.46189e+20
33.608  6.21681e+20
33.7253  6.05263e+20
33.8426  5.97383e+20
33.9599  5.98061e+20
34.0772  6.06422e+20
34.1945  6.21284e+20
34.3118  6.40999e+20
34.4291  6.63755e+20
34.5464  6.87838e+20
34.6637  7.11328e+20
34.781  7.32613e+20
34.8983  7.50692e+20
35.0156  7.65011e+20
35.1329  7.75512e+20
35.2503  7.82703e+20
35.3676  7.87538e+20
35.4849  7.9109e+20
35.6022  7.94578e+20
35.7195  7.98979e+20
35.8368  8.04685e+20
35.9541  8.11851e+20
36.0714  8.19913e+20
36.1887  8.27873e+20
36.306  8.34271e+20
36.4233  8.37577e+20
36.5406  8.36413e+20
36.6579  8.29467e+20
36.7752  8.15943e+20
36.8925  7.95828e+20
37.0098  7.69389e+20
37.1271  7.37786e+20
37.2444  7.02778e+20
37.3617  6.66508e+20
37.479  6.31691e+20
37.5964  6.00708e+20
37.7137  5.76165e+20
37.831  5.59757e+20
37.9483  5.52461e+20
38.0656  5.5433e+20
38.1829  5.6413e+20
38.3002  5.79814e+20
38.4175  5.98586e+20
38.5348  6.17116e+20
38.6521  6.32588e+20
38.7694  6.42308e+20
38.8867  6.44798e+20
39.004  6.39371e+20
39.1213  6.26681e+20
39.2386  6.08167e+20
39.3559  5.85829e+20
39.4732  5.62066e+20
39.5905  5.38987e+20
39.7078  5.18498e+20
39.8251  5.01934e+20
39.9425  4.90032e+20
40.0598  4.82934e+20
40.1771  4.80299e+20
40.2944  4.81462e+20
40.4117  4.85623e+20
40.529  4.91596e+20
40.6463  4.98492e+20
40.7636  5.05396e+20
40.8809  5.11433e+20
40.9982  5.16192e+20
41.1155  5.19201e+20
41.2328  5.20585e+20
41.3501  5.20503e+20
41.4674  5.19319e+20
41.5847  5.17413e+20
41.702  5.14953e+20
41.8193  5.12125e+20
41.9366  5.08467e+20
42.0539  5.03575e+20
42.1712  4.9678e+20
42.2885  4.87291e+20
42.4059  4.74764e+20
42.5232  4.58994e+20
42.6405  4.40366e+20
42.7578  4.19404e+20
42.8751  3.97239e+20
42.9924  3.74999e+20
43.1097  3.53781e+20
43.227  3.34342e+20
43.3443  3.17492e+20
43.4616  3.0342e+20
43.5789  2.92273e+20
43.6962  2.83837e+20
43.8135  2.7805e+20
43.9308  2.74569e+20
44.0481  2.73168e+20
44.1654  2.73538e+20
44.2827  2.75134e+20
44.4  2.77401e+20
44.5173  2.79639e+20
44.6347  2.81076e+20
44.752  2.81051e+20
44.8693  2.79198e+20
44.9866  2.75619e+20
45.1039  2.70654e+20
45.2212  2.65181e+20
45.3385  2.60231e+20
45.4558  2.56895e+20
45.5731  2.56116e+20
45.6904  2.58518e+20
45.8077  2.64045e+20
45.925  2.72406e+20
46.0423  2.82676e+20
46.1596  2.93779e+20
46.2769  3.04389e+20
46.3942  3.13407e+20
46.5115  3.19944e+20
46.6288  3.23343e+20
46.7461  3.23533e+20
46.8634  3.20754e+20
46.9808  3.15611e+20
47.0981  3.09017e+20
47.2154  3.02041e+20
47.3327  2.95909e+20
47.45  2.91564e+20
47.5673  2.89839e+20
47.6846  2.91019e+20
47.8019  2.9486e+20
47.9192  3.00533e+20
48.0365  3.06862e+20
48.1538  3.12288e+20
48.2711  3.15246e+20
48.3884  3.1446e+20
48.5057  3.09226e+20
48.623  2.99445e+20
48.7403  2.85808e+20
48.8576  2.69512e+20
48.9749  2.52447e+20
49.0922  2.36469e+20
49.2095  2.23242e+20
49.3269  2.14007e+20
49.4442  2.09507e+20
49.5615  2.09698e+20
49.6788  2.14206e+20
49.7961  2.21966e+20
49.9134  2.31849e+20
50.0307  2.42595e+20
50.148  2.52995e+20
50.2653  2.62196e+20
50.3826  2.69471e+20
50.4999  2.74464e+20
50.6172  2.77125e+20
50.7345  2.7767e+20
