#S 1 spectral density
#N 2
#UFWHM 11.6132
#L  abscissas [um]  spectral density
-58.5938  4.14207e+19
-58.4764  4.12728e+19
-58.3591  4.0768e+19
-58.2418  3.97341e+19
-58.1245  3.80417e+19
-58.0072  3.56563e+19
-57.8899  3.2627e+19
-57.7726  2.92563e+19
-57.6553  2.59348e+19
-57.538  2.31921e+19
-57.4207  2.15754e+19
-57.3034  2.15054e+19
-57.1861  2.3183e+19
-57.0688  2.65677e+19
-56.9515  3.13138e+19
-56.8342  3.68457e+19
-56.7169  4.24285e+19
-56.5996  4.73676e+19
-56.4823  5.10697e+19
-56.365  5.31692e+19
-56.2477  5.35941e+19
-56.1303  5.25067e+19
-56.013  5.03066e+19
-55.8957  4.75267e+19
-55.7784  4.46523e+19
-55.6611  4.22252e+19
-55.5438  4.06339e+19
-55.4265  4.01591e+19
-55.3092  4.09657e+19
-55.1919  4.3145e+19
-55.0746  4.66029e+19
-54.9573  5.13077e+19
-54.84  5.69992e+19
-54.7227  6.34522e+19
-54.6054  7.02682e+19
-54.4881  7.70245e+19
-54.3708  8.32773e+19
-54.2535  8.85801e+19
-54.1362  9.25361e+19
-54.0189  9.48188e+19
-53.9016  9.52671e+19
-53.7842  9.38896e+19
-53.6669  9.08318e+19
-53.5496  8.63861e+19
-53.4323  8.09218e+19
-53.315  7.49237e+19
-53.1977  6.88934e+19
-53.0804  6.32531e+19
-52.9631  5.8421e+19
-52.8458  5.46371e+19
-52.7285  5.1971e+19
-52.6112  5.04218e+19
-52.4939  4.97866e+19
-52.3766  4.98264e+19
-52.2593  5.02055e+19
-52.142  5.06044e+19
-52.0247  5.08236e+19
-51.9074  5.06747e+19
-51.7901  5.01034e+19
-51.6728  4.91164e+19
-51.5555  4.77385e+19
-51.4381  4.61145e+19
-51.3208  4.43305e+19
-51.2035  4.25404e+19
-51.0862  4.09366e+19
-50.9689  3.97912e+19
-50.8516  3.9478e+19
-50.7343  4.03775e+19
-50.617  4.28838e+19
-50.4997  4.73859e+19
-50.3824  5.39881e+19
-50.2651  6.26895e+19
-50.1478  7.31052e+19
-50.0305  8.47105e+19
-49.9132  9.66007e+19
-49.7959  1.07941e+20
-49.6786  1.17871e+20
-49.5613  1.25759e+20
-49.444  1.31116e+20
-49.3267  1.33864e+20
-49.2094  1.34241e+20
-49.092  1.32627e+20
-48.9747  1.29629e+20
-48.8574  1.2591e+20
-48.7401  1.22126e+20
-48.6228  1.18888e+20
-48.5055  1.16743e+20
-48.3882  1.15993e+20
-48.2709  1.16874e+20
-48.1536  1.19365e+20
-48.0363  1.23251e+20
-47.919  1.28164e+20
-47.8017  1.33534e+20
-47.6844  1.38589e+20
-47.5671  1.42583e+20
-47.4498  1.44778e+20
-47.3325  1.44617e+20
-47.2152  1.41772e+20
-47.0979  1.36242e+20
-46.9806  1.28237e+20
-46.8633  1.18313e+20
-46.7459  1.0722e+20
-46.6286  9.56464e+19
-46.5113  8.43183e+19
-46.394  7.39142e+19
-46.2767  6.47951e+19
-46.1594  5.72916e+19
-46.0421  5.14435e+19
-45.9248  4.72185e+19
-45.8075  4.44065e+19
-45.6902  4.26896e+19
-45.5729  4.16575e+19
-45.4556  4.08765e+19
-45.3383  3.98839e+19
-45.221  3.82827e+19
-45.1037  3.58169e+19
-44.9864  3.2381e+19
-44.8691  2.81425e+19
-44.7518  2.3344e+19
-44.6345  1.84542e+19
-44.5172  1.39825e+19
-44.3998  1.03438e+19
-44.2825  7.86169e+18
-44.1652  6.66387e+18
-44.0479  6.76972e+18
-43.9306  8.0713e+18
-43.8133  1.04412e+19
-43.696  1.38327e+19
-43.5787  1.83069e+19
-43.4614  2.4008e+19
-43.3441  3.11671e+19
-43.2268  3.9943e+19
-43.1095  5.03668e+19
-42.9922  6.22032e+19
-42.8749  7.49903e+19
-42.7576  8.80347e+19
-42.6403  1.0052e+20
-42.523  1.11616e+20
-42.4057  1.20658e+20
-42.2884  1.27239e+20
-42.171  1.31204e+20
-42.0537  1.32754e+20
-41.9364  1.32346e+20
-41.8191  1.30554e+20
-41.7018  1.28025e+20
-41.5845  1.25416e+20
-41.4672  1.23325e+20
-41.3499  1.22267e+20
-41.2326  1.22695e+20
-41.1153  1.24943e+20
-40.998  1.2926e+20
-40.8807  1.35709e+20
-40.7634  1.44102e+20
-40.6461  1.54088e+20
-40.5288  1.64962e+20
-40.4115  1.75826e+20
-40.2942  1.85742e+20
-40.1769  1.93664e+20
-40.0596  1.9886e+20
-39.9423  2.00844e+20
-39.825  1.99525e+20
-39.7076  1.95241e+20
-39.5903  1.8862e+20
-39.473  1.80541e+20
-39.3557  1.71973e+20
-39.2384  1.63692e+20
-39.1211  1.56349e+20
-39.0038  1.50364e+20
-38.8865  1.45956e+20
-38.7692  1.43083e+20
-38.6519  1.41682e+20
-38.5346  1.4151e+20
-38.4173  1.42427e+20
-38.3  1.44163e+20
-38.1827  1.46457e+20
-38.0654  1.48999e+20
-37.9481  1.51438e+20
-37.8308  1.53376e+20
-37.7135  1.54497e+20
-37.5962  1.54518e+20
-37.4789  1.53369e+20
-37.3615  1.511e+20
-37.2442  1.47997e+20
-37.1269  1.4435e+20
-37.0096  1.4064e+20
-36.8923  1.37292e+20
-36.775  1.34512e+20
-36.6577  1.32436e+20
-36.5404  1.31172e+20
-36.4231  1.30499e+20
-36.3058  1.30305e+20
-36.1885  1.30386e+20
-36.0712  1.3055e+20
-35.9539  1.30756e+20
-35.8366  1.3097e+20
-35.7193  1.31156e+20
-35.602  1.31343e+20
-35.4847  1.31476e+20
-35.3674  1.31589e+20
-35.2501  1.31604e+20
-35.1328  1.31527e+20
-35.0154  1.31431e+20
-34.8981  1.31282e+20
-34.7808  1.31227e+20
-34.6635  1.31445e+20
-34.5462  1.31927e+20
-34.4289  1.32811e+20
-34.3116  1.34101e+20
-34.1943  1.35904e+20
-34.077  1.38187e+20
-33.9597  1.40917e+20
-33.8424  1.4412e+20
-33.7251  1.47827e+20
-33.6078  1.52033e+20
-33.4905  1.56577e+20
-33.3732  1.61313e+20
-33.2559  1.65938e+20
-33.1386  1.70011e+20
-33.0213  1.73162e+20
-32.904  1.74935e+20
-32.7867  1.7508e+20
-32.6693  1.73436e+20
-32.552  1.70154e+20
-32.4347  1.65382e+20
-32.3174  1.59674e+20
-32.2001  1.53565e+20
-32.0828  1.47542e+20
-31.9655  1.42157e+20
-31.8482  1.37768e+20
-31.7309  1.34511e+20
-31.6136  1.32489e+20
-31.4963  1.31521e+20
-31.379  1.31376e+20
-31.2617  1.31684e+20
-31.1444  1.32102e+20
-31.0271  1.32177e+20
-30.9098  1.31561e+20
-30.7925  1.29958e+20
-30.6752  1.2724e+20
-30.5579  1.23348e+20
-30.4406  1.18514e+20
-30.3232  1.1305e+20
-30.2059  1.07399e+20
-30.0886  1.02122e+20
-29.9713  9.77809e+19
-29.854  9.48993e+19
-29.7367  9.38469e+19
-29.6194  9.49431e+19
-29.5021  9.83647e+19
-29.3848  1.04096e+20
-29.2675  1.11988e+20
-29.1502  1.21799e+20
-29.0329  1.33128e+20
-28.9156  1.45408e+20
-28.7983  1.57992e+20
-28.681  1.70122e+20
-28.5637  1.81085e+20
-28.4464  1.90066e+20
-28.3291  1.96657e+20
-28.2118  2.00509e+20
-28.0944  2.01567e+20
-27.9771  2.00266e+20
-27.8598  1.9718e+20
-27.7425  1.93072e+20
-27.6252  1.88902e+20
-27.5079  1.85449e+20
-27.3906  1.83581e+20
-27.2733  1.84057e+20
-27.156  1.87297e+20
-27.0387  1.93799e+20
-26.9214  2.03829e+20
-26.8041  2.1745e+20
-26.6868  2.34664e+20
-26.5695  2.55094e+20
-26.4522  2.78119e+20
-26.3349  3.02737e+20
-26.2176  3.27719e+20
-26.1003  3.51581e+20
-25.983  3.72894e+20
-25.8657  3.90384e+20
-25.7483  4.03243e+20
-25.631  4.11054e+20
-25.5137  4.14106e+20
-25.3964  4.13043e+20
-25.2791  4.09032e+20
-25.1618  4.0341e+20
-25.0445  3.97521e+20
-24.9272  3.92465e+20
-24.8099  3.89405e+20
-24.6926  3.88879e+20
-24.5753  3.91316e+20
-24.458  3.969e+20
-24.3407  4.05518e+20
-24.2234  4.16922e+20
-24.1061  4.30692e+20
-23.9888  4.46281e+20
-23.8715  4.63117e+20
-23.7542  4.80274e+20
-23.6369  4.97296e+20
-23.5196  5.13494e+20
-23.4023  5.28451e+20
-23.2849  5.42078e+20
-23.1676  5.54302e+20
-23.0503  5.65293e+20
-22.933  5.75163e+20
-22.8157  5.83919e+20
-22.6984  5.91447e+20
-22.5811  5.97538e+20
-22.4638  6.01827e+20
-22.3465  6.0387e+20
-22.2292  6.03536e+20
-22.1119  6.00729e+20
-21.9946  5.95864e+20
-21.8773  5.89553e+20
-21.76  5.82592e+20
-21.6427  5.75835e+20
-21.5254  5.70131e+20
-21.4081  5.65905e+20
-21.2908  5.6358e+20
-21.1735  5.63287e+20
-21.0561  5.6496e+20
-20.9388  5.68419e+20
-20.8215  5.73847e+20
-20.7042  5.80787e+20
-20.5869  5.891e+20
-20.4696  5.98626e+20
-20.3523  6.08723e+20
-20.235  6.18742e+20
-20.1177  6.27931e+20
-20.0004  6.35395e+20
-19.8831  6.40842e+20
-19.7658  6.43851e+20
-19.6485  6.44718e+20
-19.5312  6.44132e+20
-19.4139  6.43221e+20
-19.2966  6.43121e+20
-19.1793  6.45065e+20
-19.062  6.49752e+20
-18.9447  6.57579e+20
-18.8274  6.6829e+20
-18.71  6.81325e+20
-18.5927  6.95769e+20
-18.4754  7.10537e+20
-18.3581  7.25217e+20
-18.2408  7.38906e+20
-18.1235  7.51928e+20
-18.0062  7.64415e+20
-17.8889  7.77103e+20
-17.7716  7.907e+20
-17.6543  8.05856e+20
-17.537  8.23329e+20
-17.4197  8.43653e+20
-17.3024  8.67252e+20
-17.1851  8.94418e+20
-17.0678  9.255e+20
-16.9505  9.60567e+20
-16.8332  9.99898e+20
-16.7159  1.04311e+21
-16.5986  1.09011e+21
-16.4813  1.14024e+21
-16.364  1.19273e+21
-16.2466  1.24666e+21
-16.1293  1.30133e+21
-16.012  1.35572e+21
-15.8947  1.40936e+21
-15.7774  1.46182e+21
-15.6601  1.51299e+21
-15.5428  1.56298e+21
-15.4255  1.61224e+21
-15.3082  1.661e+21
-15.1909  1.71001e+21
-15.0736  1.75937e+21
-14.9563  1.80978e+21
-14.839  1.86142e+21
-14.7217  1.91468e+21
-14.6044  1.97001e+21
-14.4871  2.02735e+21
-14.3698  2.08702e+21
-14.2525  2.14926e+21
-14.1352  2.21399e+21
-14.0178  2.28123e+21
-13.9005  2.35092e+21
-13.7832  2.423e+21
-13.6659  2.49753e+21
-13.5486  2.57409e+21
-13.4313  2.65322e+21
-13.314  2.73446e+21
-13.1967  2.81796e+21
-13.0794  2.90363e+21
-12.9621  2.99138e+21
-12.8448  3.08113e+21
-12.7275  3.1731e+21
-12.6102  3.26696e+21
-12.4929  3.36307e+21
-12.3756  3.46174e+21
-12.2583  3.56321e+21
-12.141  3.66841e+21
-12.0237  3.77779e+21
-11.9064  3.8926e+21
-11.7891  4.01359e+21
-11.6718  4.14245e+21
-11.5544  4.28e+21
-11.4371  4.42781e+21
-11.3198  4.58755e+21
-11.2025  4.76047e+21
-11.0852  4.94808e+21
-10.9679  5.1519e+21
-10.8506  5.37275e+21
-10.7333  5.61164e+21
-10.616  5.86894e+21
-10.4987  6.14455e+21
-10.3814  6.43812e+21
-10.2641  6.74911e+21
-10.1468  7.07734e+21
-10.0295  7.42176e+21
-9.91217  7.78228e+21
-9.79487  8.15852e+21
-9.67756  8.55099e+21
-9.56026  8.95986e+21
-9.44295  9.38593e+21
-9.32565  9.83046e+21
-9.20834  1.02945e+22
-9.09104  1.0779e+22
-8.97373  1.12857e+22
-8.85643  1.1815e+22
-8.73913  1.23681e+22
-8.62182  1.29444e+22
-8.50452  1.35436e+22
-8.38721  1.41641e+22
-8.26991  1.48045e+22
-8.1526  1.54623e+22
-8.03529  1.61352e+22
-7.91799  1.68204e+22
-7.80069  1.75163e+22
-7.68338  1.82212e+22
-7.56608  1.89349e+22
-7.44877  1.96582e+22
-7.33146  2.03926e+22
-7.21416  2.1141e+22
-7.09685  2.19069e+22
-6.97955  2.26943e+22
-6.86224  2.35071e+22
-6.74494  2.43484e+22
-6.62763  2.52211e+22
-6.51033  2.61265e+22
-6.39302  2.70643e+22
-6.27572  2.80329e+22
-6.15842  2.90287e+22
-6.04111  3.00462e+22
-5.92381  3.10805e+22
-5.8065  3.21241e+22
-5.68919  3.31698e+22
-5.57189  3.42124e+22
-5.45458  3.52459e+22
-5.33728  3.62666e+22
-5.21997  3.7273e+22
-5.10267  3.82645e+22
-4.98536  3.92424e+22
-4.86806  4.02087e+22
-4.75075  4.11668e+22
-4.63345  4.21197e+22
-4.51614  4.30699e+22
-4.39884  4.40198e+22
-4.28154  4.49695e+22
-4.16423  4.59196e+22
-4.04692  4.68666e+22
-3.92962  4.7808e+22
-3.81231  4.87386e+22
-3.69501  4.96525e+22
-3.5777  5.05447e+22
-3.4604  5.14085e+22
-3.34309  5.2239e+22
-3.22579  5.3032e+22
-3.10849  5.37865e+22
-2.99118  5.45006e+22
-2.87387  5.51777e+22
-2.75657  5.58202e+22
-2.63926  5.64328e+22
-2.52196  5.70199e+22
-2.40465  5.75862e+22
-2.28735  5.81347e+22
-2.17005  5.86675e+22
-2.05274  5.91851e+22
-1.93544  5.96853e+22
-1.81813  6.01656e+22
-1.70083  6.06218e+22
-1.58352  6.10495e+22
-1.46622  6.14436e+22
-1.34891  6.17992e+22
-1.2316  6.21138e+22
-1.1143  6.23843e+22
-0.996995  6.26105e+22
-0.87969  6.27937e+22
-0.762385  6.29353e+22
-0.64508  6.30413e+22
-0.527775  6.31164e+22
-0.41047  6.31671e+22
-0.293165  6.31994e+22
-0.17586  6.32193e+22
-0.058555  6.3231e+22
0.05875  6.32361e+22
0.176055  6.3235e+22
0.29336  6.32258e+22
0.410665  6.32034e+22
0.52797  6.31626e+22
0.645275  6.30967e+22
0.76258  6.30003e+22
0.879885  6.2867e+22
0.99719  6.26928e+22
1.1145  6.2475e+22
1.2318  6.22126e+22
1.3491  6.19062e+22
1.46641  6.15588e+22
1.58371  6.1173e+22
1.70102  6.07538e+22
1.81832  6.0306e+22
1.93563  5.98344e+22
2.05294  5.93427e+22
2.17024  5.88341e+22
2.28754  5.831e+22
2.40485  5.77698e+22
2.52216  5.72122e+22
2.63946  5.6633e+22
2.75677  5.60281e+22
2.87407  5.5393e+22
2.99137  5.47232e+22
3.10868  5.40151e+22
3.22599  5.32674e+22
3.34329  5.24806e+22
3.4606  5.16559e+22
3.5779  5.07978e+22
3.69521  4.99117e+22
3.81251  4.90028e+22
3.92982  4.80775e+22
4.04712  4.71415e+22
4.16443  4.61989e+22
4.28173  4.52535e+22
4.39903  4.43071e+22
4.51634  4.33606e+22
4.63364  4.24126e+22
4.75095  4.14618e+22
4.86825  4.05048e+22
4.98556  3.9539e+22
5.10286  3.85612e+22
5.22017  3.75684e+22
5.33748  3.65604e+22
5.45478  3.55376e+22
5.57209  3.45015e+22
5.68939  3.34566e+22
5.8067  3.24074e+22
5.924  3.13607e+22
6.0413  3.03235e+22
6.15861  2.93024e+22
6.27591  2.8303e+22
6.39322  2.73312e+22
6.51052  2.63896e+22
6.62783  2.54803e+22
6.74514  2.46032e+22
6.86244  2.37572e+22
6.97975  2.29396e+22
7.09705  2.21469e+22
7.21436  2.13752e+22
7.33166  2.06205e+22
7.44897  1.98799e+22
7.56627  1.915e+22
7.68358  1.84297e+22
7.80088  1.77177e+22
7.91819  1.7015e+22
8.03549  1.6323e+22
8.1528  1.56434e+22
8.2701  1.49788e+22
8.38741  1.4332e+22
8.50471  1.37046e+22
8.62202  1.30994e+22
8.73932  1.2517e+22
8.85662  1.19579e+22
8.97393  1.14223e+22
9.09123  1.091e+22
9.20854  1.04192e+22
9.32584  9.94927e+21
9.44315  9.49914e+21
9.56045  9.06733e+21
9.67776  8.65275e+21
9.79506  8.255e+21
9.91237  7.87354e+21
10.0297  7.50809e+21
10.147  7.15885e+21
10.2643  6.82623e+21
10.3816  6.51102e+21
10.4989  6.21344e+21
10.6162  5.93438e+21
10.7335  5.67388e+21
10.8508  5.43197e+21
10.9681  5.20819e+21
11.0854  5.0018e+21
11.2027  4.81168e+21
11.32  4.63627e+21
11.4373  4.47439e+21
11.5546  4.32431e+21
11.6719  4.18465e+21
11.7893  4.05394e+21
11.9066  3.93097e+21
12.0239  3.81446e+21
12.1412  3.70342e+21
12.2585  3.5968e+21
12.3758  3.49384e+21
12.4931  3.39392e+21
12.6104  3.2967e+21
12.7277  3.20181e+21
12.845  3.10904e+21
12.9623  3.0184e+21
13.0796  2.92989e+21
13.1969  2.84355e+21
13.3142  2.75955e+21
13.4315  2.67781e+21
13.5488  2.59819e+21
13.6661  2.52104e+21
13.7834  2.44623e+21
13.9007  2.37367e+21
14.018  2.30352e+21
14.1354  2.23593e+21
14.2527  2.17089e+21
14.37  2.10826e+21
14.4873  2.04815e+21
14.6046  1.9906e+21
14.7219  1.93497e+21
14.8392  1.88128e+21
14.9565  1.82929e+21
15.0738  1.77856e+21
15.1911  1.72873e+21
15.3084  1.67939e+21
15.4257  1.63014e+21
15.543  1.58033e+21
15.6603  1.52971e+21
15.7776  1.47795e+21
15.8949  1.4249e+21
16.0122  1.3705e+21
16.1295  1.31548e+21
16.2468  1.26022e+21
16.3641  1.20566e+21
16.4815  1.15258e+21
16.5988  1.10195e+21
16.7161  1.05453e+21
16.8334  1.01082e+21
16.9507  9.71169e+20
17.068  9.35622e+20
17.1853  9.04118e+20
17.3026  8.76533e+20
17.4199  8.52553e+20
17.5372  8.31954e+20
17.6545  8.13997e+20
17.7718  7.98362e+20
17.8891  7.84447e+20
18.0064  7.71286e+20
18.1237  7.58232e+20
18.241  7.44856e+20
18.3583  7.30635e+20
18.4756  7.15727e+20
18.5929  7.00508e+20
18.7102  6.85931e+20
18.8275  6.726e+20
18.9449  6.61729e+20
19.0622  6.53744e+20
19.1795  6.48862e+20
19.2968  6.4689e+20
19.4141  6.46812e+20
19.5314  6.47568e+20
19.6487  6.47988e+20
19.766  6.469e+20
19.8833  6.43718e+20
20.0006  6.38112e+20
20.1179  6.30406e+20
20.2352  6.21048e+20
20.3525  6.10933e+20
20.4698  6.00864e+20
20.5871  5.91405e+20
20.7044  5.82965e+20
20.8217  5.76143e+20
20.939  5.70905e+20
21.0563  5.67396e+20
21.1736  5.65858e+20
21.291  5.66362e+20
21.4083  5.68797e+20
21.5256  5.73152e+20
21.6429  5.79075e+20
21.7602  5.85934e+20
21.8775  5.92967e+20
21.9948  5.99294e+20
22.1121  6.04133e+20
22.2294  6.06912e+20
22.3467  6.0723e+20
22.464  6.05083e+20
22.5813  6.00791e+20
22.6986  5.94661e+20
22.8159  5.86927e+20
22.9332  5.78106e+20
23.0505  5.68175e+20
23.1678  5.5705e+20
23.2851  5.44705e+20
23.4024  5.30906e+20
23.5198  5.15728e+20
23.6371  4.99375e+20
23.7544  4.82218e+20
23.8717  4.64823e+20
23.989  4.47922e+20
24.1063  4.32265e+20
24.2236  4.18397e+20
24.3409  4.06906e+20
24.4582  3.98319e+20
24.5755  3.92692e+20
24.6928  3.90249e+20
24.8101  3.90739e+20
24.9274  3.93796e+20
25.0447  3.98713e+20
25.162  4.04525e+20
25.2793  4.10025e+20
25.3966  4.13797e+20
25.5139  4.1469e+20
25.6312  4.11457e+20
25.7485  4.03332e+20
25.8658  3.90225e+20
25.9832  3.72504e+20
26.1005  3.51037e+20
26.2178  3.27044e+20
26.3351  3.02039e+20
26.4524  2.77406e+20
26.5697  2.54455e+20
26.687  2.34076e+20
26.8043  2.16965e+20
26.9216  2.03477e+20
27.0389  1.93614e+20
27.1562  1.87209e+20
27.2735  1.84088e+20
27.3908  1.83791e+20
27.5081  1.85688e+20
27.6254  1.89193e+20
27.7427  1.93507e+20
27.86  1.97607e+20
27.9773  2.00767e+20
28.0946  2.02037e+20
28.212  2.00891e+20
28.3293  1.97033e+20
28.4466  1.90409e+20
28.5639  1.81326e+20
28.6812  1.70345e+20
28.7985  1.58221e+20
28.9158  1.456e+20
29.0331  1.33293e+20
29.1504  1.22065e+20
29.2677  1.12261e+20
29.385  1.0445e+20
29.5023  9.88129e+19
29.6196  9.54976e+19
29.7369  9.44841e+19
29.8542  9.56328e+19
29.9715  9.86377e+19
30.0888  1.03056e+20
30.2061  1.08399e+20
30.3234  1.141e+20
30.4407  1.1959e+20
30.558  1.24439e+20
30.6754  1.28304e+20
30.7927  1.31028e+20
30.91  1.32585e+20
31.0273  1.33216e+20
31.1446  1.33113e+20
31.2619  1.32726e+20
31.3792  1.3238e+20
31.4965  1.32554e+20
31.6138  1.33542e+20
31.7311  1.3563e+20
31.8484  1.38886e+20
31.9657  1.43325e+20
32.083  1.48754e+20
32.2003  1.54732e+20
32.3176  1.60838e+20
32.4349  1.66511e+20
32.5522  1.7117e+20
32.6695  1.74393e+20
32.7868  1.75923e+20
32.9042  1.75679e+20
33.0215  1.73792e+20
33.1388  1.70577e+20
33.2561  1.66408e+20
33.3734  1.6177e+20
33.4907  1.57011e+20
33.608  1.52391e+20
33.7253  1.48209e+20
33.8426  1.44469e+20
33.9599  1.41234e+20
34.0772  1.38526e+20
34.1945  1.36272e+20
34.3118  1.34483e+20
34.4291  1.33132e+20
34.5464  1.32241e+20
34.6637  1.31713e+20
34.781  1.31557e+20
34.8983  1.31524e+20
35.0156  1.31624e+20
35.1329  1.31708e+20
35.2503  1.31744e+20
35.3676  1.31716e+20
35.4849  1.31579e+20
35.6022  1.31397e+20
35.7195  1.31249e+20
35.8368  1.31089e+20
35.9541  1.3089e+20
36.0714  1.30678e+20
36.1887  1.30523e+20
36.306  1.30495e+20
36.4233  1.30733e+20
36.5406  1.31446e+20
36.6579  1.32787e+20
36.7752  1.34878e+20
36.8925  1.37729e+20
37.0098  1.4115e+20
37.1271  1.44878e+20
37.2444  1.4851e+20
37.3617  1.51611e+20
37.479  1.53862e+20
37.5964  1.54999e+20
37.7137  1.5492e+20
37.831  1.53781e+20
37.9483  1.51844e+20
38.0656  1.49396e+20
38.1829  1.46847e+20
38.3002  1.44571e+20
38.4175  1.42889e+20
38.5348  1.42001e+20
38.6521  1.42204e+20
38.7694  1.43691e+20
38.8867  1.46622e+20
39.004  1.51109e+20
39.1213  1.57137e+20
39.2386  1.64515e+20
39.3559  1.72822e+20
39.4732  1.81442e+20
39.5905  1.89457e+20
39.7078  1.95977e+20
39.8251  2.00196e+20
39.9425  2.01351e+20
40.0598  1.99207e+20
40.1771  1.93859e+20
40.2944  1.85796e+20
40.4117  1.75797e+20
40.529  1.64845e+20
40.6463  1.53947e+20
40.7636  1.43996e+20
40.8809  1.35581e+20
40.9982  1.29185e+20
41.1155  1.24921e+20
41.2328  1.22734e+20
41.3501  1.22351e+20
41.4674  1.23419e+20
41.5847  1.25541e+20
41.702  1.2816e+20
41.8193  1.3066e+20
41.9366  1.3241e+20
42.0539  1.32746e+20
42.1712  1.31104e+20
42.2885  1.27048e+20
42.4059  1.20382e+20
42.5232  1.11228e+20
42.6405  1.00076e+20
42.7578  8.75312e+19
42.8751  7.4468e+19
42.9924  6.16879e+19
43.1097  4.98719e+19
43.227  3.95199e+19
43.3443  3.07981e+19
43.4616  2.37038e+19
43.5789  1.80471e+19
43.6962  1.36344e+19
43.8135  1.02921e+19
43.9308  7.97561e+18
44.0481  6.74704e+18
44.1654  6.71338e+18
44.2827  7.97876e+18
44.4  1.05455e+19
44.5173  1.42611e+19
44.6347  1.87891e+19
44.752  2.36854e+19
44.8693  2.84811e+19
44.9866  3.27441e+19
45.1039  3.61128e+19
45.2212  3.85519e+19
45.3385  4.01215e+19
45.4558  4.1081e+19
45.5731  4.18487e+19
45.6904  4.28758e+19
45.8077  4.46037e+19
45.925  4.74654e+19
46.0423  5.17383e+19
46.1596  5.76511e+19
46.2769  6.5252e+19
46.3942  7.44136e+19
46.5115  8.49207e+19
46.6288  9.62721e+19
46.7461  1.07874e+20
46.8634  1.1898e+20
46.9808  1.28834e+20
47.0981  1.36766e+20
47.2154  1.42227e+20
47.3327  1.44992e+20
47.45  1.45073e+20
47.5673  1.42761e+20
47.6846  1.38696e+20
47.8019  1.33608e+20
47.9192  1.28204e+20
48.0365  1.23328e+20
48.1538  1.1944e+20
48.2711  1.17002e+20
48.3884  1.16206e+20
48.5057  1.17022e+20
48.623  1.19224e+20
48.7403  1.22457e+20
48.8576  1.2622e+20
48.9749  1.29943e+20
49.0922  1.32921e+20
49.2095  1.34446e+20
49.3269  1.34035e+20
49.4442  1.31141e+20
49.5615  1.2569e+20
49.6788  1.17729e+20
49.7961  1.07713e+20
49.9134  9.63022e+19
50.0307  8.44005e+19
50.148  7.28583e+19
50.2653  6.24825e+19
50.3826  5.38683e+19
50.4999  4.73273e+19
50.6172  4.29292e+19
50.7345  4.04831e+19
50.8518  3.96646e+19
50.9691  4.00231e+19
