#S 1 spectral density
#N 2
#UFWHM 48.3297
#L  abscissas [um]  spectral density
-58.5938  4.24399e+20
-58.4764  4.12744e+20
-58.3591  4.0196e+20
-58.2418  3.93131e+20
-58.1245  3.87263e+20
-58.0072  3.84878e+20
-57.8899  3.86446e+20
-57.7726  3.92284e+20
-57.6553  4.02375e+20
-57.538  4.16393e+20
-57.4207  4.34003e+20
-57.3034  4.54281e+20
-57.1861  4.76236e+20
-57.0688  4.98368e+20
-56.9515  5.19229e+20
-56.8342  5.37354e+20
-56.7169  5.513e+20
-56.5996  5.604e+20
-56.4823  5.64311e+20
-56.365  5.63413e+20
-56.2477  5.58758e+20
-56.1303  5.51877e+20
-56.013  5.44496e+20
-55.8957  5.38193e+20
-55.7784  5.34328e+20
-55.6611  5.33675e+20
-55.5438  5.36396e+20
-55.4265  5.42151e+20
-55.3092  5.49949e+20
-55.1919  5.58399e+20
-55.0746  5.66152e+20
-54.9573  5.71885e+20
-54.84  5.74498e+20
-54.7227  5.73279e+20
-54.6054  5.67941e+20
-54.4881  5.58957e+20
-54.3708  5.47093e+20
-54.2535  5.33451e+20
-54.1362  5.19337e+20
-54.0189  5.0636e+20
-53.9016  4.95862e+20
-53.7842  4.89101e+20
-53.6669  4.86797e+20
-53.5496  4.89306e+20
-53.4323  4.96602e+20
-53.315  5.08042e+20
-53.1977  5.22679e+20
-53.0804  5.39534e+20
-52.9631  5.57246e+20
-52.8458  5.74544e+20
-52.7285  5.90456e+20
-52.6112  6.04075e+20
-52.4939  6.14908e+20
-52.3766  6.22851e+20
-52.2593  6.28012e+20
-52.142  6.31077e+20
-52.0247  6.32631e+20
-51.9074  6.33595e+20
-51.7901  6.34819e+20
-51.6728  6.36883e+20
-51.5555  6.40082e+20
-51.4381  6.44651e+20
-51.3208  6.50159e+20
-51.2035  6.56138e+20
-51.0862  6.61717e+20
-50.9689  6.66277e+20
-50.8516  6.69246e+20
-50.7343  6.70112e+20
-50.617  6.68871e+20
-50.4997  6.65548e+20
-50.3824  6.60605e+20
-50.2651  6.54629e+20
-50.1478  6.48109e+20
-50.0305  6.41826e+20
-49.9132  6.36343e+20
-49.7959  6.32437e+20
-49.6786  6.30886e+20
-49.5613  6.32181e+20
-49.444  6.36808e+20
-49.3267  6.45172e+20
-49.2094  6.57293e+20
-49.092  6.727e+20
-48.9747  6.90803e+20
-48.8574  7.10301e+20
-48.7401  7.29923e+20
-48.6228  7.48274e+20
-48.5055  7.64065e+20
-48.3882  7.76551e+20
-48.2709  7.85318e+20
-48.1536  7.90572e+20
-48.0363  7.93045e+20
-47.919  7.93744e+20
-47.8017  7.93856e+20
-47.6844  7.94597e+20
-47.5671  7.96812e+20
-47.4498  8.01217e+20
-47.3325  8.08074e+20
-47.2152  8.17264e+20
-47.0979  8.28389e+20
-46.9806  8.40722e+20
-46.8633  8.53498e+20
-46.7459  8.66067e+20
-46.6286  8.77619e+20
-46.5113  8.87779e+20
-46.394  8.96155e+20
-46.2767  9.03099e+20
-46.1594  9.09089e+20
-46.0421  9.14659e+20
-45.9248  9.20786e+20
-45.8075  9.2825e+20
-45.6902  9.37694e+20
-45.5729  9.4936e+20
-45.4556  9.62826e+20
-45.3383  9.77598e+20
-45.221  9.92382e+20
-45.1037  1.00597e+21
-44.9864  1.01721e+21
-44.8691  1.02497e+21
-44.7518  1.02867e+21
-44.6345  1.0283e+21
-44.5172  1.02442e+21
-44.3998  1.01777e+21
-44.2825  1.00989e+21
-44.1652  1.00214e+21
-44.0479  9.9623e+20
-43.9306  9.93898e+20
-43.8133  9.96642e+20
-43.696  1.00595e+21
-43.5787  1.02303e+21
-43.4614  1.04879e+21
-43.3441  1.08357e+21
-43.2268  1.1271e+21
-43.1095  1.17829e+21
-42.9922  1.23538e+21
-42.8749  1.29586e+21
-42.7576  1.35677e+21
-42.6403  1.41519e+21
-42.523  1.46827e+21
-42.4057  1.51369e+21
-42.2884  1.54985e+21
-42.171  1.5763e+21
-42.0537  1.59342e+21
-41.9364  1.60229e+21
-41.8191  1.60485e+21
-41.7018  1.60302e+21
-41.5845  1.59939e+21
-41.4672  1.59613e+21
-41.3499  1.59512e+21
-41.2326  1.59807e+21
-41.1153  1.60614e+21
-40.998  1.61992e+21
-40.8807  1.63945e+21
-40.7634  1.66401e+21
-40.6461  1.69271e+21
-40.5288  1.72373e+21
-40.4115  1.75551e+21
-40.2942  1.7864e+21
-40.1769  1.81501e+21
-40.0596  1.8406e+21
-39.9423  1.86329e+21
-39.825  1.88391e+21
-39.7076  1.90392e+21
-39.5903  1.92522e+21
-39.473  1.94987e+21
-39.3557  1.97943e+21
-39.2384  2.01521e+21
-39.1211  2.0574e+21
-39.0038  2.10546e+21
-38.8865  2.15802e+21
-38.7692  2.21335e+21
-38.6519  2.26927e+21
-38.5346  2.32359e+21
-38.4173  2.37414e+21
-38.3  2.41941e+21
-38.1827  2.45801e+21
-38.0654  2.48928e+21
-37.9481  2.5132e+21
-37.8308  2.53017e+21
-37.7135  2.5412e+21
-37.5962  2.5477e+21
-37.4789  2.55186e+21
-37.3615  2.55595e+21
-37.2442  2.56233e+21
-37.1269  2.57356e+21
-37.0096  2.59163e+21
-36.8923  2.61819e+21
-36.775  2.65406e+21
-36.6577  2.69933e+21
-36.5404  2.75329e+21
-36.4231  2.81464e+21
-36.3058  2.88152e+21
-36.1885  2.95189e+21
-36.0712  3.02377e+21
-35.9539  3.09536e+21
-35.8366  3.16507e+21
-35.7193  3.23211e+21
-35.602  3.29599e+21
-35.4847  3.35671e+21
-35.3674  3.41473e+21
-35.2501  3.47085e+21
-35.1328  3.52578e+21
-35.0154  3.58068e+21
-34.8981  3.63584e+21
-34.7808  3.69179e+21
-34.6635  3.74804e+21
-34.5462  3.80404e+21
-34.4289  3.85833e+21
-34.3116  3.90915e+21
-34.1943  3.95451e+21
-34.077  3.99275e+21
-33.9597  4.02266e+21
-33.8424  4.04339e+21
-33.7251  4.05501e+21
-33.6078  4.05892e+21
-33.4905  4.05673e+21
-33.3732  4.05106e+21
-33.2559  4.04489e+21
-33.1386  4.0414e+21
-33.0213  4.04338e+21
-32.904  4.05324e+21
-32.7867  4.0732e+21
-32.6693  4.10406e+21
-32.552  4.14631e+21
-32.4347  4.19948e+21
-32.3174  4.26238e+21
-32.2001  4.33325e+21
-32.0828  4.40973e+21
-31.9655  4.48961e+21
-31.8482  4.57031e+21
-31.7309  4.64953e+21
-31.6136  4.72546e+21
-31.4963  4.79658e+21
-31.379  4.86238e+21
-31.2617  4.92266e+21
-31.1444  4.9776e+21
-31.0271  5.02833e+21
-30.9098  5.07598e+21
-30.7925  5.12176e+21
-30.6752  5.16712e+21
-30.5579  5.21349e+21
-30.4406  5.26165e+21
-30.3232  5.31304e+21
-30.2059  5.36786e+21
-30.0886  5.42661e+21
-29.9713  5.48905e+21
-29.854  5.55504e+21
-29.7367  5.62388e+21
-29.6194  5.69493e+21
-29.5021  5.76719e+21
-29.3848  5.83988e+21
-29.2675  5.91275e+21
-29.1502  5.98483e+21
-29.0329  6.05574e+21
-28.9156  6.12533e+21
-28.7983  6.19314e+21
-28.681  6.25863e+21
-28.5637  6.32133e+21
-28.4464  6.38076e+21
-28.3291  6.43618e+21
-28.2118  6.48683e+21
-28.0944  6.5329e+21
-27.9771  6.57373e+21
-27.8598  6.6096e+21
-27.7425  6.64109e+21
-27.6252  6.66876e+21
-27.5079  6.69378e+21
-27.3906  6.71744e+21
-27.2733  6.74161e+21
-27.156  6.76828e+21
-27.0387  6.79941e+21
-26.9214  6.83772e+21
-26.8041  6.88483e+21
-26.6868  6.94307e+21
-26.5695  7.01328e+21
-26.4522  7.09548e+21
-26.3349  7.1891e+21
-26.2176  7.29211e+21
-26.1003  7.40157e+21
-25.983  7.51412e+21
-25.8657  7.62625e+21
-25.7483  7.7346e+21
-25.631  7.83715e+21
-25.5137  7.93257e+21
-25.3964  8.02049e+21
-25.2791  8.10177e+21
-25.1618  8.17843e+21
-25.0445  8.25257e+21
-24.9272  8.32698e+21
-24.8099  8.40363e+21
-24.6926  8.48457e+21
-24.5753  8.57153e+21
-24.458  8.66438e+21
-24.3407  8.76278e+21
-24.2234  8.86539e+21
-24.1061  8.96981e+21
-23.9888  9.07259e+21
-23.8715  9.17012e+21
-23.7542  9.25852e+21
-23.6369  9.33394e+21
-23.5196  9.39301e+21
-23.4023  9.43461e+21
-23.2849  9.45777e+21
-23.1676  9.46387e+21
-23.0503  9.45607e+21
-22.933  9.43805e+21
-22.8157  9.41511e+21
-22.6984  9.39275e+21
-22.5811  9.37673e+21
-22.4638  9.37233e+21
-22.3465  9.38328e+21
-22.2292  9.41337e+21
-22.1119  9.46366e+21
-21.9946  9.53482e+21
-21.8773  9.62497e+21
-21.76  9.731e+21
-21.6427  9.8485e+21
-21.5254  9.97171e+21
-21.4081  1.00945e+22
-21.2908  1.02106e+22
-21.1735  1.03142e+22
-21.0561  1.04015e+22
-20.9388  1.04706e+22
-20.8215  1.05219e+22
-20.7042  1.05573e+22
-20.5869  1.05812e+22
-20.4696  1.05997e+22
-20.3523  1.06187e+22
-20.235  1.06448e+22
-20.1177  1.0683e+22
-20.0004  1.07374e+22
-19.8831  1.08116e+22
-19.7658  1.09055e+22
-19.6485  1.10189e+22
-19.5312  1.11496e+22
-19.4139  1.1294e+22
-19.2966  1.14476e+22
-19.1793  1.16048e+22
-19.062  1.17599e+22
-18.9447  1.19067e+22
-18.8274  1.20393e+22
-18.71  1.21538e+22
-18.5927  1.22465e+22
-18.4754  1.23159e+22
-18.3581  1.23631e+22
-18.2408  1.23895e+22
-18.1235  1.23995e+22
-18.0062  1.23975e+22
-17.8889  1.23888e+22
-17.7716  1.23786e+22
-17.6543  1.23702e+22
-17.537  1.23674e+22
-17.4197  1.23714e+22
-17.3024  1.23831e+22
-17.1851  1.24015e+22
-17.0678  1.24257e+22
-16.9505  1.24544e+22
-16.8332  1.24857e+22
-16.7159  1.25186e+22
-16.5986  1.25521e+22
-16.4813  1.25856e+22
-16.364  1.26196e+22
-16.2466  1.26553e+22
-16.1293  1.2695e+22
-16.012  1.27402e+22
-15.8947  1.27938e+22
-15.7774  1.28584e+22
-15.6601  1.29361e+22
-15.5428  1.30286e+22
-15.4255  1.31355e+22
-15.3082  1.32559e+22
-15.1909  1.33884e+22
-15.0736  1.35283e+22
-14.9563  1.36716e+22
-14.839  1.38133e+22
-14.7217  1.39485e+22
-14.6044  1.40724e+22
-14.4871  1.41814e+22
-14.3698  1.42729e+22
-14.2525  1.43451e+22
-14.1352  1.43982e+22
-14.0178  1.44336e+22
-13.9005  1.44533e+22
-13.7832  1.44603e+22
-13.6659  1.44587e+22
-13.5486  1.44513e+22
-13.4313  1.4442e+22
-13.314  1.44333e+22
-13.1967  1.44271e+22
-13.0794  1.44252e+22
-12.9621  1.44268e+22
-12.8448  1.44325e+22
-12.7275  1.44407e+22
-12.6102  1.44505e+22
-12.4929  1.44603e+22
-12.3756  1.44695e+22
-12.2583  1.44781e+22
-12.141  1.44862e+22
-12.0237  1.44953e+22
-11.9064  1.45066e+22
-11.7891  1.45218e+22
-11.6718  1.45434e+22
-11.5544  1.45733e+22
-11.4371  1.4614e+22
-11.3198  1.46656e+22
-11.2025  1.47296e+22
-11.0852  1.48051e+22
-10.9679  1.48912e+22
-10.8506  1.49857e+22
-10.7333  1.50852e+22
-10.616  1.51859e+22
-10.4987  1.52847e+22
-10.3814  1.53767e+22
-10.2641  1.5459e+22
-10.1468  1.55291e+22
-10.0295  1.55863e+22
-9.91217  1.56305e+22
-9.79487  1.56639e+22
-9.67756  1.56896e+22
-9.56026  1.57115e+22
-9.44295  1.57343e+22
-9.32565  1.57631e+22
-9.20834  1.58017e+22
-9.09104  1.58534e+22
-8.97373  1.59205e+22
-8.85643  1.60028e+22
-8.73913  1.60992e+22
-8.62182  1.62067e+22
-8.50452  1.63206e+22
-8.38721  1.64361e+22
-8.26991  1.65464e+22
-8.1526  1.66462e+22
-8.03529  1.673e+22
-7.91799  1.67936e+22
-7.80069  1.68344e+22
-7.68338  1.68515e+22
-7.56608  1.68468e+22
-7.44877  1.68232e+22
-7.33146  1.67853e+22
-7.21416  1.67381e+22
-7.09685  1.66873e+22
-6.97955  1.66383e+22
-6.86224  1.65953e+22
-6.74494  1.65628e+22
-6.62763  1.65412e+22
-6.51033  1.65317e+22
-6.39302  1.65325e+22
-6.27572  1.65417e+22
-6.15842  1.65553e+22
-6.04111  1.65695e+22
-5.92381  1.65801e+22
-5.8065  1.65842e+22
-5.68919  1.65784e+22
-5.57189  1.65623e+22
-5.45458  1.65357e+22
-5.33728  1.65016e+22
-5.21997  1.64631e+22
-5.10267  1.64254e+22
-4.98536  1.63936e+22
-4.86806  1.63737e+22
-4.75075  1.63703e+22
-4.63345  1.63877e+22
-4.51614  1.64285e+22
-4.39884  1.64933e+22
-4.28154  1.6582e+22
-4.16423  1.66916e+22
-4.04692  1.68182e+22
-3.92962  1.69563e+22
-3.81231  1.70994e+22
-3.69501  1.72409e+22
-3.5777  1.7373e+22
-3.4604  1.74894e+22
-3.34309  1.75844e+22
-3.22579  1.76535e+22
-3.10849  1.76949e+22
-2.99118  1.77081e+22
-2.87387  1.76958e+22
-2.75657  1.76621e+22
-2.63926  1.76125e+22
-2.52196  1.75529e+22
-2.40465  1.74891e+22
-2.28735  1.74266e+22
-2.17005  1.7369e+22
-2.05274  1.73199e+22
-1.93544  1.72791e+22
-1.81813  1.72475e+22
-1.70083  1.72232e+22
-1.58352  1.72048e+22
-1.46622  1.71894e+22
-1.34891  1.71753e+22
-1.2316  1.71595e+22
-1.1143  1.71409e+22
-0.996995  1.71171e+22
-0.87969  1.70886e+22
-0.762385  1.70548e+22
-0.64508  1.7018e+22
-0.527775  1.69798e+22
-0.41047  1.69436e+22
-0.293165  1.69123e+22
-0.17586  1.68895e+22
-0.058555  1.68772e+22
0.05875  1.68767e+22
0.176055  1.68881e+22
0.29336  1.69101e+22
0.410665  1.69404e+22
0.52797  1.6976e+22
0.645275  1.70134e+22
0.76258  1.70497e+22
0.879885  1.70828e+22
0.99719  1.71112e+22
1.1145  1.71344e+22
1.2318  1.71532e+22
1.3491  1.71689e+22
1.46641  1.7183e+22
1.58371  1.71982e+22
1.70102  1.72165e+22
1.81832  1.72403e+22
1.93563  1.72716e+22
2.05294  1.73116e+22
2.17024  1.73603e+22
2.28754  1.74167e+22
2.40485  1.74784e+22
2.52216  1.75406e+22
2.63946  1.75992e+22
2.75677  1.76473e+22
2.87407  1.76795e+22
2.99137  1.76901e+22
3.10868  1.76753e+22
3.22599  1.76325e+22
3.34329  1.75624e+22
3.4606  1.74667e+22
3.5779  1.73497e+22
3.69521  1.72169e+22
3.81251  1.70754e+22
3.92982  1.6932e+22
4.04712  1.6794e+22
4.16443  1.66675e+22
4.28173  1.65581e+22
4.39903  1.64695e+22
4.51634  1.64044e+22
4.63364  1.63638e+22
4.75095  1.6346e+22
4.86825  1.63487e+22
4.98556  1.6368e+22
5.10286  1.63988e+22
5.22017  1.64357e+22
5.33748  1.6473e+22
5.45478  1.6506e+22
5.57209  1.65312e+22
5.68939  1.65462e+22
5.8067  1.65508e+22
5.924  1.6546e+22
6.0413  1.65346e+22
6.15861  1.65198e+22
6.27591  1.65058e+22
6.39322  1.64965e+22
6.51052  1.64954e+22
6.62783  1.65048e+22
6.74514  1.65262e+22
6.86244  1.6559e+22
6.97975  1.66016e+22
7.09705  1.66505e+22
7.21436  1.67007e+22
7.33166  1.67476e+22
7.44897  1.67849e+22
7.56627  1.68077e+22
7.68358  1.68114e+22
7.80088  1.6793e+22
7.91819  1.67509e+22
8.03549  1.66865e+22
8.1528  1.6602e+22
8.2701  1.65013e+22
8.38741  1.63899e+22
8.50471  1.62741e+22
8.62202  1.61594e+22
8.73932  1.60515e+22
8.85662  1.59549e+22
8.97393  1.58723e+22
9.09123  1.5805e+22
9.20854  1.57528e+22
9.32584  1.5714e+22
9.44315  1.56847e+22
9.56045  1.56609e+22
9.67776  1.56383e+22
9.79506  1.56116e+22
9.91237  1.55772e+22
10.0297  1.55317e+22
10.147  1.54735e+22
10.2643  1.54023e+22
10.3816  1.53186e+22
10.4989  1.52255e+22
10.6162  1.51261e+22
10.7335  1.50243e+22
10.8508  1.4924e+22
10.9681  1.48292e+22
11.0854  1.47427e+22
11.2027  1.46669e+22
11.32  1.46027e+22
11.4373  1.45506e+22
11.5546  1.45103e+22
11.6719  1.44803e+22
11.7893  1.44588e+22
11.9066  1.44433e+22
12.0239  1.44321e+22
12.1412  1.44232e+22
12.2585  1.44148e+22
12.3758  1.4406e+22
12.4931  1.43963e+22
12.6104  1.43859e+22
12.7277  1.4376e+22
12.845  1.43676e+22
12.9623  1.43613e+22
13.0796  1.43589e+22
13.1969  1.43605e+22
13.3142  1.43658e+22
13.4315  1.43739e+22
13.5488  1.43828e+22
13.6661  1.43894e+22
13.7834  1.43905e+22
13.9007  1.43826e+22
14.018  1.43625e+22
14.1354  1.43264e+22
14.2527  1.42726e+22
14.37  1.41997e+22
14.4873  1.41077e+22
14.6046  1.39982e+22
14.7219  1.38736e+22
14.8392  1.3738e+22
14.9565  1.35961e+22
15.0738  1.34522e+22
15.1911  1.3312e+22
15.3084  1.31795e+22
15.4257  1.30586e+22
15.543  1.29512e+22
15.6603  1.28588e+22
15.7776  1.27808e+22
15.8949  1.27162e+22
16.0122  1.26622e+22
16.1295  1.26167e+22
16.2468  1.25771e+22
16.3641  1.25413e+22
16.4815  1.25072e+22
16.5988  1.24737e+22
16.7161  1.24402e+22
16.8334  1.24075e+22
16.9507  1.23761e+22
17.068  1.23474e+22
17.1853  1.23229e+22
17.3026  1.2304e+22
17.4199  1.22922e+22
17.5372  1.2288e+22
17.6545  1.229e+22
17.7718  1.22975e+22
17.8891  1.2307e+22
18.0064  1.23146e+22
18.1237  1.23154e+22
18.241  1.23045e+22
18.3583  1.22768e+22
18.4756  1.22289e+22
18.5929  1.21585e+22
18.7102  1.20654e+22
18.8275  1.19505e+22
18.9449  1.18176e+22
19.0622  1.1671e+22
19.1795  1.15162e+22
19.2968  1.13596e+22
19.4141  1.12065e+22
19.5314  1.10627e+22
19.6487  1.09329e+22
19.766  1.08198e+22
19.8833  1.07264e+22
20.0006  1.06525e+22
20.1179  1.05978e+22
20.2352  1.05592e+22
20.3525  1.05327e+22
20.4698  1.0513e+22
20.5871  1.04939e+22
20.7044  1.04687e+22
20.8217  1.0432e+22
20.939  1.03799e+22
21.0563  1.03097e+22
21.1736  1.02215e+22
21.291  1.01173e+22
21.4083  1.00008e+22
21.5256  9.87823e+21
21.6429  9.7552e+21
21.7602  9.63826e+21
21.8775  9.53273e+21
21.9948  9.4433e+21
22.1121  9.37312e+21
22.2294  9.32365e+21
22.3467  9.29413e+21
22.464  9.28367e+21
22.5813  9.28856e+21
22.6986  9.30461e+21
22.8159  9.32685e+21
22.9332  9.34961e+21
23.0505  9.36722e+21
23.1678  9.37464e+21
23.2851  9.36781e+21
23.4024  9.34411e+21
23.5198  9.30196e+21
23.6371  9.24213e+21
23.7544  9.16645e+21
23.8717  9.0777e+21
23.989  8.9801e+21
24.1063  8.87733e+21
24.2236  8.77324e+21
24.3409  8.6711e+21
24.4582  8.57297e+21
24.5755  8.48082e+21
24.6928  8.39451e+21
24.8101  8.31393e+21
24.9274  8.23764e+21
25.0447  8.16367e+21
25.162  8.09013e+21
25.2793  8.01394e+21
25.3966  7.93266e+21
25.5139  7.84493e+21
25.6312  7.7497e+21
25.7485  7.64713e+21
25.8658  7.53886e+21
25.9832  7.42711e+21
26.1005  7.31471e+21
26.2178  7.20575e+21
26.3351  7.10325e+21
26.4524  7.01019e+21
26.5697  6.9284e+21
26.687  6.85891e+21
26.8043  6.80128e+21
26.9216  6.75469e+21
27.0389  6.71685e+21
27.1562  6.68611e+21
27.2735  6.65983e+21
27.3908  6.63584e+21
27.5081  6.61223e+21
27.6254  6.58729e+21
27.7427  6.55962e+21
27.86  6.52812e+21
27.9773  6.49206e+21
28.0946  6.45113e+21
28.212  6.40493e+21
28.3293  6.35386e+21
28.4466  6.29829e+21
28.5639  6.23863e+21
28.6812  6.17577e+21
28.7985  6.11023e+21
28.9158  6.04248e+21
29.0331  5.97312e+21
29.1504  5.90225e+21
29.2677  5.83072e+21
29.385  5.75843e+21
29.5023  5.68609e+21
29.6196  5.61437e+21
29.7369  5.54393e+21
29.8542  5.47602e+21
29.9715  5.41082e+21
30.0888  5.34895e+21
30.2061  5.29094e+21
30.3234  5.23666e+21
30.4407  5.18579e+21
30.558  5.13802e+21
30.6754  5.09229e+21
30.7927  5.04707e+21
30.91  5.00166e+21
31.0273  4.95441e+21
31.1446  4.90393e+21
31.2619  4.84921e+21
31.3792  4.78942e+21
31.4965  4.72401e+21
31.6138  4.65339e+21
31.7311  4.57802e+21
31.8484  4.49958e+21
31.9657  4.41964e+21
32.083  4.3406e+21
32.2003  4.26483e+21
32.3176  4.19485e+21
32.4349  4.13278e+21
32.5522  4.08039e+21
32.6695  4.03888e+21
32.7868  4.00873e+21
32.9042  3.98932e+21
33.0215  3.97979e+21
33.1388  3.97817e+21
33.2561  3.98186e+21
33.3734  3.98807e+21
33.4907  3.99375e+21
33.608  3.99586e+21
33.7253  3.99202e+21
33.8426  3.98017e+21
33.9599  3.95951e+21
34.0772  3.92968e+21
34.1945  3.89142e+21
34.3118  3.8462e+21
34.4291  3.79556e+21
34.5464  3.74174e+21
34.6637  3.68618e+21
34.781  3.63022e+21
34.8983  3.57476e+21
35.0156  3.51997e+21
35.1329  3.46554e+21
35.2503  3.41101e+21
35.3676  3.35549e+21
35.4849  3.29781e+21
35.6022  3.23767e+21
35.7195  3.17443e+21
35.8368  3.10796e+21
35.9541  3.03889e+21
36.0714  2.96816e+21
36.1887  2.89712e+21
36.306  2.82761e+21
36.4233  2.76163e+21
36.5406  2.70133e+21
36.6579  2.64824e+21
36.7752  2.60392e+21
36.8925  2.56886e+21
37.0098  2.54307e+21
37.1271  2.52562e+21
37.2444  2.51497e+21
37.3617  2.50905e+21
37.479  2.50549e+21
37.5964  2.5016e+21
37.7137  2.49539e+21
37.831  2.48474e+21
37.9483  2.46818e+21
38.0656  2.44454e+21
38.1829  2.41366e+21
38.3002  2.37554e+21
38.4175  2.33088e+21
38.5348  2.28085e+21
38.6521  2.22722e+21
38.7694  2.17191e+21
38.8867  2.11722e+21
39.004  2.06528e+21
39.1213  2.01789e+21
39.2386  1.97637e+21
39.3559  1.94124e+21
39.4732  1.91214e+21
39.5905  1.88795e+21
39.7078  1.86704e+21
39.8251  1.84732e+21
39.9425  1.82698e+21
40.0598  1.80457e+21
40.1771  1.7792e+21
40.2944  1.75103e+21
40.4117  1.72063e+21
40.529  1.68929e+21
40.6463  1.65878e+21
40.7636  1.63084e+21
40.8809  1.60682e+21
40.9982  1.58798e+21
41.1155  1.57479e+21
41.2328  1.5673e+21
41.3501  1.56476e+21
41.4674  1.56615e+21
41.5847  1.56975e+21
41.702  1.57363e+21
41.8193  1.57552e+21
41.9366  1.5731e+21
42.0539  1.56432e+21
42.1712  1.5474e+21
42.2885  1.521e+21
42.4059  1.48509e+21
42.5232  1.44003e+21
42.6405  1.38752e+21
42.7578  1.32957e+21
42.8751  1.2693e+21
42.9924  1.20967e+21
43.1097  1.15347e+21
43.227  1.10318e+21
43.3443  1.06054e+21
43.4616  1.02657e+21
43.5789  1.00158e+21
43.6962  9.85164e+20
43.8135  9.76471e+20
43.9308  9.74178e+20
44.0481  9.76964e+20
44.1654  9.83179e+20
44.2827  9.91146e+20
44.4  9.99283e+20
44.5173  1.006e+21
44.6347  1.0101e+21
44.752  1.01049e+21
44.8693  1.00694e+21
44.9866  9.99428e+20
45.1039  9.8844e+20
45.2212  9.7505e+20
45.3385  9.60554e+20
45.4558  9.46198e+20
45.5731  9.32975e+20
45.6904  9.21766e+20
45.8077  9.1267e+20
45.925  9.0553e+20
46.0423  8.99659e+20
46.1596  8.94317e+20
46.2769  8.88626e+20
46.3942  8.81855e+20
46.5115  8.73601e+20
46.6288  8.63629e+20
46.7461  8.52307e+20
46.8634  8.40036e+20
46.9808  8.27454e+20
47.0981  8.15448e+20
47.2154  8.0464e+20
47.3327  7.95866e+20
47.45  7.89283e+20
47.5673  7.85153e+20
47.6846  7.83264e+20
47.8019  7.82776e+20
47.9192  7.82892e+20
48.0365  7.82332e+20
48.1538  7.79992e+20
48.2711  7.74815e+20
48.3884  7.66159e+20
48.5057  7.538e+20
48.623  7.38074e+20
48.7403  7.19927e+20
48.8576  7.0056e+20
48.9749  6.81329e+20
49.0922  6.63611e+20
49.2095  6.48522e+20
49.3269  6.36835e+20
49.4442  6.28701e+20
49.5615  6.24419e+20
49.6788  6.23502e+20
49.7961  6.25344e+20
49.9134  6.29441e+20
50.0307  6.35077e+20
50.148  6.41501e+20
50.2653  6.48069e+20
50.3826  6.54221e+20
50.4999  6.59205e+20
50.6172  6.62608e+20
50.7345  6.63955e+20
50.8518  6.63185e+20
