#S 1 spectral density
#N 2
#UFWHM 23.9302
#L  abscissas [um]  spectral density
-58.5938  1.23593e+20
-58.4764  1.16374e+20
-58.3591  1.09052e+20
-58.2418  1.01771e+20
-58.1245  9.47286e+19
-58.0072  8.83384e+19
-57.8899  8.31164e+19
-57.7726  7.96943e+19
-57.6553  7.88006e+19
-57.538  8.10721e+19
-57.4207  8.68696e+19
-57.3034  9.62089e+19
-57.1861  1.08685e+20
-57.0688  1.23368e+20
-56.9515  1.39088e+20
-56.8342  1.5435e+20
-56.7169  1.67885e+20
-56.5996  1.78653e+20
-56.4823  1.86199e+20
-56.365  1.90518e+20
-56.2477  1.9228e+20
-56.1303  1.92297e+20
-56.013  1.91706e+20
-55.8957  1.91343e+20
-55.7784  1.91831e+20
-55.6611  1.93158e+20
-55.5438  1.9494e+20
-55.4265  1.96583e+20
-55.3092  1.97205e+20
-55.1919  1.96064e+20
-55.0746  1.92803e+20
-54.9573  1.87265e+20
-54.84  1.79909e+20
-54.7227  1.71381e+20
-54.6054  1.62639e+20
-54.4881  1.54623e+20
-54.3708  1.48059e+20
-54.2535  1.43519e+20
-54.1362  1.41163e+20
-54.0189  1.40825e+20
-53.9016  1.42009e+20
-53.7842  1.44082e+20
-53.6669  1.4636e+20
-53.5496  1.48211e+20
-53.4323  1.49149e+20
-53.315  1.48954e+20
-53.1977  1.47623e+20
-53.0804  1.45338e+20
-52.9631  1.42484e+20
-52.8458  1.39488e+20
-52.7285  1.36746e+20
-52.6112  1.34589e+20
-52.4939  1.33167e+20
-52.3766  1.3261e+20
-52.2593  1.32914e+20
-52.142  1.34096e+20
-52.0247  1.36167e+20
-51.9074  1.3923e+20
-51.7901  1.4343e+20
-51.6728  1.49089e+20
-51.5555  1.56381e+20
-51.4381  1.65437e+20
-51.3208  1.76274e+20
-51.2035  1.88615e+20
-51.0862  2.0209e+20
-50.9689  2.15959e+20
-50.8516  2.29448e+20
-50.7343  2.41609e+20
-50.617  2.51533e+20
-50.4997  2.58378e+20
-50.3824  2.61418e+20
-50.2651  2.60158e+20
-50.1478  2.5449e+20
-50.0305  2.4444e+20
-49.9132  2.30617e+20
-49.7959  2.13674e+20
-49.6786  1.94676e+20
-49.5613  1.74755e+20
-49.444  1.55108e+20
-49.3267  1.3673e+20
-49.2094  1.20478e+20
-49.092  1.06878e+20
-48.9747  9.6188e+19
-48.8574  8.84674e+19
-48.7401  8.35735e+19
-48.6228  8.13534e+19
-48.5055  8.16908e+19
-48.3882  8.44982e+19
-48.2709  8.96976e+19
-48.1536  9.71784e+19
-48.0363  1.06581e+20
-47.919  1.17439e+20
-47.8017  1.28962e+20
-47.6844  1.40274e+20
-47.5671  1.50348e+20
-47.4498  1.58468e+20
-47.3325  1.64098e+20
-47.2152  1.67212e+20
-47.0979  1.68264e+20
-46.9806  1.68081e+20
-46.8633  1.67775e+20
-46.7459  1.68485e+20
-46.6286  1.71221e+20
-46.5113  1.76574e+20
-46.394  1.84858e+20
-46.2767  1.95821e+20
-46.1594  2.08871e+20
-46.0421  2.23028e+20
-45.9248  2.37255e+20
-45.8075  2.50335e+20
-45.6902  2.6099e+20
-45.5729  2.68297e+20
-45.4556  2.71339e+20
-45.3383  2.69719e+20
-45.221  2.63305e+20
-45.1037  2.52482e+20
-44.9864  2.38257e+20
-44.8691  2.22017e+20
-44.7518  2.05347e+20
-44.6345  1.90016e+20
-44.5172  1.77498e+20
-44.3998  1.68821e+20
-44.2825  1.64144e+20
-44.1652  1.63199e+20
-44.0479  1.6504e+20
-43.9306  1.68298e+20
-43.8133  1.71649e+20
-43.696  1.74032e+20
-43.5787  1.7496e+20
-43.4614  1.74412e+20
-43.3441  1.73152e+20
-43.2268  1.72183e+20
-43.1095  1.72757e+20
-42.9922  1.75803e+20
-42.8749  1.82033e+20
-42.7576  1.91542e+20
-42.6403  2.04053e+20
-42.523  2.18853e+20
-42.4057  2.35079e+20
-42.2884  2.51814e+20
-42.171  2.68242e+20
-42.0537  2.83765e+20
-41.9364  2.97931e+20
-41.8191  3.10236e+20
-41.7018  3.20345e+20
-41.5845  3.27874e+20
-41.4672  3.32409e+20
-41.3499  3.33799e+20
-41.2326  3.31769e+20
-41.1153  3.26546e+20
-40.998  3.18503e+20
-40.8807  3.08208e+20
-40.7634  2.96484e+20
-40.6461  2.84123e+20
-40.5288  2.71733e+20
-40.4115  2.59735e+20
-40.2942  2.48475e+20
-40.1769  2.37764e+20
-40.0596  2.27545e+20
-39.9423  2.17648e+20
-39.825  2.08018e+20
-39.7076  1.98785e+20
-39.5903  1.90162e+20
-39.473  1.82562e+20
-39.3557  1.76575e+20
-39.2384  1.72682e+20
-39.1211  1.71304e+20
-39.0038  1.72993e+20
-38.8865  1.78049e+20
-38.7692  1.8675e+20
-38.6519  1.99409e+20
-38.5346  2.16083e+20
-38.4173  2.36713e+20
-38.3  2.60943e+20
-38.1827  2.88153e+20
-38.0654  3.1733e+20
-37.9481  3.47198e+20
-37.8308  3.76291e+20
-37.7135  4.03138e+20
-37.5962  4.2642e+20
-37.4789  4.45208e+20
-37.3615  4.59157e+20
-37.2442  4.68297e+20
-37.1269  4.73385e+20
-37.0096  4.75099e+20
-36.8923  4.74654e+20
-36.775  4.73052e+20
-36.6577  4.71141e+20
-36.5404  4.6934e+20
-36.4231  4.67757e+20
-36.3058  4.66345e+20
-36.1885  4.64733e+20
-36.0712  4.62592e+20
-35.9539  4.59502e+20
-35.8366  4.55382e+20
-35.7193  4.50332e+20
-35.602  4.44624e+20
-35.4847  4.3866e+20
-35.3674  4.33164e+20
-35.2501  4.2877e+20
-35.1328  4.26097e+20
-35.0154  4.25734e+20
-34.8981  4.28e+20
-34.7808  4.3286e+20
-34.6635  4.39783e+20
-34.5462  4.48158e+20
-34.4289  4.56785e+20
-34.3116  4.64526e+20
-34.1943  4.70154e+20
-34.077  4.72958e+20
-33.9597  4.72535e+20
-33.8424  4.69181e+20
-33.7251  4.6364e+20
-33.6078  4.57431e+20
-33.4905  4.52247e+20
-33.3732  4.49892e+20
-33.2559  4.51994e+20
-33.1386  4.59817e+20
-33.0213  4.73898e+20
-32.904  4.94056e+20
-32.7867  5.19716e+20
-32.6693  5.49444e+20
-32.552  5.81434e+20
-32.4347  6.1403e+20
-32.3174  6.44855e+20
-32.2001  6.72368e+20
-32.0828  6.94835e+20
-31.9655  7.10986e+20
-31.8482  7.20199e+20
-31.7309  7.21975e+20
-31.6136  7.16698e+20
-31.4963  7.05036e+20
-31.379  6.88243e+20
-31.2617  6.67712e+20
-31.1444  6.45096e+20
-31.0271  6.22208e+20
-30.9098  6.00473e+20
-30.7925  5.81369e+20
-30.6752  5.65798e+20
-30.5579  5.54282e+20
-30.4406  5.47034e+20
-30.3232  5.4407e+20
-30.2059  5.45134e+20
-30.0886  5.49652e+20
-29.9713  5.57111e+20
-29.854  5.67028e+20
-29.7367  5.79e+20
-29.6194  5.92548e+20
-29.5021  6.07201e+20
-29.3848  6.22664e+20
-29.2675  6.38735e+20
-29.1502  6.54684e+20
-29.0329  6.70144e+20
-28.9156  6.84398e+20
-28.7983  6.96675e+20
-28.681  7.06166e+20
-28.5637  7.12028e+20
-28.4464  7.13787e+20
-28.3291  7.11084e+20
-28.2118  7.04081e+20
-28.0944  6.93745e+20
-27.9771  6.81033e+20
-27.8598  6.67692e+20
-27.7425  6.55876e+20
-27.6252  6.4758e+20
-27.5079  6.45135e+20
-27.3906  6.50326e+20
-27.2733  6.6485e+20
-27.156  6.90055e+20
-27.0387  7.26236e+20
-26.9214  7.73519e+20
-26.8041  8.31047e+20
-26.6868  8.97295e+20
-26.5695  9.69795e+20
-26.4522  1.04562e+21
-26.3349  1.12152e+21
-26.2176  1.19397e+21
-26.1003  1.26001e+21
-25.983  1.31699e+21
-25.8657  1.36337e+21
-25.7483  1.39884e+21
-25.631  1.42409e+21
-25.5137  1.44086e+21
-25.3964  1.45084e+21
-25.2791  1.45664e+21
-25.1618  1.45982e+21
-25.0445  1.46181e+21
-24.9272  1.46311e+21
-24.8099  1.46361e+21
-24.6926  1.46268e+21
-24.5753  1.46005e+21
-24.458  1.4548e+21
-24.3407  1.4473e+21
-24.2234  1.43792e+21
-24.1061  1.42779e+21
-23.9888  1.41839e+21
-23.8715  1.41137e+21
-23.7542  1.40857e+21
-23.6369  1.41168e+21
-23.5196  1.42216e+21
-23.4023  1.44128e+21
-23.2849  1.46968e+21
-23.1676  1.50776e+21
-23.0503  1.55523e+21
-22.933  1.61113e+21
-22.8157  1.67403e+21
-22.6984  1.74174e+21
-22.5811  1.81215e+21
-22.4638  1.88337e+21
-22.3465  1.95374e+21
-22.2292  2.02299e+21
-22.1119  2.09168e+21
-21.9946  2.16132e+21
-21.8773  2.23448e+21
-21.76  2.31389e+21
-21.6427  2.40222e+21
-21.5254  2.50126e+21
-21.4081  2.61194e+21
-21.2908  2.73353e+21
-21.1735  2.86424e+21
-21.0561  3.0014e+21
-20.9388  3.14129e+21
-20.8215  3.28062e+21
-20.7042  3.41582e+21
-20.5869  3.54417e+21
-20.4696  3.66334e+21
-20.3523  3.77224e+21
-20.235  3.87004e+21
-20.1177  3.95738e+21
-20.0004  4.03561e+21
-19.8831  4.10699e+21
-19.7658  4.17464e+21
-19.6485  4.24288e+21
-19.5312  4.31654e+21
-19.4139  4.40009e+21
-19.2966  4.49776e+21
-19.1793  4.61291e+21
-19.062  4.74678e+21
-18.9447  4.89895e+21
-18.8274  5.06703e+21
-18.71  5.2469e+21
-18.5927  5.43324e+21
-18.4754  5.62062e+21
-18.3581  5.8035e+21
-18.2408  5.97845e+21
-18.1235  6.14264e+21
-18.0062  6.29547e+21
-17.8889  6.43823e+21
-17.7716  6.57381e+21
-17.6543  6.70622e+21
-17.537  6.84e+21
-17.4197  6.97974e+21
-17.3024  7.12945e+21
-17.1851  7.29256e+21
-17.0678  7.47079e+21
-16.9505  7.66496e+21
-16.8332  7.8741e+21
-16.7159  8.09641e+21
-16.5986  8.32882e+21
-16.4813  8.5682e+21
-16.364  8.81123e+21
-16.2466  9.05459e+21
-16.1293  9.29639e+21
-16.012  9.53563e+21
-15.8947  9.77252e+21
-15.7774  1.00085e+22
-15.6601  1.0246e+22
-15.5428  1.04875e+22
-15.4255  1.07358e+22
-15.3082  1.09929e+22
-15.1909  1.12594e+22
-15.0736  1.1535e+22
-14.9563  1.18178e+22
-14.839  1.21048e+22
-14.7217  1.23917e+22
-14.6044  1.26736e+22
-14.4871  1.29462e+22
-14.3698  1.32049e+22
-14.2525  1.34463e+22
-14.1352  1.36686e+22
-14.0178  1.38716e+22
-13.9005  1.40562e+22
-13.7832  1.42258e+22
-13.6659  1.43841e+22
-13.5486  1.45373e+22
-13.4313  1.46895e+22
-13.314  1.48468e+22
-13.1967  1.50135e+22
-13.0794  1.51931e+22
-12.9621  1.53878e+22
-12.8448  1.55983e+22
-12.7275  1.5823e+22
-12.6102  1.60607e+22
-12.4929  1.63085e+22
-12.3756  1.65629e+22
-12.2583  1.68211e+22
-12.141  1.70805e+22
-12.0237  1.73391e+22
-11.9064  1.75958e+22
-11.7891  1.78515e+22
-11.6718  1.81071e+22
-11.5544  1.83647e+22
-11.4371  1.86271e+22
-11.3198  1.88969e+22
-11.2025  1.91766e+22
-11.0852  1.94682e+22
-10.9679  1.97717e+22
-10.8506  2.00863e+22
-10.7333  2.04088e+22
-10.616  2.07349e+22
-10.4987  2.10591e+22
-10.3814  2.13753e+22
-10.2641  2.16768e+22
-10.1468  2.19586e+22
-10.0295  2.22162e+22
-9.91217  2.24474e+22
-9.79487  2.26526e+22
-9.67756  2.28338e+22
-9.56026  2.29949e+22
-9.44295  2.3142e+22
-9.32565  2.32817e+22
-9.20834  2.34206e+22
-9.09104  2.3565e+22
-8.97373  2.37198e+22
-8.85643  2.38899e+22
-8.73913  2.40753e+22
-8.62182  2.42772e+22
-8.50452  2.44933e+22
-8.38721  2.47203e+22
-8.26991  2.4954e+22
-8.1526  2.51894e+22
-8.03529  2.5421e+22
-7.91799  2.5645e+22
-7.80069  2.58584e+22
-7.68338  2.60586e+22
-7.56608  2.62459e+22
-7.44877  2.64215e+22
-7.33146  2.65877e+22
-7.21416  2.6748e+22
-7.09685  2.69064e+22
-6.97955  2.70662e+22
-6.86224  2.72312e+22
-6.74494  2.74037e+22
-6.62763  2.75839e+22
-6.51033  2.77718e+22
-6.39302  2.79653e+22
-6.27572  2.81612e+22
-6.15842  2.83559e+22
-6.04111  2.85445e+22
-5.92381  2.8723e+22
-5.8065  2.88882e+22
-5.68919  2.90378e+22
-5.57189  2.91719e+22
-5.45458  2.92912e+22
-5.33728  2.94003e+22
-5.21997  2.95039e+22
-5.10267  2.9609e+22
-4.98536  2.97227e+22
-4.86806  2.98528e+22
-4.75075  3.00061e+22
-4.63345  3.01882e+22
-4.51614  3.04032e+22
-4.39884  3.06524e+22
-4.28154  3.09353e+22
-4.16423  3.12488e+22
-4.04692  3.15868e+22
-3.92962  3.1942e+22
-3.81231  3.23049e+22
-3.69501  3.26647e+22
-3.5777  3.30105e+22
-3.4604  3.33316e+22
-3.34309  3.36187e+22
-3.22579  3.38643e+22
-3.10849  3.40644e+22
-2.99118  3.42172e+22
-2.87387  3.43238e+22
-2.75657  3.43883e+22
-2.63926  3.44163e+22
-2.52196  3.44147e+22
-2.40465  3.43904e+22
-2.28735  3.43495e+22
-2.17005  3.42978e+22
-2.05274  3.42401e+22
-1.93544  3.41784e+22
-1.81813  3.41154e+22
-1.70083  3.40516e+22
-1.58352  3.39874e+22
-1.46622  3.39228e+22
-1.34891  3.38571e+22
-1.2316  3.37895e+22
-1.1143  3.37197e+22
-0.996995  3.36472e+22
-0.87969  3.35726e+22
-0.762385  3.34958e+22
-0.64508  3.34201e+22
-0.527775  3.33481e+22
-0.41047  3.32831e+22
-0.293165  3.32293e+22
-0.17586  3.31907e+22
-0.058555  3.31703e+22
0.05875  3.31691e+22
0.176055  3.31879e+22
0.29336  3.32244e+22
0.410665  3.32763e+22
0.52797  3.3339e+22
0.645275  3.34091e+22
0.76258  3.34826e+22
0.879885  3.35571e+22
0.99719  3.36298e+22
1.1145  3.37003e+22
1.2318  3.3768e+22
1.3491  3.38335e+22
1.46641  3.3897e+22
1.58371  3.39592e+22
1.70102  3.40209e+22
1.81832  3.4082e+22
1.93563  3.41422e+22
2.05294  3.42005e+22
2.17024  3.42554e+22
2.28754  3.43037e+22
2.40485  3.43409e+22
2.52216  3.43614e+22
2.63946  3.43592e+22
2.75677  3.43271e+22
2.87407  3.42586e+22
2.99137  3.41478e+22
3.10868  3.3991e+22
3.22599  3.37871e+22
3.34329  3.35376e+22
3.4606  3.32472e+22
3.5779  3.29231e+22
3.69521  3.25748e+22
3.81251  3.22131e+22
3.92982  3.18482e+22
4.04712  3.14912e+22
4.16443  3.11518e+22
4.28173  3.08371e+22
4.39903  3.05528e+22
4.51634  3.03023e+22
4.63364  3.00863e+22
4.75095  2.99025e+22
4.86825  2.97475e+22
4.98556  2.96154e+22
5.10286  2.94999e+22
5.22017  2.93924e+22
5.33748  2.92864e+22
5.45478  2.91751e+22
5.57209  2.90532e+22
5.68939  2.89168e+22
5.8067  2.8765e+22
5.924  2.85975e+22
6.0413  2.84172e+22
6.15861  2.8227e+22
6.27591  2.80309e+22
6.39322  2.78339e+22
6.51052  2.76395e+22
6.62783  2.74508e+22
6.74514  2.72699e+22
6.86244  2.70972e+22
6.97975  2.69318e+22
7.09705  2.67714e+22
7.21436  2.66127e+22
7.33166  2.64516e+22
7.44897  2.62848e+22
7.56627  2.61084e+22
7.68358  2.592e+22
7.80088  2.57185e+22
7.91819  2.5504e+22
8.03549  2.52784e+22
8.1528  2.50452e+22
8.2701  2.48083e+22
8.38741  2.45732e+22
8.50471  2.43444e+22
8.62202  2.41267e+22
8.73932  2.39231e+22
8.85662  2.37361e+22
8.97393  2.35648e+22
9.09123  2.34079e+22
9.20854  2.3262e+22
9.32584  2.31214e+22
9.44315  2.298e+22
9.56045  2.28309e+22
9.67776  2.26678e+22
9.79506  2.24849e+22
9.91237  2.22776e+22
10.0297  2.20446e+22
10.147  2.17855e+22
10.2643  2.15021e+22
10.3816  2.11991e+22
10.4989  2.08817e+22
10.6162  2.05562e+22
10.7335  2.02291e+22
10.8508  1.99061e+22
10.9681  1.95911e+22
11.0854  1.92873e+22
11.2027  1.89956e+22
11.32  1.87157e+22
11.4373  1.8446e+22
11.5546  1.81841e+22
11.6719  1.79267e+22
11.7893  1.76717e+22
11.9066  1.7417e+22
12.0239  1.71607e+22
12.1412  1.69031e+22
12.2585  1.66448e+22
12.3758  1.63877e+22
12.4931  1.61344e+22
12.6104  1.58878e+22
12.7277  1.56512e+22
12.845  1.54273e+22
12.9623  1.52181e+22
13.0796  1.50242e+22
13.1969  1.48451e+22
13.3142  1.46792e+22
13.4315  1.45225e+22
13.5488  1.43707e+22
13.6661  1.42183e+22
13.7834  1.40602e+22
13.9007  1.38913e+22
14.018  1.37069e+22
14.1354  1.35046e+22
14.2527  1.32829e+22
14.37  1.30424e+22
14.4873  1.27847e+22
14.6046  1.2513e+22
14.7219  1.22323e+22
14.8392  1.19467e+22
14.9565  1.1661e+22
15.0738  1.13797e+22
15.1911  1.11052e+22
15.3084  1.084e+22
15.4257  1.05844e+22
15.543  1.03376e+22
15.6603  1.00972e+22
15.7776  9.86111e+21
15.8949  9.62644e+21
16.0122  9.391e+21
16.1295  9.15346e+21
16.2468  8.91352e+21
16.3641  8.67179e+21
16.4815  8.43108e+21
16.5988  8.19397e+21
16.7161  7.96371e+21
16.8334  7.74393e+21
16.9507  7.53735e+21
17.068  7.3458e+21
17.1853  7.17001e+21
17.3026  7.00932e+21
17.4199  6.86177e+21
17.5372  6.72396e+21
17.6545  6.59211e+21
17.7718  6.4614e+21
17.8891  6.32708e+21
18.0064  6.18589e+21
18.1237  6.0345e+21
18.241  5.8717e+21
18.3583  5.69837e+21
18.4756  5.51696e+21
18.5929  5.33149e+21
18.7102  5.14701e+21
18.8275  4.96937e+21
18.9449  4.80353e+21
19.0622  4.65368e+21
19.1795  4.52215e+21
19.2968  4.40929e+21
19.4141  4.31375e+21
19.5314  4.23225e+21
19.6487  4.1605e+21
19.766  4.09408e+21
19.8833  4.02792e+21
20.0006  3.95832e+21
20.1179  3.88181e+21
20.2352  3.79625e+21
20.3525  3.7001e+21
20.4698  3.59314e+21
20.5871  3.47586e+21
20.7044  3.34951e+21
20.8217  3.21641e+21
20.939  3.07928e+21
21.0563  2.94143e+21
21.1736  2.80663e+21
21.291  2.6781e+21
21.4083  2.55878e+21
21.5256  2.45037e+21
21.6429  2.35343e+21
21.7602  2.26711e+21
21.8775  2.1896e+21
21.9948  2.11817e+21
22.1121  2.05019e+21
22.2294  1.98309e+21
22.3467  1.91536e+21
22.464  1.84634e+21
22.5813  1.77657e+21
22.6986  1.70757e+21
22.8159  1.64141e+21
22.9332  1.58002e+21
23.0505  1.52564e+21
23.1678  1.47957e+21
23.2851  1.44282e+21
23.4024  1.41573e+21
23.5198  1.39789e+21
23.6371  1.3885e+21
23.7544  1.38644e+21
23.8717  1.39014e+21
23.989  1.3981e+21
24.1063  1.40828e+21
24.2236  1.41914e+21
24.3409  1.42923e+21
24.4582  1.43737e+21
24.5755  1.44317e+21
24.6928  1.4466e+21
24.8101  1.44812e+21
24.9274  1.44827e+21
25.0447  1.44764e+21
25.162  1.44633e+21
25.2793  1.44374e+21
25.3966  1.43848e+21
25.5139  1.42874e+21
25.6312  1.41241e+21
25.7485  1.38745e+21
25.8658  1.35222e+21
25.9832  1.30595e+21
26.1005  1.24925e+21
26.2178  1.18358e+21
26.3351  1.11144e+21
26.4524  1.03602e+21
26.5697  9.60734e+20
26.687  8.88816e+20
26.8043  8.23469e+20
26.9216  7.66736e+20
27.0389  7.20119e+20
27.1562  6.84608e+20
27.2735  6.60197e+20
27.3908  6.46131e+20
27.5081  6.41423e+20
27.6254  6.44348e+20
27.7427  6.52936e+20
27.86  6.64995e+20
27.9773  6.78358e+20
28.0946  6.91194e+20
28.212  7.0156e+20
28.3293  7.08394e+20
28.4466  7.11044e+20
28.5639  7.09135e+20
28.6812  7.03268e+20
28.7985  6.93651e+20
28.9158  6.81305e+20
29.0331  6.67144e+20
29.1504  6.51558e+20
29.2677  6.35695e+20
29.385  6.19753e+20
29.5023  6.04299e+20
29.6196  5.89661e+20
29.7369  5.76287e+20
29.8542  5.64536e+20
29.9715  5.54755e+20
30.0888  5.4739e+20
30.2061  5.43017e+20
30.3234  5.42145e+20
30.4407  5.45216e+20
30.558  5.52574e+20
30.6754  5.64194e+20
30.7927  5.79851e+20
30.91  5.98998e+20
31.0273  6.20597e+20
31.1446  6.43407e+20
31.2619  6.6574e+20
31.3792  6.86074e+20
31.4965  7.02668e+20
31.6138  7.14102e+20
31.7311  7.18997e+20
31.8484  7.16963e+20
31.9657  7.07639e+20
32.083  6.91214e+20
32.2003  6.68616e+20
32.3176  6.41105e+20
32.4349  6.10161e+20
32.5522  5.77752e+20
32.6695  5.45826e+20
32.7868  5.16357e+20
32.9042  4.9085e+20
33.0215  4.70896e+20
33.1388  4.5703e+20
33.2561  4.49392e+20
33.3734  4.47406e+20
33.4907  4.49789e+20
33.608  4.5499e+20
33.7253  4.61226e+20
33.8426  4.66562e+20
33.9599  4.69852e+20
34.0772  4.70103e+20
34.1945  4.67198e+20
34.3118  4.61381e+20
34.4291  4.53564e+20
34.5464  4.44913e+20
34.6637  4.36614e+20
34.781  4.29685e+20
34.8983  4.24923e+20
35.0156  4.22721e+20
35.1329  4.23126e+20
35.2503  4.25816e+20
35.3676  4.30265e+20
35.4849  4.35795e+20
35.6022  4.41782e+20
35.7195  4.47513e+20
35.8368  4.52562e+20
35.9541  4.5665e+20
36.0714  4.59738e+20
36.1887  4.61881e+20
36.306  4.63579e+20
36.4233  4.65009e+20
36.5406  4.66609e+20
36.6579  4.68421e+20
36.7752  4.70373e+20
36.8925  4.7188e+20
37.0098  4.72233e+20
37.1271  4.70358e+20
37.2444  4.65208e+20
37.3617  4.559e+20
37.479  4.41843e+20
37.5964  4.22923e+20
37.7137  3.99618e+20
37.831  3.72761e+20
37.9483  3.43766e+20
38.0656  3.13983e+20
38.1829  2.85021e+20
38.3002  2.58044e+20
38.4175  2.34042e+20
38.5348  2.13678e+20
38.6521  1.9725e+20
38.7694  1.8483e+20
38.8867  1.76297e+20
39.004  1.71394e+20
39.1213  1.69848e+20
39.2386  1.71327e+20
39.3559  1.75363e+20
39.4732  1.81452e+20
39.5905  1.89055e+20
39.7078  1.9773e+20
39.8251  2.07048e+20
39.9425  2.16706e+20
40.0598  2.26634e+20
40.1771  2.36875e+20
40.2944  2.47646e+20
40.4117  2.59012e+20
40.529  2.70967e+20
40.6463  2.83429e+20
40.7636  2.95833e+20
40.8809  3.07503e+20
40.9982  3.17731e+20
41.1155  3.25748e+20
41.2328  3.309e+20
41.3501  3.32802e+20
41.4674  3.31369e+20
41.5847  3.26751e+20
41.702  3.19169e+20
41.8193  3.0906e+20
41.9366  2.96716e+20
42.0539  2.82579e+20
42.1712  2.67052e+20
42.2885  2.50656e+20
42.4059  2.33962e+20
42.5232  2.17811e+20
42.6405  2.03127e+20
42.7578  1.90746e+20
42.8751  1.81362e+20
42.9924  1.75272e+20
43.1097  1.72333e+20
43.227  1.71853e+20
43.3443  1.72867e+20
43.4616  1.74127e+20
43.5789  1.74601e+20
43.6962  1.73644e+20
43.8135  1.71188e+20
43.9308  1.67845e+20
44.0481  1.6458e+20
44.1654  1.62779e+20
44.2827  1.63795e+20
44.4  1.68565e+20
44.5173  1.77427e+20
44.6347  1.90054e+20
44.752  2.05425e+20
44.8693  2.22045e+20
44.9866  2.38253e+20
45.1039  2.52385e+20
45.2212  2.63015e+20
45.3385  2.69295e+20
45.4558  2.70761e+20
45.5731  2.67562e+20
45.6904  2.60152e+20
45.8077  2.49351e+20
45.925  2.3624e+20
46.0423  2.22041e+20
46.1596  2.07894e+20
46.2769  1.94896e+20
46.3942  1.8403e+20
46.5115  1.75859e+20
46.6288  1.70555e+20
46.7461  1.67905e+20
46.8634  1.67255e+20
46.9808  1.67565e+20
47.0981  1.67702e+20
47.2154  1.66633e+20
47.3327  1.63421e+20
47.45  1.57704e+20
47.5673  1.49512e+20
47.6846  1.39396e+20
47.8019  1.28082e+20
47.9192  1.16566e+20
48.0365  1.05747e+20
48.1538  9.63905e+19
48.2711  8.90086e+19
48.3884  8.3896e+19
48.5057  8.11988e+19
48.623  8.09504e+19
48.7403  8.32519e+19
48.8576  8.82739e+19
48.9749  9.61155e+19
49.0922  1.06906e+20
49.2095  1.2064e+20
49.3269  1.36985e+20
49.4442  1.5544e+20
49.5615  1.75146e+20
49.6788  1.95061e+20
49.7961  2.13968e+20
49.9134  2.30826e+20
50.0307  2.44535e+20
50.148  2.54333e+20
50.2653  2.59849e+20
50.3826  2.60863e+20
50.4999  2.57632e+20
50.6172  2.50629e+20
50.7345  2.40581e+20
50.8518  2.28331e+20
