#S 1 spectral density
#N 2
#UFWHM 20.8803
#L  abscissas [um]  spectral density
-58.5938  1.51846e+20
-58.4764  1.52372e+20
-58.3591  1.53202e+20
-58.2418  1.54412e+20
-58.1245  1.55983e+20
-58.0072  1.57729e+20
-57.8899  1.59551e+20
-57.7726  1.6138e+20
-57.6553  1.63126e+20
-57.538  1.64826e+20
-57.4207  1.66577e+20
-57.3034  1.68423e+20
-57.1861  1.70314e+20
-57.0688  1.7204e+20
-56.9515  1.73452e+20
-56.8342  1.74104e+20
-56.7169  1.73715e+20
-56.5996  1.72017e+20
-56.4823  1.68953e+20
-56.365  1.64694e+20
-56.2477  1.59556e+20
-56.1303  1.54061e+20
-56.013  1.48745e+20
-55.8957  1.44107e+20
-55.7784  1.4053e+20
-55.6611  1.38139e+20
-55.5438  1.36947e+20
-55.4265  1.36926e+20
-55.3092  1.37798e+20
-55.1919  1.39382e+20
-55.0746  1.41562e+20
-54.9573  1.44184e+20
-54.84  1.47329e+20
-54.7227  1.50915e+20
-54.6054  1.55076e+20
-54.4881  1.59782e+20
-54.3708  1.64929e+20
-54.2535  1.70391e+20
-54.1362  1.75966e+20
-54.0189  1.81324e+20
-53.9016  1.86241e+20
-53.7842  1.90435e+20
-53.6669  1.93674e+20
-53.5496  1.95814e+20
-53.4323  1.96827e+20
-53.315  1.96719e+20
-53.1977  1.95656e+20
-53.0804  1.93947e+20
-52.9631  1.91829e+20
-52.8458  1.89661e+20
-52.7285  1.87818e+20
-52.6112  1.86571e+20
-52.4939  1.862e+20
-52.3766  1.86896e+20
-52.2593  1.88922e+20
-52.142  1.92314e+20
-52.0247  1.97266e+20
-51.9074  2.03697e+20
-51.7901  2.11623e+20
-51.6728  2.20761e+20
-51.5555  2.30729e+20
-51.4381  2.40969e+20
-51.3208  2.5083e+20
-51.2035  2.59545e+20
-51.0862  2.66396e+20
-50.9689  2.70773e+20
-50.8516  2.72292e+20
-50.7343  2.71081e+20
-50.617  2.67242e+20
-50.4997  2.61383e+20
-50.3824  2.5424e+20
-50.2651  2.46478e+20
-50.1478  2.38925e+20
-50.0305  2.3214e+20
-49.9132  2.26636e+20
-49.7959  2.22683e+20
-49.6786  2.20426e+20
-49.5613  2.19886e+20
-49.444  2.2099e+20
-49.3267  2.23505e+20
-49.2094  2.27228e+20
-49.092  2.31712e+20
-48.9747  2.36421e+20
-48.8574  2.40712e+20
-48.7401  2.44037e+20
-48.6228  2.45731e+20
-48.5055  2.45444e+20
-48.3882  2.43059e+20
-48.2709  2.3864e+20
-48.1536  2.32577e+20
-48.0363  2.2555e+20
-47.919  2.18189e+20
-47.8017  2.11267e+20
-47.6844  2.05401e+20
-47.5671  2.0116e+20
-47.4498  1.98789e+20
-47.3325  1.98496e+20
-47.2152  2.0024e+20
-47.0979  2.03968e+20
-46.9806  2.094e+20
-46.8633  2.16241e+20
-46.7459  2.24173e+20
-46.6286  2.3278e+20
-46.5113  2.41572e+20
-46.394  2.50096e+20
-46.2767  2.5794e+20
-46.1594  2.64726e+20
-46.0421  2.70352e+20
-45.9248  2.74647e+20
-45.8075  2.77733e+20
-45.6902  2.79728e+20
-45.5729  2.80798e+20
-45.4556  2.81083e+20
-45.3383  2.80792e+20
-45.221  2.79996e+20
-45.1037  2.78782e+20
-44.9864  2.77332e+20
-44.8691  2.75817e+20
-44.7518  2.74435e+20
-44.6345  2.73454e+20
-44.5172  2.73177e+20
-44.3998  2.73634e+20
-44.2825  2.74834e+20
-44.1652  2.76505e+20
-44.0479  2.78448e+20
-43.9306  2.8021e+20
-43.8133  2.81564e+20
-43.696  2.82407e+20
-43.5787  2.82774e+20
-43.4614  2.82925e+20
-43.3441  2.83317e+20
-43.2268  2.84311e+20
-43.1095  2.86228e+20
-42.9922  2.89142e+20
-42.8749  2.92928e+20
-42.7576  2.97164e+20
-42.6403  3.01327e+20
-42.523  3.04851e+20
-42.4057  3.07308e+20
-42.2884  3.08404e+20
-42.171  3.08098e+20
-42.0537  3.06669e+20
-41.9364  3.04448e+20
-41.8191  3.01835e+20
-41.7018  2.99305e+20
-41.5845  2.97259e+20
-41.4672  2.95939e+20
-41.3499  2.95671e+20
-41.2326  2.96698e+20
-41.1153  2.99259e+20
-40.998  3.0358e+20
-40.8807  3.09851e+20
-40.7634  3.18085e+20
-40.6461  3.28154e+20
-40.5288  3.39653e+20
-40.4115  3.51895e+20
-40.2942  3.64063e+20
-40.1769  3.75343e+20
-40.0596  3.84839e+20
-39.9423  3.92006e+20
-39.825  3.96693e+20
-39.7076  3.98812e+20
-39.5903  3.98835e+20
-39.473  3.97195e+20
-39.3557  3.94557e+20
-39.2384  3.9144e+20
-39.1211  3.88406e+20
-39.0038  3.85772e+20
-38.8865  3.8377e+20
-38.7692  3.82566e+20
-38.6519  3.82393e+20
-38.5346  3.83389e+20
-38.4173  3.85731e+20
-38.3  3.89556e+20
-38.1827  3.94924e+20
-38.0654  4.01678e+20
-37.9481  4.0953e+20
-37.8308  4.1799e+20
-37.7135  4.26494e+20
-37.5962  4.34455e+20
-37.4789  4.41339e+20
-37.3615  4.46917e+20
-37.2442  4.50982e+20
-37.1269  4.53644e+20
-37.0096  4.55199e+20
-36.8923  4.55977e+20
-36.775  4.56242e+20
-36.6577  4.56231e+20
-36.5404  4.5627e+20
-36.4231  4.56304e+20
-36.3058  4.56403e+20
-36.1885  4.56481e+20
-36.0712  4.56506e+20
-35.9539  4.56338e+20
-35.8366  4.55941e+20
-35.7193  4.55102e+20
-35.602  4.53552e+20
-35.4847  4.51307e+20
-35.3674  4.48055e+20
-35.2501  4.43762e+20
-35.1328  4.38573e+20
-35.0154  4.32521e+20
-34.8981  4.26149e+20
-34.7808  4.19834e+20
-34.6635  4.14131e+20
-34.5462  4.09644e+20
-34.4289  4.07029e+20
-34.3116  4.06672e+20
-34.1943  4.08889e+20
-34.077  4.13952e+20
-33.9597  4.21966e+20
-33.8424  4.32913e+20
-33.7251  4.46559e+20
-33.6078  4.62712e+20
-33.4905  4.80886e+20
-33.3732  5.00538e+20
-33.2559  5.2091e+20
-33.1386  5.41174e+20
-33.0213  5.60414e+20
-32.904  5.77815e+20
-32.7867  5.92575e+20
-32.6693  6.04251e+20
-32.552  6.12444e+20
-32.4347  6.17255e+20
-32.3174  6.18941e+20
-32.2001  6.17926e+20
-32.0828  6.14815e+20
-31.9655  6.1016e+20
-31.8482  6.04836e+20
-31.7309  5.99391e+20
-31.6136  5.94573e+20
-31.4963  5.90979e+20
-31.379  5.89263e+20
-31.2617  5.89895e+20
-31.1444  5.93379e+20
-31.0271  6.0004e+20
-30.9098  6.0981e+20
-30.7925  6.22871e+20
-30.6752  6.38821e+20
-30.5579  6.573e+20
-30.4406  6.7773e+20
-30.3232  6.99278e+20
-30.2059  7.21249e+20
-30.0886  7.42769e+20
-29.9713  7.62761e+20
-29.854  7.80519e+20
-29.7367  7.95317e+20
-29.6194  8.06566e+20
-29.5021  8.13865e+20
-29.3848  8.17456e+20
-29.2675  8.17597e+20
-29.1502  8.15138e+20
-29.0329  8.10871e+20
-28.9156  8.061e+20
-28.7983  8.01898e+20
-28.681  7.99546e+20
-28.5637  7.99986e+20
-28.4464  8.04074e+20
-28.3291  8.12376e+20
-28.2118  8.2521e+20
-28.0944  8.42481e+20
-27.9771  8.64061e+20
-27.8598  8.89111e+20
-27.7425  9.16772e+20
-27.6252  9.45665e+20
-27.5079  9.74155e+20
-27.3906  1.00054e+21
-27.2733  1.02288e+21
-27.156  1.03978e+21
-27.0387  1.05012e+21
-26.9214  1.05338e+21
-26.8041  1.04984e+21
-26.6868  1.04045e+21
-26.5695  1.02669e+21
-26.4522  1.01053e+21
-26.3349  9.94075e+20
-26.2176  9.79183e+20
-26.1003  9.67797e+20
-25.983  9.61247e+20
-25.8657  9.60598e+20
-25.7483  9.66422e+20
-25.631  9.78848e+20
-25.5137  9.9754e+20
-25.3964  1.022e+21
-25.2791  1.05074e+21
-25.1618  1.08247e+21
-25.0445  1.11519e+21
-24.9272  1.14693e+21
-24.8099  1.17546e+21
-24.6926  1.19934e+21
-24.5753  1.21706e+21
-24.458  1.22837e+21
-24.3407  1.23312e+21
-24.2234  1.23243e+21
-24.1061  1.22763e+21
-23.9888  1.22082e+21
-23.8715  1.21394e+21
-23.7542  1.20908e+21
-23.6369  1.208e+21
-23.5196  1.21205e+21
-23.4023  1.22197e+21
-23.2849  1.23832e+21
-23.1676  1.26062e+21
-23.0503  1.28809e+21
-22.933  1.31934e+21
-22.8157  1.35247e+21
-22.6984  1.38541e+21
-22.5811  1.41566e+21
-22.4638  1.4411e+21
-22.3465  1.46018e+21
-22.2292  1.47163e+21
-22.1119  1.47548e+21
-21.9946  1.47262e+21
-21.8773  1.46479e+21
-21.76  1.45444e+21
-21.6427  1.44447e+21
-21.5254  1.43779e+21
-21.4081  1.43724e+21
-21.2908  1.44527e+21
-21.1735  1.46383e+21
-21.0561  1.49427e+21
-20.9388  1.5373e+21
-20.8215  1.59289e+21
-20.7042  1.66072e+21
-20.5869  1.7391e+21
-20.4696  1.82628e+21
-20.3523  1.91929e+21
-20.235  2.01506e+21
-20.1177  2.10976e+21
-20.0004  2.20019e+21
-19.8831  2.28303e+21
-19.7658  2.35657e+21
-19.6485  2.4195e+21
-19.5312  2.47229e+21
-19.4139  2.51651e+21
-19.2966  2.55477e+21
-19.1793  2.59054e+21
-19.062  2.62741e+21
-18.9447  2.66898e+21
-18.8274  2.71851e+21
-18.71  2.7785e+21
-18.5927  2.85113e+21
-18.4754  2.93744e+21
-18.3581  3.03801e+21
-18.2408  3.15299e+21
-18.1235  3.28121e+21
-18.0062  3.42166e+21
-17.8889  3.57221e+21
-17.7716  3.73008e+21
-17.6543  3.89282e+21
-17.537  4.05688e+21
-17.4197  4.21937e+21
-17.3024  4.37784e+21
-17.1851  4.5307e+21
-17.0678  4.67682e+21
-16.9505  4.81655e+21
-16.8332  4.95098e+21
-16.7159  5.08194e+21
-16.5986  5.21201e+21
-16.4813  5.34415e+21
-16.364  5.48106e+21
-16.2466  5.62557e+21
-16.1293  5.77991e+21
-16.012  5.94605e+21
-15.8947  6.1251e+21
-15.7774  6.3179e+21
-15.6601  6.52424e+21
-15.5428  6.74373e+21
-15.4255  6.9747e+21
-15.3082  7.21563e+21
-15.1909  7.46395e+21
-15.0736  7.71748e+21
-14.9563  7.97342e+21
-14.839  8.22937e+21
-14.7217  8.4835e+21
-14.6044  8.73391e+21
-14.4871  8.98005e+21
-14.3698  9.22123e+21
-14.2525  9.45778e+21
-14.1352  9.69053e+21
-14.0178  9.92055e+21
-13.9005  1.01495e+22
-13.7832  1.0379e+22
-13.6659  1.06107e+22
-13.5486  1.0847e+22
-13.4313  1.10887e+22
-13.314  1.13378e+22
-13.1967  1.15956e+22
-13.0794  1.18621e+22
-12.9621  1.21388e+22
-12.8448  1.2425e+22
-12.7275  1.27207e+22
-12.6102  1.30256e+22
-12.4929  1.33398e+22
-12.3756  1.36625e+22
-12.2583  1.39937e+22
-12.141  1.43332e+22
-12.0237  1.46807e+22
-11.9064  1.50359e+22
-11.7891  1.53987e+22
-11.6718  1.57683e+22
-11.5544  1.6144e+22
-11.4371  1.65247e+22
-11.3198  1.6909e+22
-11.2025  1.72954e+22
-11.0852  1.76819e+22
-10.9679  1.80666e+22
-10.8506  1.84472e+22
-10.7333  1.88214e+22
-10.616  1.91872e+22
-10.4987  1.95426e+22
-10.3814  1.98864e+22
-10.2641  2.02177e+22
-10.1468  2.05366e+22
-10.0295  2.08441e+22
-9.91217  2.11416e+22
-9.79487  2.14324e+22
-9.67756  2.17189e+22
-9.56026  2.20048e+22
-9.44295  2.22938e+22
-9.32565  2.25889e+22
-9.20834  2.28932e+22
-9.09104  2.32085e+22
-8.97373  2.3536e+22
-8.85643  2.38767e+22
-8.73913  2.42287e+22
-8.62182  2.45913e+22
-8.50452  2.49623e+22
-8.38721  2.5338e+22
-8.26991  2.57159e+22
-8.1526  2.60923e+22
-8.03529  2.64637e+22
-7.91799  2.68274e+22
-7.80069  2.7182e+22
-7.68338  2.75256e+22
-7.56608  2.78584e+22
-7.44877  2.81816e+22
-7.33146  2.84962e+22
-7.21416  2.88047e+22
-7.09685  2.91098e+22
-6.97955  2.94135e+22
-6.86224  2.97183e+22
-6.74494  3.00262e+22
-6.62763  3.03377e+22
-6.51033  3.06534e+22
-6.39302  3.09728e+22
-6.27572  3.12943e+22
-6.15842  3.16159e+22
-6.04111  3.19348e+22
-5.92381  3.22483e+22
-5.8065  3.25532e+22
-5.68919  3.28466e+22
-5.57189  3.31268e+22
-5.45458  3.3392e+22
-5.33728  3.36424e+22
-5.21997  3.38778e+22
-5.10267  3.41004e+22
-4.98536  3.43117e+22
-4.86806  3.45142e+22
-4.75075  3.47107e+22
-4.63345  3.49039e+22
-4.51614  3.50957e+22
-4.39884  3.52882e+22
-4.28154  3.54827e+22
-4.16423  3.56806e+22
-4.04692  3.58813e+22
-3.92962  3.6085e+22
-3.81231  3.6291e+22
-3.69501  3.64971e+22
-3.5777  3.67018e+22
-3.4604  3.69029e+22
-3.34309  3.70974e+22
-3.22579  3.72833e+22
-3.10849  3.74589e+22
-2.99118  3.76232e+22
-2.87387  3.77758e+22
-2.75657  3.79174e+22
-2.63926  3.80484e+22
-2.52196  3.81706e+22
-2.40465  3.82852e+22
-2.28735  3.8393e+22
-2.17005  3.84947e+22
-2.05274  3.85909e+22
-1.93544  3.86808e+22
-1.81813  3.87646e+22
-1.70083  3.88415e+22
-1.58352  3.89111e+22
-1.46622  3.89729e+22
-1.34891  3.90267e+22
-1.2316  3.90722e+22
-1.1143  3.91094e+22
-0.996995  3.9138e+22
-0.87969  3.91589e+22
-0.762385  3.91721e+22
-0.64508  3.91792e+22
-0.527775  3.91811e+22
-0.41047  3.918e+22
-0.293165  3.91775e+22
-0.17586  3.91754e+22
-0.058555  3.91752e+22
0.05875  3.91776e+22
0.176055  3.91823e+22
0.29336  3.91889e+22
0.410665  3.91957e+22
0.52797  3.92008e+22
0.645275  3.92025e+22
0.76258  3.91988e+22
0.879885  3.91886e+22
0.99719  3.91706e+22
1.1145  3.91444e+22
1.2318  3.91099e+22
1.3491  3.90671e+22
1.46641  3.90159e+22
1.58371  3.89567e+22
1.70102  3.88901e+22
1.81832  3.88163e+22
1.93563  3.87359e+22
2.05294  3.86494e+22
2.17024  3.85572e+22
2.28754  3.84594e+22
2.40485  3.83555e+22
2.52216  3.82451e+22
2.63946  3.81269e+22
2.75677  3.79994e+22
2.87407  3.78617e+22
2.99137  3.77124e+22
3.10868  3.75512e+22
3.22599  3.73784e+22
3.34329  3.71953e+22
3.4606  3.70035e+22
3.5779  3.68053e+22
3.69521  3.6603e+22
3.81251  3.63994e+22
3.92982  3.61963e+22
4.04712  3.59953e+22
4.16443  3.57976e+22
4.28173  3.56031e+22
4.39903  3.54118e+22
4.51634  3.52228e+22
4.63364  3.50344e+22
4.75095  3.48449e+22
4.86825  3.46517e+22
4.98556  3.44525e+22
5.10286  3.42446e+22
5.22017  3.40249e+22
5.33748  3.37922e+22
5.45478  3.35444e+22
5.57209  3.32814e+22
5.68939  3.30034e+22
5.8067  3.27117e+22
5.924  3.24087e+22
6.0413  3.20973e+22
6.15861  3.17803e+22
6.27591  3.14606e+22
6.39322  3.11413e+22
6.51052  3.08242e+22
6.62783  3.05108e+22
6.74514  3.02016e+22
6.86244  2.98965e+22
6.97975  2.95941e+22
7.09705  2.92927e+22
7.21436  2.89903e+22
7.33166  2.86838e+22
7.44897  2.8371e+22
7.56627  2.80499e+22
7.68358  2.77182e+22
7.80088  2.73758e+22
7.91819  2.70224e+22
8.03549  2.66593e+22
8.1528  2.62886e+22
8.2701  2.59129e+22
8.38741  2.55356e+22
8.50471  2.51601e+22
8.62202  2.47901e+22
8.73932  2.44279e+22
8.85662  2.40768e+22
8.97393  2.37373e+22
9.09123  2.34106e+22
9.20854  2.30966e+22
9.32584  2.27934e+22
9.44315  2.24992e+22
9.56045  2.22111e+22
9.67776  2.19258e+22
9.79506  2.164e+22
9.91237  2.13491e+22
10.0297  2.10516e+22
10.147  2.07437e+22
10.2643  2.04241e+22
10.3816  2.00919e+22
10.4989  1.97468e+22
10.6162  1.93897e+22
10.7335  1.90226e+22
10.8508  1.86468e+22
10.9681  1.82644e+22
11.0854  1.78782e+22
11.2027  1.74901e+22
11.32  1.71021e+22
11.4373  1.67163e+22
11.5546  1.63344e+22
11.6719  1.59574e+22
11.7893  1.55865e+22
11.9066  1.52228e+22
12.0239  1.4866e+22
12.1412  1.45173e+22
12.2585  1.41766e+22
12.3758  1.38439e+22
12.4931  1.35196e+22
12.6104  1.3204e+22
12.7277  1.28972e+22
12.845  1.25996e+22
12.9623  1.23116e+22
13.0796  1.20332e+22
13.1969  1.17644e+22
13.3142  1.15049e+22
13.4315  1.12535e+22
13.5488  1.10097e+22
13.6661  1.07714e+22
13.7834  1.05374e+22
13.9007  1.03059e+22
14.018  1.00746e+22
14.1354  9.84218e+21
14.2527  9.607e+21
14.37  9.36783e+21
14.4873  9.12419e+21
14.6046  8.87493e+21
14.7219  8.62167e+21
14.8392  8.3647e+21
14.9565  8.10567e+21
15.0738  7.84677e+21
15.1911  7.5903e+21
15.3084  7.33883e+21
15.4257  7.09517e+21
15.543  6.86143e+21
15.6603  6.63929e+21
15.7776  6.43046e+21
15.8949  6.23525e+21
16.0122  6.05383e+21
16.1295  5.88548e+21
16.2468  5.729e+21
16.3641  5.5823e+21
16.4815  5.44304e+21
16.5988  5.3087e+21
16.7161  5.17599e+21
16.8334  5.04248e+21
16.9507  4.90536e+21
17.068  4.76283e+21
17.1853  4.61373e+21
17.3026  4.45804e+21
17.4199  4.29642e+21
17.5372  4.13087e+21
17.6545  3.96391e+21
17.7718  3.79867e+21
17.8891  3.638e+21
18.0064  3.48516e+21
18.1237  3.34239e+21
18.241  3.21203e+21
18.3583  3.09511e+21
18.4756  2.99274e+21
18.5929  2.90479e+21
18.7102  2.83054e+21
18.8275  2.76894e+21
18.9449  2.71794e+21
19.0622  2.67473e+21
19.1795  2.63626e+21
19.2968  2.59854e+21
19.4141  2.55833e+21
19.5314  2.51208e+21
19.6487  2.45708e+21
19.766  2.392e+21
19.8833  2.31636e+21
20.0006  2.23124e+21
20.1179  2.13879e+21
20.2352  2.04215e+21
20.3525  1.94475e+21
20.4698  1.85021e+21
20.5871  1.76177e+21
20.7044  1.68222e+21
20.8217  1.61354e+21
20.939  1.55704e+21
21.0563  1.51331e+21
21.1736  1.4822e+21
21.291  1.46306e+21
21.4083  1.45439e+21
21.5256  1.45443e+21
21.6429  1.4604e+21
21.7602  1.46976e+21
21.8775  1.47933e+21
21.9948  1.4864e+21
22.1121  1.48826e+21
22.2294  1.48337e+21
22.3467  1.47097e+21
22.464  1.45121e+21
22.5813  1.42485e+21
22.6986  1.39395e+21
22.8159  1.36049e+21
22.9332  1.32685e+21
23.0505  1.29519e+21
23.1678  1.26754e+21
23.2851  1.24513e+21
23.4024  1.22873e+21
23.5198  1.21872e+21
23.6371  1.21478e+21
23.7544  1.21586e+21
23.8717  1.22074e+21
23.989  1.22744e+21
24.1063  1.23413e+21
24.2236  1.23869e+21
24.3409  1.2391e+21
24.4582  1.23406e+21
24.5755  1.2225e+21
24.6928  1.20437e+21
24.8101  1.18015e+21
24.9274  1.1513e+21
25.0447  1.11941e+21
25.162  1.08656e+21
25.2793  1.05486e+21
25.3966  1.02613e+21
25.5139  1.00192e+21
25.6312  9.83343e+20
25.7485  9.7117e+20
25.8658  9.656e+20
25.9832  9.66513e+20
26.1005  9.73333e+20
26.2178  9.85065e+20
26.3351  1.00004e+21
26.4524  1.01677e+21
26.5697  1.03299e+21
26.687  1.04682e+21
26.8043  1.05607e+21
26.9216  1.0594e+21
27.0389  1.05597e+21
27.1562  1.04553e+21
27.2735  1.02841e+21
27.3908  1.00588e+21
27.5081  9.79439e+20
27.6254  9.50848e+20
27.7427  9.21887e+20
27.86  8.94289e+20
27.9773  8.69322e+20
28.0946  8.47905e+20
28.212  8.3075e+20
28.3293  8.1817e+20
28.4466  8.1004e+20
28.5639  8.06164e+20
28.6812  8.05837e+20
28.7985  8.08313e+20
28.9158  8.12595e+20
29.0331  8.17439e+20
29.1504  8.21739e+20
29.2677  8.2417e+20
29.385  8.23902e+20
29.5023  8.2015e+20
29.6196  8.12668e+20
29.7369  8.01235e+20
29.8542  7.86216e+20
29.9715  7.68271e+20
30.0888  7.48013e+20
30.2061  7.26412e+20
30.3234  7.04309e+20
30.4407  6.82608e+20
30.558  6.62124e+20
30.6754  6.43554e+20
30.7927  6.27591e+20
30.91  6.14602e+20
31.0273  6.04715e+20
31.1446  5.98212e+20
31.2619  5.94744e+20
31.3792  5.94128e+20
31.4965  5.95822e+20
31.6138  5.99311e+20
31.7311  6.04085e+20
31.8484  6.09459e+20
31.9657  6.1469e+20
32.083  6.19127e+20
32.2003  6.22077e+20
32.3176  6.22869e+20
32.4349  6.20914e+20
32.5522  6.15828e+20
32.6695  6.07351e+20
32.7868  5.95454e+20
32.9042  5.80453e+20
33.0215  5.62876e+20
33.1388  5.4342e+20
33.2561  5.23043e+20
33.3734  5.02546e+20
33.4907  4.82802e+20
33.608  4.64569e+20
33.7253  4.48402e+20
33.8426  4.34758e+20
33.9599  4.23823e+20
34.0772  4.15814e+20
34.1945  4.10726e+20
34.3118  4.08537e+20
34.4291  4.08918e+20
34.5464  4.11494e+20
34.6637  4.15919e+20
34.781  4.21523e+20
34.8983  4.27809e+20
35.0156  4.34173e+20
35.1329  4.40096e+20
35.2503  4.45253e+20
35.3676  4.49395e+20
35.4849  4.52577e+20
35.6022  4.54845e+20
35.7195  4.5624e+20
35.8368  4.57149e+20
35.9541  4.57585e+20
36.0714  4.57716e+20
36.1887  4.57671e+20
36.306  4.57563e+20
36.4233  4.5748e+20
36.5406  4.57467e+20
36.6579  4.57468e+20
36.7752  4.57443e+20
36.8925  4.57188e+20
37.0098  4.56409e+20
37.1271  4.54814e+20
37.2444  4.52064e+20
37.3617  4.47933e+20
37.479  4.42333e+20
37.5964  4.35393e+20
37.7137  4.27392e+20
37.831  4.18867e+20
37.9483  4.1044e+20
38.0656  4.02612e+20
38.1829  3.95877e+20
38.3002  3.9059e+20
38.4175  3.86835e+20
38.5348  3.84569e+20
38.6521  3.83648e+20
38.7694  3.83909e+20
38.8867  3.8517e+20
39.004  3.87278e+20
39.1213  3.90021e+20
39.2386  3.93076e+20
39.3559  3.962e+20
39.4732  3.98844e+20
39.5905  4.00461e+20
39.7078  4.00463e+20
39.8251  3.98271e+20
39.9425  3.93553e+20
40.0598  3.8623e+20
40.1771  3.76624e+20
40.2944  3.65359e+20
40.4117  3.53111e+20
40.529  3.40906e+20
40.6463  3.29467e+20
40.7636  3.19426e+20
40.8809  3.112e+20
40.9982  3.04989e+20
41.1155  3.00726e+20
41.2328  2.98232e+20
41.3501  2.97247e+20
41.4674  2.97572e+20
41.5847  2.98919e+20
41.702  3.00995e+20
41.8193  3.03563e+20
41.9366  3.06128e+20
42.0539  3.08346e+20
42.1712  3.09757e+20
42.2885  3.10019e+20
42.4059  3.08844e+20
42.5232  3.06346e+20
42.6405  3.02791e+20
42.7578  2.98565e+20
42.8751  2.94291e+20
42.9924  2.90515e+20
43.1097  2.87604e+20
43.227  2.85682e+20
43.3443  2.84682e+20
43.4616  2.84302e+20
43.5789  2.84105e+20
43.6962  2.83704e+20
43.8135  2.82842e+20
43.9308  2.81408e+20
44.0481  2.79585e+20
44.1654  2.77627e+20
44.2827  2.75906e+20
44.4  2.74749e+20
44.5173  2.74298e+20
44.6347  2.74599e+20
44.752  2.75526e+20
44.8693  2.76873e+20
44.9866  2.78403e+20
45.1039  2.79845e+20
45.2212  2.81024e+20
45.3385  2.8183e+20
45.4558  2.82103e+20
45.5731  2.8173e+20
45.6904  2.80627e+20
45.8077  2.78619e+20
45.925  2.75488e+20
46.0423  2.71076e+20
46.1596  2.65415e+20
46.2769  2.5853e+20
46.3942  2.5059e+20
46.5115  2.42023e+20
46.6288  2.33152e+20
46.7461  2.24524e+20
46.8634  2.16552e+20
46.9808  2.09715e+20
47.0981  2.04286e+20
47.2154  2.00605e+20
47.3327  1.98909e+20
47.45  1.99224e+20
47.5673  2.0166e+20
47.6846  2.0594e+20
47.8019  2.11851e+20
47.9192  2.18803e+20
48.0365  2.26165e+20
48.1538  2.33248e+20
48.2711  2.39253e+20
48.3884  2.43616e+20
48.5057  2.45955e+20
48.623  2.46164e+20
48.7403  2.44409e+20
48.8576  2.41049e+20
48.9749  2.36701e+20
49.0922  2.32001e+20
49.2095  2.27527e+20
49.3269  2.23839e+20
49.4442  2.21337e+20
49.5615  2.20284e+20
49.6788  2.20888e+20
49.7961  2.23223e+20
49.9134  2.27249e+20
50.0307  2.32834e+20
50.148  2.39661e+20
50.2653  2.47239e+20
50.3826  2.54993e+20
50.4999  2.62196e+20
50.6172  2.68017e+20
50.7345  2.71727e+20
50.8518  2.72911e+20
50.9691  2.71255e+20
