#S 1 spectral density
#N 2
#UFWHM 30.0301
#L  abscissas [um]  spectral density
-58.5938  1.38354e+20
-58.4764  1.42714e+20
-58.3591  1.46323e+20
-58.2418  1.48848e+20
-58.1245  1.50183e+20
-58.0072  1.50636e+20
-57.8899  1.50663e+20
-57.7726  1.51133e+20
-57.6553  1.53082e+20
-57.538  1.57509e+20
-57.4207  1.65253e+20
-57.3034  1.76747e+20
-57.1861  1.91865e+20
-57.0688  2.09771e+20
-56.9515  2.29217e+20
-56.8342  2.4844e+20
-56.7169  2.65608e+20
-56.5996  2.7908e+20
-56.4823  2.87672e+20
-56.365  2.90934e+20
-56.2477  2.89029e+20
-56.1303  2.8268e+20
-56.013  2.73252e+20
-55.8957  2.62064e+20
-55.7784  2.50622e+20
-55.6611  2.39829e+20
-55.5438  2.30419e+20
-55.4265  2.22602e+20
-55.3092  2.16281e+20
-55.1919  2.10935e+20
-55.0746  2.0612e+20
-54.9573  2.01197e+20
-54.84  1.95917e+20
-54.7227  1.89954e+20
-54.6054  1.83353e+20
-54.4881  1.76148e+20
-54.3708  1.68631e+20
-54.2535  1.61142e+20
-54.1362  1.54026e+20
-54.0189  1.47721e+20
-53.9016  1.42563e+20
-53.7842  1.38865e+20
-53.6669  1.36864e+20
-53.5496  1.36795e+20
-53.4323  1.38776e+20
-53.315  1.42837e+20
-53.1977  1.48901e+20
-53.0804  1.56915e+20
-52.9631  1.66608e+20
-52.8458  1.77615e+20
-52.7285  1.89604e+20
-52.6112  2.02131e+20
-52.4939  2.14733e+20
-52.3766  2.26981e+20
-52.2593  2.38605e+20
-52.142  2.49503e+20
-52.0247  2.59489e+20
-51.9074  2.68825e+20
-51.7901  2.77479e+20
-51.6728  2.85688e+20
-51.5555  2.93457e+20
-51.4381  3.00662e+20
-51.3208  3.06999e+20
-51.2035  3.11875e+20
-51.0862  3.14917e+20
-50.9689  3.15467e+20
-50.8516  3.13162e+20
-50.7343  3.07878e+20
-50.617  2.99779e+20
-50.4997  2.89305e+20
-50.3824  2.77139e+20
-50.2651  2.64232e+20
-50.1478  2.51662e+20
-50.0305  2.40485e+20
-49.9132  2.31772e+20
-49.7959  2.26282e+20
-49.6786  2.24735e+20
-49.5613  2.27402e+20
-49.444  2.34251e+20
-49.3267  2.44817e+20
-49.2094  2.58235e+20
-49.092  2.73291e+20
-48.9747  2.88495e+20
-48.8574  3.02273e+20
-48.7401  3.13382e+20
-48.6228  3.2079e+20
-48.5055  3.24159e+20
-48.3882  3.23907e+20
-48.2709  3.20794e+20
-48.1536  3.16206e+20
-48.0363  3.11776e+20
-47.919  3.0896e+20
-47.8017  3.0885e+20
-47.6844  3.1206e+20
-47.5671  3.18503e+20
-47.4498  3.27549e+20
-47.3325  3.38077e+20
-47.2152  3.48711e+20
-47.0979  3.58122e+20
-46.9806  3.65001e+20
-46.8633  3.68446e+20
-46.7459  3.68142e+20
-46.6286  3.63976e+20
-46.5113  3.56473e+20
-46.394  3.46246e+20
-46.2767  3.3453e+20
-46.1594  3.22527e+20
-46.0421  3.11414e+20
-45.9248  3.02294e+20
-45.8075  2.96041e+20
-45.6902  2.93003e+20
-45.5729  2.9327e+20
-45.4556  2.96191e+20
-45.3383  3.01053e+20
-45.221  3.06701e+20
-45.1037  3.12151e+20
-44.9864  3.16729e+20
-44.8691  3.19849e+20
-44.7518  3.2159e+20
-44.6345  3.22429e+20
-44.5172  3.23161e+20
-44.3998  3.24624e+20
-44.2825  3.27696e+20
-44.1652  3.32844e+20
-44.0479  3.4037e+20
-43.9306  3.50142e+20
-43.8133  3.61785e+20
-43.696  3.74811e+20
-43.5787  3.88655e+20
-43.4614  4.02812e+20
-43.3441  4.16933e+20
-43.2268  4.30635e+20
-43.1095  4.43728e+20
-42.9922  4.5588e+20
-42.8749  4.66874e+20
-42.7576  4.76368e+20
-42.6403  4.84458e+20
-42.523  4.91081e+20
-42.4057  4.96639e+20
-42.2884  5.01524e+20
-42.171  5.06453e+20
-42.0537  5.1211e+20
-41.9364  5.18925e+20
-41.8191  5.27133e+20
-41.7018  5.3629e+20
-41.5845  5.4596e+20
-41.4672  5.55074e+20
-41.3499  5.62581e+20
-41.2326  5.67496e+20
-41.1153  5.69138e+20
-40.998  5.67383e+20
-40.8807  5.6249e+20
-40.7634  5.55203e+20
-40.6461  5.46849e+20
-40.5288  5.38607e+20
-40.4115  5.32031e+20
-40.2942  5.2849e+20
-40.1769  5.28762e+20
-40.0596  5.33535e+20
-39.9423  5.43014e+20
-39.825  5.56604e+20
-39.7076  5.7357e+20
-39.5903  5.9241e+20
-39.473  6.11452e+20
-39.3557  6.28794e+20
-39.2384  6.42491e+20
-39.1211  6.50896e+20
-39.0038  6.52877e+20
-38.8865  6.48233e+20
-38.7692  6.37604e+20
-38.6519  6.22741e+20
-38.5346  6.05903e+20
-38.4173  5.90182e+20
-38.3  5.78515e+20
-38.1827  5.73525e+20
-38.0654  5.77137e+20
-37.9481  5.90106e+20
-37.8308  6.12247e+20
-37.7135  6.42028e+20
-37.5962  6.77207e+20
-37.4789  7.15231e+20
-37.3615  7.52918e+20
-37.2442  7.87812e+20
-37.1269  8.17784e+20
-37.0096  8.4122e+20
-36.8923  8.57652e+20
-36.775  8.66969e+20
-36.6577  8.70107e+20
-36.5404  8.68165e+20
-36.4231  8.62541e+20
-36.3058  8.55098e+20
-36.1885  8.47047e+20
-36.0712  8.39759e+20
-35.9539  8.33773e+20
-35.8366  8.29395e+20
-35.7193  8.26297e+20
-35.602  8.23639e+20
-35.4847  8.20174e+20
-35.3674  8.14726e+20
-35.2501  8.05838e+20
-35.1328  7.92644e+20
-35.0154  7.74905e+20
-34.8981  7.52768e+20
-34.7808  7.27081e+20
-34.6635  6.99382e+20
-34.5462  6.7154e+20
-34.4289  6.45389e+20
-34.3116  6.23072e+20
-34.1943  6.06207e+20
-34.077  5.96153e+20
-33.9597  5.93857e+20
-33.8424  5.99382e+20
-33.7251  6.12561e+20
-33.6078  6.32562e+20
-33.4905  6.58106e+20
-33.3732  6.87678e+20
-33.2559  7.19321e+20
-33.1386  7.51467e+20
-33.0213  7.82385e+20
-32.904  8.10843e+20
-32.7867  8.3638e+20
-32.6693  8.58733e+20
-32.552  8.78598e+20
-32.4347  8.9708e+20
-32.3174  9.15403e+20
-32.2001  9.35167e+20
-32.0828  9.57502e+20
-31.9655  9.83357e+20
-31.8482  1.01304e+21
-31.7309  1.046e+21
-31.6136  1.08163e+21
-31.4963  1.11851e+21
-31.379  1.15516e+21
-31.2617  1.18976e+21
-31.1444  1.22117e+21
-31.0271  1.2484e+21
-30.9098  1.27094e+21
-30.7925  1.28897e+21
-30.6752  1.30301e+21
-30.5579  1.31388e+21
-30.4406  1.32304e+21
-30.3232  1.3317e+21
-30.2059  1.34113e+21
-30.0886  1.3519e+21
-29.9713  1.36445e+21
-29.854  1.3786e+21
-29.7367  1.39368e+21
-29.6194  1.4088e+21
-29.5021  1.42278e+21
-29.3848  1.43473e+21
-29.2675  1.44399e+21
-29.1502  1.45029e+21
-29.0329  1.45383e+21
-28.9156  1.45559e+21
-28.7983  1.45664e+21
-28.681  1.4585e+21
-28.5637  1.46278e+21
-28.4464  1.47105e+21
-28.3291  1.4846e+21
-28.2118  1.50436e+21
-28.0944  1.53089e+21
-27.9771  1.5643e+21
-27.8598  1.60409e+21
-27.7425  1.64951e+21
-27.6252  1.69928e+21
-27.5079  1.75201e+21
-27.3906  1.8063e+21
-27.2733  1.86092e+21
-27.156  1.9154e+21
-27.0387  1.96948e+21
-26.9214  2.02382e+21
-26.8041  2.07962e+21
-26.6868  2.1382e+21
-26.5695  2.20093e+21
-26.4522  2.26868e+21
-26.3349  2.34201e+21
-26.2176  2.42013e+21
-26.1003  2.50208e+21
-25.983  2.58544e+21
-25.8657  2.66789e+21
-25.7483  2.74712e+21
-25.631  2.82062e+21
-25.5137  2.887e+21
-25.3964  2.94541e+21
-25.2791  2.99558e+21
-25.1618  3.03856e+21
-25.0445  3.07605e+21
-24.9272  3.11011e+21
-24.8099  3.14347e+21
-24.6926  3.17942e+21
-24.5753  3.22102e+21
-24.458  3.27132e+21
-24.3407  3.33268e+21
-24.2234  3.40718e+21
-24.1061  3.49511e+21
-23.9888  3.59574e+21
-23.8715  3.70718e+21
-23.7542  3.82608e+21
-23.6369  3.94827e+21
-23.5196  4.06936e+21
-23.4023  4.18521e+21
-23.2849  4.2924e+21
-23.1676  4.38866e+21
-23.0503  4.47338e+21
-22.933  4.54778e+21
-22.8157  4.61392e+21
-22.6984  4.67546e+21
-22.5811  4.73623e+21
-22.4638  4.80121e+21
-22.3465  4.87447e+21
-22.2292  4.96001e+21
-22.1119  5.06044e+21
-21.9946  5.1775e+21
-21.8773  5.31118e+21
-21.76  5.45932e+21
-21.6427  5.61853e+21
-21.5254  5.78336e+21
-21.4081  5.9482e+21
-21.2908  6.10593e+21
-21.1735  6.25067e+21
-21.0561  6.37758e+21
-20.9388  6.48335e+21
-20.8215  6.56744e+21
-20.7042  6.63153e+21
-20.5869  6.67932e+21
-20.4696  6.71687e+21
-20.3523  6.75105e+21
-20.235  6.78892e+21
-20.1177  6.83714e+21
-20.0004  6.90191e+21
-19.8831  6.98776e+21
-19.7658  7.09757e+21
-19.6485  7.2326e+21
-19.5312  7.39282e+21
-19.4139  7.57615e+21
-19.2966  7.77921e+21
-19.1793  7.99796e+21
-19.062  8.2265e+21
-18.9447  8.45896e+21
-18.8274  8.68925e+21
-18.71  8.9119e+21
-18.5927  9.12204e+21
-18.4754  9.31637e+21
-18.3581  9.49299e+21
-18.2408  9.65267e+21
-18.1235  9.79609e+21
-18.0062  9.92614e+21
-17.8889  1.00458e+22
-17.7716  1.01587e+22
-17.6543  1.02675e+22
-17.537  1.0375e+22
-17.4197  1.04824e+22
-17.3024  1.05911e+22
-17.1851  1.07018e+22
-17.0678  1.08146e+22
-16.9505  1.09297e+22
-16.8332  1.10478e+22
-16.7159  1.11697e+22
-16.5986  1.12963e+22
-16.4813  1.14293e+22
-16.364  1.15705e+22
-16.2466  1.17221e+22
-16.1293  1.18861e+22
-16.012  1.20643e+22
-15.8947  1.2258e+22
-15.7774  1.24682e+22
-15.6601  1.26948e+22
-15.5428  1.29364e+22
-15.4255  1.31904e+22
-15.3082  1.34533e+22
-15.1909  1.37207e+22
-15.0736  1.39873e+22
-14.9563  1.42476e+22
-14.839  1.4497e+22
-14.7217  1.4731e+22
-14.6044  1.49462e+22
-14.4871  1.51418e+22
-14.3698  1.53166e+22
-14.2525  1.54722e+22
-14.1352  1.56107e+22
-14.0178  1.57359e+22
-13.9005  1.58513e+22
-13.7832  1.59613e+22
-13.6659  1.60694e+22
-13.5486  1.61796e+22
-13.4313  1.62938e+22
-13.314  1.64137e+22
-13.1967  1.65399e+22
-13.0794  1.6672e+22
-12.9621  1.68082e+22
-12.8448  1.69468e+22
-12.7275  1.70851e+22
-12.6102  1.72216e+22
-12.4929  1.73543e+22
-12.3756  1.74823e+22
-12.2583  1.76057e+22
-12.141  1.77256e+22
-12.0237  1.78433e+22
-11.9064  1.79613e+22
-11.7891  1.80825e+22
-11.6718  1.82094e+22
-11.5544  1.83453e+22
-11.4371  1.84926e+22
-11.3198  1.86528e+22
-11.2025  1.88273e+22
-11.0852  1.90162e+22
-10.9679  1.92191e+22
-10.8506  1.94344e+22
-10.7333  1.96597e+22
-10.616  1.98917e+22
-10.4987  2.01276e+22
-10.3814  2.03632e+22
-10.2641  2.05952e+22
-10.1468  2.08205e+22
-10.0295  2.1037e+22
-9.91217  2.12425e+22
-9.79487  2.14367e+22
-9.67756  2.16189e+22
-9.56026  2.17897e+22
-9.44295  2.19496e+22
-9.32565  2.21e+22
-9.20834  2.22418e+22
-9.09104  2.2376e+22
-8.97373  2.25038e+22
-8.85643  2.26261e+22
-8.73913  2.27434e+22
-8.62182  2.2857e+22
-8.50452  2.29677e+22
-8.38721  2.30764e+22
-8.26991  2.31837e+22
-8.1526  2.32906e+22
-8.03529  2.33973e+22
-7.91799  2.35045e+22
-7.80069  2.36128e+22
-7.68338  2.37219e+22
-7.56608  2.38319e+22
-7.44877  2.39425e+22
-7.33146  2.40522e+22
-7.21416  2.41599e+22
-7.09685  2.42641e+22
-6.97955  2.43624e+22
-6.86224  2.44531e+22
-6.74494  2.45351e+22
-6.62763  2.46061e+22
-6.51033  2.46663e+22
-6.39302  2.47157e+22
-6.27572  2.47555e+22
-6.15842  2.4788e+22
-6.04111  2.48159e+22
-5.92381  2.48423e+22
-5.8065  2.48717e+22
-5.68919  2.49072e+22
-5.57189  2.49528e+22
-5.45458  2.50113e+22
-5.33728  2.50858e+22
-5.21997  2.51771e+22
-5.10267  2.52859e+22
-4.98536  2.54115e+22
-4.86806  2.55519e+22
-4.75075  2.57044e+22
-4.63345  2.58658e+22
-4.51614  2.60322e+22
-4.39884  2.61996e+22
-4.28154  2.63657e+22
-4.16423  2.65272e+22
-4.04692  2.66823e+22
-3.92962  2.68304e+22
-3.81231  2.69711e+22
-3.69501  2.71039e+22
-3.5777  2.72294e+22
-3.4604  2.73472e+22
-3.34309  2.74572e+22
-3.22579  2.75586e+22
-3.10849  2.76513e+22
-2.99118  2.77341e+22
-2.87387  2.78062e+22
-2.75657  2.7867e+22
-2.63926  2.7915e+22
-2.52196  2.79489e+22
-2.40465  2.79676e+22
-2.28735  2.79689e+22
-2.17005  2.79515e+22
-2.05274  2.79148e+22
-1.93544  2.78575e+22
-1.81813  2.77812e+22
-1.70083  2.76867e+22
-1.58352  2.75772e+22
-1.46622  2.7456e+22
-1.34891  2.73273e+22
-1.2316  2.71949e+22
-1.1143  2.70631e+22
-0.996995  2.69351e+22
-0.87969  2.68143e+22
-0.762385  2.67021e+22
-0.64508  2.66018e+22
-0.527775  2.65145e+22
-0.41047  2.64418e+22
-0.293165  2.63856e+22
-0.17586  2.63471e+22
-0.058555  2.63277e+22
0.05875  2.63275e+22
0.176055  2.63467e+22
0.29336  2.63845e+22
0.410665  2.64404e+22
0.52797  2.65122e+22
0.645275  2.65987e+22
0.76258  2.66982e+22
0.879885  2.6809e+22
0.99719  2.69285e+22
1.1145  2.70549e+22
1.2318  2.71848e+22
1.3491  2.73155e+22
1.46641  2.74421e+22
1.58371  2.75611e+22
1.70102  2.76683e+22
1.81832  2.77603e+22
1.93563  2.78342e+22
2.05294  2.78887e+22
2.17024  2.79233e+22
2.28754  2.79385e+22
2.40485  2.79349e+22
2.52216  2.79143e+22
2.63946  2.78783e+22
2.75677  2.78282e+22
2.87407  2.77656e+22
2.99137  2.76914e+22
3.10868  2.76065e+22
3.22599  2.7512e+22
3.34329  2.74086e+22
3.4606  2.7297e+22
3.5779  2.71772e+22
3.69521  2.70498e+22
3.81251  2.69153e+22
3.92982  2.67726e+22
4.04712  2.66227e+22
4.16443  2.64658e+22
4.28173  2.63026e+22
4.39903  2.6135e+22
4.51634  2.59658e+22
4.63364  2.57982e+22
4.75095  2.56353e+22
4.86825  2.54814e+22
4.98556  2.53397e+22
5.10286  2.52131e+22
5.22017  2.5103e+22
5.33748  2.50105e+22
5.45478  2.49351e+22
5.57209  2.48754e+22
5.68939  2.48284e+22
5.8067  2.47915e+22
5.924  2.47608e+22
6.0413  2.4733e+22
6.15861  2.47036e+22
6.27591  2.46696e+22
6.39322  2.46284e+22
6.51052  2.45777e+22
6.62783  2.4516e+22
6.74514  2.44435e+22
6.86244  2.43608e+22
6.97975  2.42688e+22
7.09705  2.41695e+22
7.21436  2.40646e+22
7.33166  2.39559e+22
7.44897  2.38454e+22
7.56627  2.37343e+22
7.68358  2.36235e+22
7.80088  2.35133e+22
7.91819  2.34041e+22
8.03549  2.32956e+22
8.1528  2.3188e+22
8.2701  2.30796e+22
8.38741  2.29707e+22
8.50471  2.28605e+22
8.62202  2.27479e+22
8.73932  2.26321e+22
8.85662  2.25129e+22
8.97393  2.23886e+22
9.09123  2.22587e+22
9.20854  2.21223e+22
9.32584  2.19786e+22
9.44315  2.18259e+22
9.56045  2.16638e+22
9.67776  2.14911e+22
9.79506  2.13071e+22
9.91237  2.11112e+22
10.0297  2.09041e+22
10.147  2.06864e+22
10.2643  2.04601e+22
10.3816  2.0227e+22
10.4989  1.99907e+22
10.6162  1.97544e+22
10.7335  1.95219e+22
10.8508  1.92965e+22
10.9681  1.90809e+22
11.0854  1.88781e+22
11.2027  1.86891e+22
11.32  1.85145e+22
11.4373  1.83542e+22
11.5546  1.82072e+22
11.6719  1.80711e+22
11.7893  1.7944e+22
11.9066  1.78231e+22
12.0239  1.77047e+22
12.1412  1.75869e+22
12.2585  1.74671e+22
12.3758  1.73436e+22
12.4931  1.72155e+22
12.6104  1.70825e+22
12.7277  1.6946e+22
12.845  1.68078e+22
12.9623  1.66691e+22
13.0796  1.65329e+22
13.1969  1.64009e+22
13.3142  1.62748e+22
13.4315  1.61544e+22
13.5488  1.60404e+22
13.6661  1.59302e+22
13.7834  1.58217e+22
13.9007  1.57116e+22
14.018  1.55959e+22
14.1354  1.54704e+22
14.2527  1.53312e+22
14.37  1.51752e+22
14.4873  1.49998e+22
14.6046  1.48038e+22
14.7219  1.45879e+22
14.8392  1.43535e+22
14.9565  1.41039e+22
15.0738  1.38433e+22
15.1911  1.35767e+22
15.3084  1.33093e+22
15.4257  1.30464e+22
15.543  1.27927e+22
15.6603  1.25513e+22
15.7776  1.23253e+22
15.8949  1.21154e+22
16.0122  1.19221e+22
16.1295  1.17445e+22
16.2468  1.15812e+22
16.3641  1.14301e+22
16.4815  1.12896e+22
16.5988  1.11575e+22
16.7161  1.10313e+22
16.8334  1.09105e+22
16.9507  1.07932e+22
17.068  1.06789e+22
17.1853  1.05669e+22
17.3026  1.0457e+22
17.4199  1.03491e+22
17.5372  1.02423e+22
17.6545  1.01355e+22
17.7718  1.00273e+22
17.8891  9.91497e+21
18.0064  9.79588e+21
18.1237  9.66635e+21
18.241  9.52355e+21
18.3583  9.36475e+21
18.4756  9.18864e+21
18.5929  8.99538e+21
18.7102  8.7865e+21
18.8275  8.56541e+21
18.9449  8.3366e+21
19.0622  8.10612e+21
19.1795  7.87956e+21
19.2968  7.66301e+21
19.4141  7.46198e+21
19.5314  7.28077e+21
19.6487  7.12259e+21
19.766  6.9894e+21
19.8833  6.88127e+21
20.0006  6.79676e+21
20.1179  6.73302e+21
20.2352  6.68566e+21
20.3525  6.64835e+21
20.4698  6.61468e+21
20.5871  6.57727e+21
20.7044  6.52946e+21
20.8217  6.4655e+21
20.939  6.38149e+21
21.0563  6.2757e+21
21.1736  6.14934e+21
21.291  6.00513e+21
21.4083  5.84813e+21
21.5256  5.68468e+21
21.6429  5.52102e+21
21.7602  5.36351e+21
21.8775  5.21707e+21
21.9948  5.08527e+21
22.1121  4.97002e+21
22.2294  4.87107e+21
22.3467  4.78723e+21
22.464  4.71551e+21
22.5813  4.65188e+21
22.6986  4.59231e+21
22.8159  4.53206e+21
22.9332  4.4669e+21
23.0505  4.39354e+21
23.1678  4.30969e+21
23.2851  4.21447e+21
23.4024  4.10839e+21
23.5198  3.99371e+21
23.6371  3.87388e+21
23.7544  3.75311e+21
23.8717  3.63573e+21
23.989  3.52578e+21
24.1063  3.42664e+21
24.2236  3.34037e+21
24.3409  3.26744e+21
24.4582  3.20748e+21
24.5755  3.15855e+21
24.6928  3.11818e+21
24.8101  3.08342e+21
24.9274  3.05113e+21
25.0447  3.01815e+21
25.162  2.98174e+21
25.2793  2.93968e+21
25.3966  2.89039e+21
25.5139  2.83312e+21
25.6312  2.76771e+21
25.7485  2.6951e+21
25.8658  2.61712e+21
25.9832  2.53562e+21
26.1005  2.45347e+21
26.2178  2.37294e+21
26.3351  2.29594e+21
26.4524  2.22398e+21
26.5697  2.15748e+21
26.687  2.09604e+21
26.8043  2.03875e+21
26.9216  1.98415e+21
27.0389  1.93094e+21
27.1562  1.878e+21
27.2735  1.82463e+21
27.3908  1.77112e+21
27.5081  1.718e+21
27.6254  1.66636e+21
27.7427  1.61772e+21
27.86  1.57339e+21
27.9773  1.53466e+21
28.0946  1.50232e+21
28.212  1.47674e+21
28.3293  1.45797e+21
28.4466  1.44524e+21
28.5639  1.43778e+21
28.6812  1.43418e+21
28.7985  1.4329e+21
28.9158  1.43247e+21
29.0331  1.43127e+21
29.1504  1.42824e+21
29.2677  1.42246e+21
29.385  1.41377e+21
29.5023  1.40237e+21
29.6196  1.38895e+21
29.7369  1.37449e+21
29.8542  1.36002e+21
29.9715  1.34659e+21
30.0888  1.33461e+21
30.2061  1.32441e+21
30.3234  1.3156e+21
30.4407  1.30743e+21
30.558  1.29877e+21
30.6754  1.28815e+21
30.7927  1.27464e+21
30.91  1.25708e+21
31.0273  1.23485e+21
31.1446  1.20801e+21
31.2619  1.17703e+21
31.3792  1.14276e+21
31.4965  1.1068e+21
31.6138  1.07056e+21
31.7311  1.03552e+21
31.8484  1.00309e+21
31.9657  9.74029e+20
32.083  9.48725e+20
32.2003  9.26862e+20
32.3176  9.07563e+20
32.4349  8.89563e+20
32.5522  8.71395e+20
32.6695  8.51709e+20
32.7868  8.29573e+20
32.9042  8.04328e+20
33.0215  7.76015e+20
33.1388  7.45376e+20
33.2561  7.13487e+20
33.3734  6.82202e+20
33.4907  6.53084e+20
33.608  6.27935e+20
33.7253  6.08378e+20
33.8426  5.9562e+20
33.9599  5.90529e+20
34.0772  5.93291e+20
34.1945  6.03653e+20
34.3118  6.2074e+20
34.4291  6.43228e+20
34.5464  6.69539e+20
34.6637  6.9758e+20
34.781  7.25226e+20
34.8983  7.50771e+20
35.0156  7.72812e+20
35.1329  7.90469e+20
35.2503  8.03497e+20
35.3676  8.12327e+20
35.4849  8.17809e+20
35.6022  8.21247e+20
35.7195  8.23986e+20
35.8368  8.27071e+20
35.9541  8.31486e+20
36.0714  8.37483e+20
36.1887  8.4492e+20
36.306  8.52963e+20
36.4233  8.60396e+20
36.5406  8.65857e+20
36.6579  8.67648e+20
36.7752  8.64264e+20
36.8925  8.54715e+20
37.0098  8.38087e+20
37.1271  8.14392e+20
37.2444  7.84325e+20
37.3617  7.49271e+20
37.479  7.11554e+20
37.5964  6.7362e+20
37.7137  6.38544e+20
37.831  6.08981e+20
37.9483  5.871e+20
38.0656  5.74426e+20
38.1829  5.71054e+20
38.3002  5.76195e+20
38.4175  5.88008e+20
38.5348  6.03652e+20
38.6521  6.20374e+20
38.7694  6.35069e+20
38.8867  6.45444e+20
39.004  6.49767e+20
39.1213  6.47496e+20
39.2386  6.38948e+20
39.3559  6.25113e+20
39.4732  6.0776e+20
39.5905  5.88691e+20
39.7078  5.69889e+20
39.8251  5.53062e+20
39.9425  5.39614e+20
40.0598  5.30392e+20
40.1771  5.25737e+20
40.2944  5.25539e+20
40.4117  5.29303e+20
40.529  5.35825e+20
40.6463  5.43987e+20
40.7636  5.52369e+20
40.8809  5.5951e+20
40.9982  5.64353e+20
41.1155  5.65927e+20
41.2328  5.64095e+20
41.3501  5.5903e+20
41.4674  5.51405e+20
41.5847  5.42235e+20
41.702  5.32486e+20
41.8193  5.23311e+20
41.9366  5.1514e+20
42.0539  5.0834e+20
42.1712  5.02758e+20
42.2885  4.97764e+20
42.4059  4.92865e+20
42.5232  4.87347e+20
42.6405  4.80772e+20
42.7578  4.72694e+20
42.8751  4.63147e+20
42.9924  4.52257e+20
43.1097  4.40241e+20
43.227  4.27181e+20
43.3443  4.13581e+20
43.4616  3.99541e+20
43.5789  3.85492e+20
43.6962  3.71701e+20
43.8135  3.58809e+20
43.9308  3.47234e+20
44.0481  3.37534e+20
44.1654  3.30148e+20
44.2827  3.25058e+20
44.4  3.22082e+20
44.5173  3.2068e+20
44.6347  3.20009e+20
44.752  3.19159e+20
44.8693  3.17376e+20
44.9866  3.14281e+20
45.1039  3.09767e+20
45.2212  3.04319e+20
45.3385  2.98721e+20
45.4558  2.93974e+20
45.5731  2.91146e+20
45.6904  2.9112e+20
45.8077  2.94222e+20
45.925  3.00628e+20
46.0423  3.09816e+20
46.1596  3.21035e+20
46.2769  3.33059e+20
46.3942  3.44735e+20
46.5115  3.54864e+20
46.6288  3.623e+20
46.7461  3.66349e+20
46.8634  3.66591e+20
46.9808  3.63014e+20
47.0981  3.56097e+20
47.2154  3.46678e+20
47.3327  3.36093e+20
47.45  3.25595e+20
47.5673  3.16667e+20
47.6846  3.1037e+20
47.8019  3.07338e+20
47.9192  3.07537e+20
48.0365  3.10478e+20
48.1538  3.14966e+20
48.2711  3.19512e+20
48.3884  3.22535e+20
48.5057  3.22762e+20
48.623  3.19234e+20
48.7403  3.11711e+20
48.8576  3.00476e+20
48.9749  2.86597e+20
49.0922  2.71428e+20
49.2095  2.56469e+20
49.3269  2.43153e+20
49.4442  2.32737e+20
49.5615  2.26003e+20
49.6788  2.23548e+20
49.7961  2.25263e+20
49.9134  2.30887e+20
50.0307  2.39764e+20
50.148  2.50975e+20
50.2653  2.63586e+20
50.3826  2.76487e+20
50.4999  2.88605e+20
50.6172  2.99056e+20
50.7345  3.07131e+20
50.8518  3.12334e+20
