#S 1 spectral density
#N 2
#UFWHM 4.5749
#L  abscissas [um]  spectral density
-58.5938  6.42213e+20
-58.4764  6.38165e+20
-58.3591  6.40071e+20
-58.2418  6.47087e+20
-58.1245  6.57197e+20
-58.0072  6.68065e+20
-57.8899  6.77055e+20
-57.7726  6.81541e+20
-57.6553  6.79156e+20
-57.538  6.68345e+20
-57.4207  6.48445e+20
-57.3034  6.194e+20
-57.1861  5.8216e+20
-57.0688  5.38346e+20
-56.9515  4.89982e+20
-56.8342  4.39207e+20
-56.7169  3.88504e+20
-56.5996  3.39976e+20
-56.4823  2.95514e+20
-56.365  2.56657e+20
-56.2477  2.24474e+20
-56.1303  1.99578e+20
-56.013  1.82051e+20
-55.8957  1.71674e+20
-55.7784  1.67614e+20
-55.6611  1.68832e+20
-55.5438  1.73968e+20
-55.4265  1.8143e+20
-55.3092  1.89669e+20
-55.1919  1.9726e+20
-55.0746  2.0307e+20
-54.9573  2.06372e+20
-54.84  2.06912e+20
-54.7227  2.05008e+20
-54.6054  2.01326e+20
-54.4881  1.97025e+20
-54.3708  1.93402e+20
-54.2535  1.91808e+20
-54.1362  1.93467e+20
-54.0189  1.9936e+20
-53.9016  2.10017e+20
-53.7842  2.25546e+20
-53.6669  2.45341e+20
-53.5496  2.68381e+20
-53.4323  2.92898e+20
-53.315  3.16909e+20
-53.1977  3.3824e+20
-53.0804  3.54956e+20
-52.9631  3.65574e+20
-52.8458  3.69646e+20
-52.7285  3.67945e+20
-52.6112  3.62185e+20
-52.4939  3.55345e+20
-52.3766  3.50732e+20
-52.2593  3.51978e+20
-52.142  3.61567e+20
-52.0247  3.80898e+20
-51.9074  4.09579e+20
-51.7901  4.45362e+20
-51.6728  4.84595e+20
-51.5555  5.22546e+20
-51.4381  5.54514e+20
-51.3208  5.76555e+20
-51.2035  5.86166e+20
-51.0862  5.82899e+20
-50.9689  5.68334e+20
-50.8516  5.45549e+20
-50.7343  5.18797e+20
-50.617  4.92487e+20
-50.4997  4.70463e+20
-50.3824  4.55405e+20
-50.2651  4.48356e+20
-50.1478  4.49101e+20
-50.0305  4.56263e+20
-49.9132  4.67475e+20
-49.7959  4.80664e+20
-49.6786  4.94028e+20
-49.5613  5.06316e+20
-49.444  5.17137e+20
-49.3267  5.26729e+20
-49.2094  5.35605e+20
-49.092  5.44358e+20
-48.9747  5.53241e+20
-48.8574  5.62645e+20
-48.7401  5.72182e+20
-48.6228  5.81763e+20
-48.5055  5.91541e+20
-48.3882  6.01581e+20
-48.2709  6.1274e+20
-48.1536  6.25751e+20
-48.0363  6.41745e+20
-47.919  6.61271e+20
-47.8017  6.84561e+20
-47.6844  7.10662e+20
-47.5671  7.38255e+20
-47.4498  7.64828e+20
-47.3325  7.88013e+20
-47.2152  8.05486e+20
-47.0979  8.15506e+20
-46.9806  8.17618e+20
-46.8633  8.12412e+20
-46.7459  8.01783e+20
-46.6286  7.88463e+20
-46.5113  7.75742e+20
-46.394  7.6644e+20
-46.2767  7.62976e+20
-46.1594  7.66177e+20
-46.0421  7.75853e+20
-45.9248  7.90069e+20
-45.8075  8.05576e+20
-45.6902  8.18731e+20
-45.5729  8.2519e+20
-45.4556  8.21562e+20
-45.3383  8.0508e+20
-45.221  7.74605e+20
-45.1037  7.30471e+20
-44.9864  6.74644e+20
-44.8691  6.10662e+20
-44.7518  5.42767e+20
-44.6345  4.75383e+20
-44.5172  4.12756e+20
-44.3998  3.58382e+20
-44.2825  3.14297e+20
-44.1652  2.81697e+20
-44.0479  2.60321e+20
-43.9306  2.49198e+20
-43.8133  2.46798e+20
-43.696  2.51302e+20
-43.5787  2.61003e+20
-43.4614  2.74077e+20
-43.3441  2.88955e+20
-43.2268  3.03661e+20
-43.1095  3.16591e+20
-42.9922  3.25937e+20
-42.8749  3.30378e+20
-42.7576  3.29431e+20
-42.6403  3.23719e+20
-42.523  3.15231e+20
-42.4057  3.07393e+20
-42.2884  3.04381e+20
-42.171  3.10524e+20
-42.0537  3.2925e+20
-41.9364  3.62054e+20
-41.8191  4.08134e+20
-41.7018  4.63378e+20
-41.5845  5.21721e+20
-41.4672  5.75247e+20
-41.3499  6.16217e+20
-41.2326  6.38129e+20
-41.1153  6.37145e+20
-40.998  6.13195e+20
-40.8807  5.69684e+20
-40.7634  5.13296e+20
-40.6461  4.52587e+20
-40.5288  3.96554e+20
-40.4115  3.53032e+20
-40.2942  3.27523e+20
-40.1769  3.22296e+20
-40.0596  3.36256e+20
-39.9423  3.65437e+20
-39.825  4.03878e+20
-39.7076  4.4471e+20
-39.5903  4.81261e+20
-39.473  5.08161e+20
-39.3557  5.21739e+20
-39.2384  5.20627e+20
-39.1211  5.0541e+20
-39.0038  4.78604e+20
-38.8865  4.43859e+20
-38.7692  4.05479e+20
-38.6519  3.68121e+20
-38.5346  3.35785e+20
-38.4173  3.11664e+20
-38.3  2.97649e+20
-38.1827  2.94409e+20
-38.0654  3.01015e+20
-37.9481  3.15348e+20
-37.8308  3.34542e+20
-37.7135  3.55143e+20
-37.5962  3.73738e+20
-37.4789  3.8758e+20
-37.3615  3.94547e+20
-37.2442  3.93903e+20
-37.1269  3.85796e+20
-37.0096  3.71344e+20
-36.8923  3.52523e+20
-36.775  3.31402e+20
-36.6577  3.10329e+20
-36.5404  2.91602e+20
-36.4231  2.77369e+20
-36.3058  2.69777e+20
-36.1885  2.70904e+20
-36.0712  2.8292e+20
-35.9539  3.07887e+20
-35.8366  3.47449e+20
-35.7193  4.02444e+20
-35.602  4.72419e+20
-35.4847  5.5532e+20
-35.3674  6.47272e+20
-35.2501  7.42577e+20
-35.1328  8.34488e+20
-35.0154  9.16134e+20
-34.8981  9.81241e+20
-34.7808  1.02588e+21
-34.6635  1.0487e+21
-34.5462  1.05165e+21
-34.4289  1.03996e+21
-34.3116  1.02093e+21
-34.1943  1.0028e+21
-34.077  9.93044e+20
-33.9597  9.97372e+20
-33.8424  1.01774e+21
-33.7251  1.05296e+21
-33.6078  1.09803e+21
-33.4905  1.14537e+21
-33.3732  1.18686e+21
-33.2559  1.2142e+21
-33.1386  1.22129e+21
-33.0213  1.20524e+21
-32.904  1.16583e+21
-32.7867  1.10644e+21
-32.6693  1.032e+21
-32.552  9.49085e+20
-32.4347  8.64078e+20
-32.3174  7.82499e+20
-32.2001  7.08389e+20
-32.0828  6.44178e+20
-31.9655  5.90803e+20
-31.8482  5.48333e+20
-31.7309  5.15979e+20
-31.6136  4.92854e+20
-31.4963  4.7779e+20
-31.379  4.69764e+20
-31.2617  4.6738e+20
-31.1444  4.69263e+20
-31.0271  4.73545e+20
-30.9098  4.78524e+20
-30.7925  4.82603e+20
-30.6752  4.84682e+20
-30.5579  4.84207e+20
-30.4406  4.81805e+20
-30.3232  4.78818e+20
-30.2059  4.76975e+20
-30.0886  4.78383e+20
-29.9713  4.84729e+20
-29.854  4.97006e+20
-29.7367  5.1488e+20
-29.6194  5.37243e+20
-29.5021  5.61789e+20
-29.3848  5.85612e+20
-29.2675  6.05735e+20
-29.1502  6.1943e+20
-29.0329  6.24933e+20
-28.9156  6.21223e+20
-28.7983  6.08442e+20
-28.681  5.87811e+20
-28.5637  5.61021e+20
-28.4464  5.30156e+20
-28.3291  4.97614e+20
-28.2118  4.6505e+20
-28.0944  4.34104e+20
-27.9771  4.05677e+20
-27.8598  3.80196e+20
-27.7425  3.57754e+20
-27.6252  3.38084e+20
-27.5079  3.20764e+20
-27.3906  3.0548e+20
-27.2733  2.91895e+20
-27.156  2.79821e+20
-27.0387  2.69234e+20
-26.9214  2.60144e+20
-26.8041  2.52712e+20
-26.6868  2.47067e+20
-26.5695  2.43273e+20
-26.4522  2.41475e+20
-26.3349  2.41489e+20
-26.2176  2.43261e+20
-26.1003  2.46641e+20
-25.983  2.5151e+20
-25.8657  2.57594e+20
-25.7483  2.64792e+20
-25.631  2.73002e+20
-25.5137  2.81919e+20
-25.3964  2.91411e+20
-25.2791  3.01204e+20
-25.1618  3.11005e+20
-25.0445  3.20572e+20
-24.9272  3.29809e+20
-24.8099  3.38832e+20
-24.6926  3.48014e+20
-24.5753  3.58059e+20
-24.458  3.69784e+20
-24.3407  3.84389e+20
-24.2234  4.02676e+20
-24.1061  4.25292e+20
-23.9888  4.52216e+20
-23.8715  4.82727e+20
-23.7542  5.15235e+20
-23.6369  5.47871e+20
-23.5196  5.78132e+20
-23.4023  6.03658e+20
-23.2849  6.22614e+20
-23.1676  6.3413e+20
-23.0503  6.38209e+20
-22.933  6.36321e+20
-22.8157  6.3059e+20
-22.6984  6.24216e+20
-22.5811  6.2045e+20
-22.4638  6.22517e+20
-22.3465  6.32969e+20
-22.2292  6.53483e+20
-22.1119  6.84574e+20
-21.9946  7.25734e+20
-21.8773  7.75608e+20
-21.76  8.31979e+20
-21.6427  8.91811e+20
-21.5254  9.524e+20
-21.4081  1.01058e+21
-21.2908  1.06374e+21
-21.1735  1.10935e+21
-21.0561  1.14592e+21
-20.9388  1.17229e+21
-20.8215  1.1882e+21
-20.7042  1.19412e+21
-20.5869  1.19107e+21
-20.4696  1.18068e+21
-20.3523  1.16505e+21
-20.235  1.14609e+21
-20.1177  1.12587e+21
-20.0004  1.10598e+21
-19.8831  1.08763e+21
-19.7658  1.07125e+21
-19.6485  1.05721e+21
-19.5312  1.04486e+21
-19.4139  1.03382e+21
-19.2966  1.02377e+21
-19.1793  1.01383e+21
-19.062  1.00373e+21
-18.9447  9.93767e+20
-18.8274  9.83475e+20
-18.71  9.7337e+20
-18.5927  9.63461e+20
-18.4754  9.5381e+20
-18.3581  9.44869e+20
-18.2408  9.36255e+20
-18.1235  9.28794e+20
-18.0062  9.23017e+20
-17.8889  9.2003e+20
-17.7716  9.21866e+20
-17.6543  9.30139e+20
-17.537  9.474e+20
-17.4197  9.75601e+20
-17.3024  1.01605e+21
-17.1851  1.06873e+21
-17.0678  1.13254e+21
-16.9505  1.20442e+21
-16.8332  1.27986e+21
-16.7159  1.35335e+21
-16.5986  1.41891e+21
-16.4813  1.47064e+21
-16.364  1.50393e+21
-16.2466  1.51585e+21
-16.1293  1.50525e+21
-16.012  1.47335e+21
-15.8947  1.42312e+21
-15.7774  1.35871e+21
-15.6601  1.28536e+21
-15.5428  1.20817e+21
-15.4255  1.1321e+21
-15.3082  1.06124e+21
-15.1909  9.98395e+20
-15.0736  9.45893e+20
-14.9563  9.04712e+20
-14.839  8.75017e+20
-14.7217  8.56498e+20
-14.6044  8.47865e+20
-14.4871  8.47357e+20
-14.3698  8.53211e+20
-14.2525  8.63464e+20
-14.1352  8.76157e+20
-14.0178  8.89785e+20
-13.9005  9.03465e+20
-13.7832  9.17125e+20
-13.6659  9.31208e+20
-13.5486  9.46482e+20
-13.4313  9.64009e+20
-13.314  9.84439e+20
-13.1967  1.00798e+21
-13.0794  1.03367e+21
-12.9621  1.06023e+21
-12.8448  1.08548e+21
-12.7275  1.10772e+21
-12.6102  1.12542e+21
-12.4929  1.13857e+21
-12.3756  1.1483e+21
-12.2583  1.15707e+21
-12.141  1.16871e+21
-12.0237  1.18744e+21
-11.9064  1.21744e+21
-11.7891  1.26196e+21
-11.6718  1.32265e+21
-11.5544  1.39979e+21
-11.4371  1.4921e+21
-11.3198  1.59731e+21
-11.2025  1.71232e+21
-11.0852  1.83432e+21
-10.9679  1.96092e+21
-10.8506  2.09064e+21
-10.7333  2.22238e+21
-10.616  2.35626e+21
-10.4987  2.49174e+21
-10.3814  2.62864e+21
-10.2641  2.76676e+21
-10.1468  2.90542e+21
-10.0295  3.04444e+21
-9.91217  3.18492e+21
-9.79487  3.32842e+21
-9.67756  3.47843e+21
-9.56026  3.64057e+21
-9.44295  3.8204e+21
-9.32565  4.02373e+21
-9.20834  4.25547e+21
-9.09104  4.51793e+21
-8.97373  4.81016e+21
-8.85643  5.12703e+21
-8.73913  5.46124e+21
-8.62182  5.80179e+21
-8.50452  6.13604e+21
-8.38721  6.45277e+21
-8.26991  6.7409e+21
-8.1526  6.99405e+21
-8.03529  7.20814e+21
-7.91799  7.38379e+21
-7.80069  7.52371e+21
-7.68338  7.63416e+21
-7.56608  7.72149e+21
-7.44877  7.79328e+21
-7.33146  7.85546e+21
-7.21416  7.91318e+21
-7.09685  7.97008e+21
-6.97955  8.02991e+21
-6.86224  8.09384e+21
-6.74494  8.1635e+21
-6.62763  8.23948e+21
-6.51033  8.32379e+21
-6.39302  8.41555e+21
-6.27572  8.51563e+21
-6.15842  8.62342e+21
-6.04111  8.73742e+21
-5.92381  8.85575e+21
-5.8065  8.97616e+21
-5.68919  9.09665e+21
-5.57189  9.21508e+21
-5.45458  9.33089e+21
-5.33728  9.4426e+21
-5.21997  9.5501e+21
-5.10267  9.65347e+21
-4.98536  9.75266e+21
-4.86806  9.84668e+21
-4.75075  9.93522e+21
-4.63345  1.00166e+22
-4.51614  1.00908e+22
-4.39884  1.01559e+22
-4.28154  1.02138e+22
-4.16423  1.02677e+22
-4.04692  1.03224e+22
-3.92962  1.03854e+22
-3.81231  1.0469e+22
-3.69501  1.05856e+22
-3.5777  1.07513e+22
-3.4604  1.09818e+22
-3.34309  1.12929e+22
-3.22579  1.16991e+22
-3.10849  1.22128e+22
-2.99118  1.28418e+22
-2.87387  1.35903e+22
-2.75657  1.44577e+22
-2.63926  1.54385e+22
-2.52196  1.65227e+22
-2.40465  1.76969e+22
-2.28735  1.89451e+22
-2.17005  2.02497e+22
-2.05274  2.15921e+22
-1.93544  2.29553e+22
-1.81813  2.43222e+22
-1.70083  2.5678e+22
-1.58352  2.701e+22
-1.46622  2.83052e+22
-1.34891  2.95521e+22
-1.2316  3.07419e+22
-1.1143  3.18624e+22
-0.996995  3.2904e+22
-0.87969  3.38583e+22
-0.762385  3.47139e+22
-0.64508  3.54636e+22
-0.527775  3.61005e+22
-0.41047  3.6617e+22
-0.293165  3.70086e+22
-0.17586  3.72736e+22
-0.058555  3.74083e+22
0.05875  3.7412e+22
0.176055  3.72846e+22
0.29336  3.70283e+22
0.410665  3.66438e+22
0.52797  3.61349e+22
0.645275  3.55061e+22
0.76258  3.47649e+22
0.879885  3.39166e+22
0.99719  3.29708e+22
1.1145  3.19361e+22
1.2318  3.08228e+22
1.3491  2.96388e+22
1.46641  2.83969e+22
1.58371  2.71053e+22
1.70102  2.5776e+22
1.81832  2.44214e+22
1.93563  2.30541e+22
2.05294  2.169e+22
2.17024  2.03453e+22
2.28754  1.90376e+22
2.40485  1.77854e+22
2.52216  1.66066e+22
2.63946  1.55174e+22
2.75677  1.45312e+22
2.87407  1.36583e+22
2.99137  1.29043e+22
3.10868  1.22695e+22
3.22599  1.17504e+22
3.34329  1.13388e+22
3.4606  1.10221e+22
3.5779  1.07865e+22
3.69521  1.06159e+22
3.81251  1.04943e+22
3.92982  1.04062e+22
4.04712  1.03388e+22
4.16443  1.02809e+22
4.28173  1.02238e+22
4.39903  1.01628e+22
4.51634  1.00953e+22
4.63364  1.00197e+22
4.75095  9.93696e+21
4.86825  9.8472e+21
4.98556  9.75257e+21
5.10286  9.65345e+21
5.22017  9.54946e+21
5.33748  9.44193e+21
5.45478  9.33028e+21
5.57209  9.21465e+21
5.68939  9.09636e+21
5.8067  8.97598e+21
5.924  8.85588e+21
6.0413  8.73862e+21
6.15861  8.62529e+21
6.27591  8.51871e+21
6.39322  8.41982e+21
6.51052  8.32907e+21
6.62783  8.24645e+21
6.74514  8.17134e+21
6.86244  8.10344e+21
6.97975  8.04089e+21
7.09705  7.98263e+21
7.21436  7.9265e+21
7.33166  7.86993e+21
7.44897  7.80866e+21
7.56627  7.73762e+21
7.68358  7.65025e+21
7.80088  7.53979e+21
7.91819  7.39903e+21
8.03549  7.22264e+21
8.1528  7.00749e+21
8.2701  6.75334e+21
8.38741  6.46403e+21
8.50471  6.14688e+21
8.62202  5.81261e+21
8.73932  5.4723e+21
8.85662  5.13886e+21
8.97393  4.8227e+21
9.09123  4.53186e+21
9.20854  4.27073e+21
9.32584  4.04016e+21
9.44315  3.83755e+21
9.56045  3.6583e+21
9.67776  3.49612e+21
9.79506  3.34527e+21
9.91237  3.20125e+21
10.0297  3.05952e+21
10.147  2.91891e+21
10.2643  2.77841e+21
10.3816  2.63846e+21
10.4989  2.49941e+21
10.6162  2.36196e+21
10.7335  2.22602e+21
10.8508  2.09218e+21
10.9681  1.96068e+21
11.0854  1.83242e+21
11.2027  1.70918e+21
11.32  1.59312e+21
11.4373  1.48744e+21
11.5546  1.39476e+21
11.6719  1.31785e+21
11.7893  1.25754e+21
11.9066  1.21355e+21
12.0239  1.18422e+21
12.1412  1.16603e+21
12.2585  1.15482e+21
12.3758  1.14649e+21
12.4931  1.13715e+21
12.6104  1.12442e+21
12.7277  1.10698e+21
12.845  1.08524e+21
12.9623  1.06056e+21
13.0796  1.03463e+21
13.1969  1.00981e+21
13.3142  9.87069e+20
13.4315  9.67376e+20
13.5488  9.50679e+20
13.6661  9.36007e+20
13.7834  9.2255e+20
13.9007  9.09356e+20
14.018  8.95986e+20
14.1354  8.82703e+20
14.2527  8.7021e+20
14.37  8.60204e+20
14.4873  8.54613e+20
14.6046  8.55255e+20
14.7219  8.64167e+20
14.8392  8.82968e+20
14.9565  9.12651e+20
15.0738  9.53921e+20
15.1911  1.00633e+21
15.3084  1.06895e+21
15.4257  1.13962e+21
15.543  1.21518e+21
15.6603  1.29168e+21
15.7776  1.364e+21
15.8949  1.42714e+21
16.0122  1.47589e+21
16.1295  1.50624e+21
16.2468  1.51513e+21
16.3641  1.50165e+21
16.4815  1.46687e+21
16.5988  1.41388e+21
16.7161  1.34744e+21
16.8334  1.27338e+21
16.9507  1.19785e+21
17.068  1.1261e+21
17.1853  1.06275e+21
17.3026  1.01061e+21
17.4199  9.71074e+20
17.5372  9.43829e+20
17.6545  9.27365e+20
17.7718  9.19939e+20
17.8891  9.19079e+20
18.0064  9.22825e+20
18.1237  9.29101e+20
18.241  9.37328e+20
18.3583  9.46405e+20
18.4756  9.55954e+20
18.5929  9.65929e+20
18.7102  9.76438e+20
18.8275  9.86789e+20
18.9449  9.97355e+20
19.0622  1.00767e+21
19.1795  1.01777e+21
19.2968  1.02791e+21
19.4141  1.03805e+21
19.5314  1.04903e+21
19.6487  1.06143e+21
19.766  1.07552e+21
19.8833  1.09177e+21
20.0006  1.11e+21
20.1179  1.12961e+21
20.2352  1.14943e+21
20.3525  1.1678e+21
20.4698  1.18294e+21
20.5871  1.19252e+21
20.7044  1.19478e+21
20.8217  1.18819e+21
20.939  1.17144e+21
21.0563  1.14432e+21
21.1736  1.10721e+21
21.291  1.06096e+21
21.4083  1.00765e+21
21.5256  9.49278e+20
21.6429  8.88788e+20
21.7602  8.29071e+20
21.8775  7.73247e+20
21.9948  7.23876e+20
22.1121  6.83233e+20
22.2294  6.52689e+20
22.3467  6.32845e+20
22.464  6.22966e+20
22.5813  6.21225e+20
22.6986  6.25251e+20
22.8159  6.31585e+20
22.9332  6.37139e+20
23.0505  6.38782e+20
23.1678  6.34195e+20
23.2851  6.22237e+20
23.4024  6.02805e+20
23.5198  5.76915e+20
23.6371  5.46336e+20
23.7544  5.136e+20
23.8717  4.80965e+20
23.989  4.50621e+20
24.1063  4.23906e+20
24.2236  4.0153e+20
24.3409  3.83503e+20
24.4582  3.69222e+20
24.5755  3.57669e+20
24.6928  3.47874e+20
24.8101  3.38921e+20
24.9274  3.30116e+20
25.0447  3.21026e+20
25.162  3.11559e+20
25.2793  3.019e+20
25.3966  2.9222e+20
25.5139  2.82785e+20
25.6312  2.73884e+20
25.7485  2.65723e+20
25.8658  2.58577e+20
25.9832  2.52439e+20
26.1005  2.47627e+20
26.2178  2.44202e+20
26.3351  2.42434e+20
26.4524  2.42459e+20
26.5697  2.443e+20
26.687  2.48086e+20
26.8043  2.53737e+20
26.9216  2.61112e+20
27.0389  2.70147e+20
27.1562  2.80674e+20
27.2735  2.92581e+20
27.3908  3.06118e+20
27.5081  3.21224e+20
27.6254  3.38473e+20
27.7427  3.58102e+20
27.86  3.80499e+20
27.9773  4.05978e+20
28.0946  4.34408e+20
28.212  4.65308e+20
28.3293  4.9777e+20
28.4466  5.30339e+20
28.5639  5.61038e+20
28.6812  5.876e+20
28.7985  6.07971e+20
28.9158  6.20383e+20
29.0331  6.23741e+20
29.1504  6.18077e+20
29.2677  6.04113e+20
29.385  5.84017e+20
29.5023  5.6025e+20
29.6196  5.36e+20
29.7369  5.14036e+20
29.8542  4.96693e+20
29.9715  4.85045e+20
30.0888  4.79092e+20
30.2061  4.78168e+20
30.3234  4.80314e+20
30.4407  4.83548e+20
30.558  4.86064e+20
30.6754  4.86401e+20
30.7927  4.84425e+20
30.91  4.80303e+20
31.0273  4.75252e+20
31.1446  4.70948e+20
31.2619  4.69145e+20
31.3792  4.71562e+20
31.4965  4.79645e+20
31.6138  4.94743e+20
31.7311  5.17977e+20
31.8484  5.50352e+20
31.9657  5.9288e+20
32.083  6.46252e+20
32.2003  7.10445e+20
32.3176  7.84529e+20
32.4349  8.6598e+20
32.5522  9.50662e+20
32.6695  1.03317e+21
32.7868  1.10696e+21
32.9042  1.16562e+21
33.0215  1.20409e+21
33.1388  1.21941e+21
33.2561  1.21151e+21
33.3734  1.18384e+21
33.4907  1.14226e+21
33.608  1.09501e+21
33.7253  1.05079e+21
33.8426  1.01645e+21
33.9599  9.97114e+20
34.0772  9.9392e+20
34.1945  1.0045e+21
34.3118  1.02334e+21
34.4291  1.04255e+21
34.5464  1.05422e+21
34.6637  1.05059e+21
34.781  1.02719e+21
34.8983  9.81745e+20
35.0156  9.15746e+20
35.1329  8.33423e+20
35.2503  7.41031e+20
35.3676  6.45436e+20
35.4849  5.53458e+20
35.6022  4.70614e+20
35.7195  4.00832e+20
35.8368  3.46189e+20
35.9541  3.06893e+20
36.0714  2.82265e+20
36.1887  2.70471e+20
36.306  2.6957e+20
36.4233  2.77371e+20
36.5406  2.91742e+20
36.6579  3.10524e+20
36.7752  3.31615e+20
36.8925  3.52624e+20
37.0098  3.71332e+20
37.1271  3.85468e+20
37.2444  3.93301e+20
37.3617  3.93736e+20
37.479  3.86473e+20
37.5964  3.72558e+20
37.7137  3.53889e+20
37.831  3.3347e+20
37.9483  3.14588e+20
38.0656  3.00657e+20
38.1829  2.94678e+20
38.3002  2.98515e+20
38.4175  3.13082e+20
38.5348  3.37697e+20
38.6521  3.70387e+20
38.7694  4.07843e+20
38.8867  4.46105e+20
39.004  4.80632e+20
39.1213  5.06904e+20
39.2386  5.21451e+20
39.3559  5.21738e+20
39.4732  5.07401e+20
39.5905  4.79748e+20
39.7078  4.42694e+20
39.8251  4.01567e+20
39.9425  3.63234e+20
40.0598  3.34416e+20
40.1771  3.21082e+20
40.2944  3.27188e+20
40.4117  3.53547e+20
40.529  3.97867e+20
40.6463  4.54437e+20
40.7636  5.1538e+20
40.8809  5.71594e+20
40.9982  6.14541e+20
41.1155  6.37721e+20
41.2328  6.3775e+20
41.3501  6.15016e+20
41.4674  5.73331e+20
41.5847  5.19326e+20
41.702  4.60912e+20
41.8193  4.05939e+20
41.9366  3.60425e+20
42.0539  3.28251e+20
42.1712  3.10315e+20
42.2885  3.04783e+20
42.4059  3.08285e+20
42.5232  3.16415e+20
42.6405  3.25069e+20
42.7578  3.30647e+20
42.8751  3.31402e+20
42.9924  3.26739e+20
43.1097  3.17178e+20
43.227  3.04078e+20
43.3443  2.89125e+20
43.4616  2.74148e+20
43.5789  2.61e+20
43.6962  2.51286e+20
43.8135  2.46749e+20
43.9308  2.49314e+20
44.0481  2.60593e+20
44.1654  2.82235e+20
44.2827  3.15178e+20
44.4  3.59569e+20
44.5173  4.14307e+20
44.6347  4.7713e+20
44.752  5.44669e+20
44.8693  6.12585e+20
44.9866  6.76444e+20
45.1039  7.31849e+20
45.2212  7.75642e+20
45.3385  8.05659e+20
45.4558  8.21718e+20
45.5731  8.2496e+20
45.6904  8.18258e+20
45.8077  8.05055e+20
45.925  7.89698e+20
46.0423  7.7587e+20
46.1596  7.66637e+20
46.2769  7.63735e+20
46.3942  7.67768e+20
46.5115  7.77372e+20
46.6288  7.90416e+20
46.7461  8.03794e+20
46.8634  8.14422e+20
46.9808  8.1941e+20
47.0981  8.17031e+20
47.2154  8.06512e+20
47.3327  7.88666e+20
47.45  7.65031e+20
47.5673  7.38027e+20
47.6846  7.10224e+20
47.8019  6.83804e+20
47.9192  6.60354e+20
48.0365  6.40631e+20
48.1538  6.24415e+20
48.2711  6.11323e+20
48.3884  6.00098e+20
48.5057  5.89913e+20
48.623  5.80184e+20
48.7403  5.70421e+20
48.8576  5.60944e+20
48.9749  5.51751e+20
49.0922  5.42998e+20
49.2095  5.34392e+20
49.3269  5.25782e+20
49.4442  5.1643e+20
49.5615  5.05806e+20
49.6788  4.93684e+20
49.7961  4.80586e+20
49.9134  4.67634e+20
50.0307  4.56675e+20
50.148  4.49896e+20
50.2653  4.49475e+20
50.3826  4.569e+20
50.4999  4.72266e+20
50.6172  4.94536e+20
50.7345  5.20992e+20
50.8518  5.47678e+20
