#S 1 spectral density
#N 2
#UFWHM 14.4285
#L  abscissas [um]  spectral density
-58.5938  6.20171e+19
-58.4764  5.84097e+19
-58.3591  5.60623e+19
-58.2418  5.48615e+19
-58.1245  5.46987e+19
-58.0072  5.55126e+19
-57.8899  5.72124e+19
-57.7726  5.97097e+19
-57.6553  6.28612e+19
-57.538  6.63922e+19
-57.4207  6.98913e+19
-57.3034  7.29077e+19
-57.1861  7.49233e+19
-57.0688  7.55994e+19
-56.9515  7.47111e+19
-56.8342  7.2431e+19
-56.7169  6.90946e+19
-56.5996  6.52926e+19
-56.4823  6.16455e+19
-56.365  5.88075e+19
-56.2477  5.71769e+19
-56.1303  5.70388e+19
-56.013  5.83774e+19
-55.8957  6.10774e+19
-55.7784  6.48558e+19
-55.6611  6.9487e+19
-55.5438  7.47377e+19
-55.4265  8.0263e+19
-55.3092  8.58987e+19
-55.1919  9.13427e+19
-55.0746  9.62388e+19
-54.9573  1.00307e+20
-54.84  1.03133e+20
-54.7227  1.04555e+20
-54.6054  1.04407e+20
-54.4881  1.02819e+20
-54.3708  1.00093e+20
-54.2535  9.6582e+19
-54.1362  9.27118e+19
-54.0189  8.89252e+19
-53.9016  8.5413e+19
-53.7842  8.22152e+19
-53.6669  7.93114e+19
-53.5496  7.65864e+19
-53.4323  7.38599e+19
-53.315  7.11511e+19
-53.1977  6.84738e+19
-53.0804  6.59741e+19
-52.9631  6.38943e+19
-52.8458  6.24073e+19
-52.7285  6.16076e+19
-52.6112  6.15644e+19
-52.4939  6.21704e+19
-52.3766  6.33559e+19
-52.2593  6.50024e+19
-52.142  6.71635e+19
-52.0247  6.98564e+19
-51.9074  7.33069e+19
-51.7901  7.76318e+19
-51.6728  8.29473e+19
-51.5555  8.92093e+19
-51.4381  9.61954e+19
-51.3208  1.03485e+20
-51.2035  1.10593e+20
-51.0862  1.17028e+20
-50.9689  1.22363e+20
-50.8516  1.2634e+20
-50.7343  1.28857e+20
-50.617  1.30064e+20
-50.4997  1.30238e+20
-50.3824  1.29637e+20
-50.2651  1.28671e+20
-50.1478  1.27552e+20
-50.0305  1.26498e+20
-49.9132  1.25625e+20
-49.7959  1.24969e+20
-49.6786  1.24548e+20
-49.5613  1.24413e+20
-49.444  1.24583e+20
-49.3267  1.25089e+20
-49.2094  1.25997e+20
-49.092  1.27313e+20
-48.9747  1.29009e+20
-48.8574  1.31045e+20
-48.7401  1.3336e+20
-48.6228  1.35812e+20
-48.5055  1.38287e+20
-48.3882  1.40663e+20
-48.2709  1.42713e+20
-48.1536  1.442e+20
-48.0363  1.44986e+20
-47.919  1.44911e+20
-47.8017  1.439e+20
-47.6844  1.41969e+20
-47.5671  1.39358e+20
-47.4498  1.36346e+20
-47.3325  1.33265e+20
-47.2152  1.30554e+20
-47.0979  1.28507e+20
-46.9806  1.27341e+20
-46.8633  1.27086e+20
-46.7459  1.27748e+20
-46.6286  1.2908e+20
-46.5113  1.30879e+20
-46.394  1.32955e+20
-46.2767  1.35164e+20
-46.1594  1.37442e+20
-46.0421  1.39785e+20
-45.9248  1.42228e+20
-45.8075  1.44777e+20
-45.6902  1.47323e+20
-45.5729  1.49816e+20
-45.4556  1.52028e+20
-45.3383  1.539e+20
-45.221  1.55373e+20
-45.1037  1.56523e+20
-44.9864  1.57628e+20
-44.8691  1.58989e+20
-44.7518  1.60895e+20
-44.6345  1.63627e+20
-44.5172  1.67392e+20
-44.3998  1.72013e+20
-44.2825  1.77259e+20
-44.1652  1.82549e+20
-44.0479  1.87478e+20
-43.9306  1.91378e+20
-43.8133  1.93977e+20
-43.696  1.95091e+20
-43.5787  1.94672e+20
-43.4614  1.92881e+20
-43.3441  1.9009e+20
-43.2268  1.86645e+20
-43.1095  1.82961e+20
-42.9922  1.79332e+20
-42.8749  1.76136e+20
-42.7576  1.73578e+20
-42.6403  1.71995e+20
-42.523  1.71521e+20
-42.4057  1.72364e+20
-42.2884  1.74494e+20
-42.171  1.77769e+20
-42.0537  1.82069e+20
-41.9364  1.86846e+20
-41.8191  1.91628e+20
-41.7018  1.95709e+20
-41.5845  1.9862e+20
-41.4672  1.99908e+20
-41.3499  1.99309e+20
-41.2326  1.9686e+20
-41.1153  1.92869e+20
-40.998  1.87795e+20
-40.8807  1.82339e+20
-40.7634  1.77127e+20
-40.6461  1.73015e+20
-40.5288  1.70555e+20
-40.4115  1.70322e+20
-40.2942  1.72714e+20
-40.1769  1.77755e+20
-40.0596  1.85278e+20
-39.9423  1.94903e+20
-39.825  2.0588e+20
-39.7076  2.17261e+20
-39.5903  2.28055e+20
-39.473  2.37167e+20
-39.3557  2.43805e+20
-39.2384  2.47284e+20
-39.1211  2.47499e+20
-39.0038  2.44568e+20
-38.8865  2.39095e+20
-38.7692  2.31879e+20
-38.6519  2.23863e+20
-38.5346  2.15935e+20
-38.4173  2.08939e+20
-38.3  2.03427e+20
-38.1827  1.99828e+20
-38.0654  1.98366e+20
-37.9481  1.99276e+20
-37.8308  2.02587e+20
-37.7135  2.08389e+20
-37.5962  2.16627e+20
-37.4789  2.27059e+20
-37.3615  2.39207e+20
-37.2442  2.52342e+20
-37.1269  2.65459e+20
-37.0096  2.77418e+20
-36.8923  2.87151e+20
-36.775  2.93753e+20
-36.6577  2.96718e+20
-36.5404  2.95963e+20
-36.4231  2.92002e+20
-36.3058  2.85619e+20
-36.1885  2.77904e+20
-36.0712  2.69914e+20
-35.9539  2.62758e+20
-35.8366  2.57147e+20
-35.7193  2.5361e+20
-35.602  2.5255e+20
-35.4847  2.53956e+20
-35.3674  2.5798e+20
-35.2501  2.64644e+20
-35.1328  2.73771e+20
-35.0154  2.85287e+20
-34.8981  2.98702e+20
-34.7808  3.1349e+20
-34.6635  3.28901e+20
-34.5462  3.43804e+20
-34.4289  3.57171e+20
-34.3116  3.67965e+20
-34.1943  3.75487e+20
-34.077  3.79178e+20
-33.9597  3.79011e+20
-33.8424  3.75236e+20
-33.7251  3.68642e+20
-33.6078  3.5992e+20
-33.4905  3.50015e+20
-33.3732  3.39897e+20
-33.2559  3.30341e+20
-33.1386  3.221e+20
-33.0213  3.15712e+20
-32.904  3.11676e+20
-32.7867  3.10239e+20
-32.6693  3.11357e+20
-32.552  3.14965e+20
-32.4347  3.20425e+20
-32.3174  3.27208e+20
-32.2001  3.34466e+20
-32.0828  3.4138e+20
-31.9655  3.473e+20
-31.8482  3.51592e+20
-31.7309  3.54193e+20
-31.6136  3.55104e+20
-31.4963  3.54751e+20
-31.379  3.53664e+20
-31.2617  3.52603e+20
-31.1444  3.52237e+20
-31.0271  3.53067e+20
-30.9098  3.5575e+20
-30.7925  3.60249e+20
-30.6752  3.66752e+20
-30.5579  3.75048e+20
-30.4406  3.84625e+20
-30.3232  3.95e+20
-30.2059  4.05125e+20
-30.0886  4.14199e+20
-29.9713  4.21433e+20
-29.854  4.25888e+20
-29.7367  4.2691e+20
-29.6194  4.24343e+20
-29.5021  4.18401e+20
-29.3848  4.09495e+20
-29.2675  3.98509e+20
-29.1502  3.86523e+20
-29.0329  3.74811e+20
-28.9156  3.64309e+20
-28.7983  3.55974e+20
-28.681  3.50488e+20
-28.5637  3.4816e+20
-28.4464  3.49255e+20
-28.3291  3.53636e+20
-28.2118  3.61129e+20
-28.0944  3.71425e+20
-27.9771  3.83974e+20
-27.8598  3.98278e+20
-27.7425  4.13423e+20
-27.6252  4.28648e+20
-27.5079  4.42962e+20
-27.3906  4.55473e+20
-27.2733  4.65596e+20
-27.156  4.72661e+20
-27.0387  4.76682e+20
-26.9214  4.77784e+20
-26.8041  4.76515e+20
-26.6868  4.73546e+20
-26.5695  4.69756e+20
-26.4522  4.66055e+20
-26.3349  4.63255e+20
-26.2176  4.62137e+20
-26.1003  4.63245e+20
-25.983  4.67082e+20
-25.8657  4.73894e+20
-25.7483  4.83876e+20
-25.631  4.96977e+20
-25.5137  5.12942e+20
-25.3964  5.3147e+20
-25.2791  5.52117e+20
-25.1618  5.74243e+20
-25.0445  5.9717e+20
-24.9272  6.20296e+20
-24.8099  6.43174e+20
-24.6926  6.65257e+20
-24.5753  6.86127e+20
-24.458  7.05607e+20
-24.3407  7.23566e+20
-24.2234  7.39784e+20
-24.1061  7.5432e+20
-23.9888  7.67146e+20
-23.8715  7.78337e+20
-23.7542  7.88069e+20
-23.6369  7.96618e+20
-23.5196  8.04389e+20
-23.4023  8.1154e+20
-23.2849  8.18478e+20
-23.1676  8.25435e+20
-23.0503  8.32266e+20
-22.933  8.391e+20
-22.8157  8.45406e+20
-22.6984  8.50944e+20
-22.5811  8.55482e+20
-22.4638  8.58499e+20
-22.3465  8.60284e+20
-22.2292  8.60745e+20
-22.1119  8.60369e+20
-21.9946  8.59563e+20
-21.8773  8.59003e+20
-21.76  8.59376e+20
-21.6427  8.61243e+20
-21.5254  8.65059e+20
-21.4081  8.71401e+20
-21.2908  8.80586e+20
-21.1735  8.92833e+20
-21.0561  9.08224e+20
-20.9388  9.26436e+20
-20.8215  9.46927e+20
-20.7042  9.6913e+20
-20.5869  9.91987e+20
-20.4696  1.01417e+21
-20.3523  1.03445e+21
-20.235  1.05149e+21
-20.1177  1.06446e+21
-20.0004  1.07258e+21
-19.8831  1.07519e+21
-19.7658  1.07296e+21
-19.6485  1.06636e+21
-19.5312  1.05644e+21
-19.4139  1.0446e+21
-19.2966  1.03233e+21
-19.1793  1.02114e+21
-19.062  1.01229e+21
-18.9447  1.00702e+21
-18.8274  1.00631e+21
-18.71  1.01017e+21
-18.5927  1.01898e+21
-18.4754  1.03236e+21
-18.3581  1.04932e+21
-18.2408  1.06926e+21
-18.1235  1.09053e+21
-18.0062  1.11204e+21
-17.8889  1.13256e+21
-17.7716  1.15065e+21
-17.6543  1.16611e+21
-17.537  1.17818e+21
-17.4197  1.18722e+21
-17.3024  1.19363e+21
-17.1851  1.19857e+21
-17.0678  1.20324e+21
-16.9505  1.20888e+21
-16.8332  1.21677e+21
-16.7159  1.22822e+21
-16.5986  1.24419e+21
-16.4813  1.26541e+21
-16.364  1.29239e+21
-16.2466  1.325e+21
-16.1293  1.3629e+21
-16.012  1.40575e+21
-15.8947  1.45253e+21
-15.7774  1.50229e+21
-15.6601  1.55402e+21
-15.5428  1.60671e+21
-15.4255  1.65961e+21
-15.3082  1.71243e+21
-15.1909  1.76465e+21
-15.0736  1.81713e+21
-14.9563  1.87034e+21
-14.839  1.92551e+21
-14.7217  1.98364e+21
-14.6044  2.0459e+21
-14.4871  2.11335e+21
-14.3698  2.18639e+21
-14.2525  2.26526e+21
-14.1352  2.34984e+21
-14.0178  2.43937e+21
-13.9005  2.53335e+21
-13.7832  2.63086e+21
-13.6659  2.73103e+21
-13.5486  2.83358e+21
-13.4313  2.93777e+21
-13.314  3.04381e+21
-13.1967  3.15171e+21
-13.0794  3.26198e+21
-12.9621  3.37553e+21
-12.8448  3.4933e+21
-12.7275  3.61652e+21
-12.6102  3.74676e+21
-12.4929  3.88565e+21
-12.3756  4.03448e+21
-12.2583  4.19467e+21
-12.141  4.36707e+21
-12.0237  4.55199e+21
-11.9064  4.74901e+21
-11.7891  4.95746e+21
-11.6718  5.17585e+21
-11.5544  5.40231e+21
-11.4371  5.63487e+21
-11.3198  5.87132e+21
-11.2025  6.10956e+21
-11.0852  6.3482e+21
-10.9679  6.58593e+21
-10.8506  6.82221e+21
-10.7333  7.0566e+21
-10.616  7.28984e+21
-10.4987  7.52282e+21
-10.3814  7.75687e+21
-10.2641  7.99369e+21
-10.1468  8.23536e+21
-10.0295  8.48373e+21
-9.91217  8.74019e+21
-9.79487  9.00673e+21
-9.67756  9.28346e+21
-9.56026  9.57048e+21
-9.44295  9.86699e+21
-9.32565  1.01718e+22
-9.20834  1.04827e+22
-9.09104  1.07973e+22
-8.97373  1.11129e+22
-8.85643  1.1428e+22
-8.73913  1.17394e+22
-8.62182  1.20464e+22
-8.50452  1.23479e+22
-8.38721  1.26443e+22
-8.26991  1.29361e+22
-8.1526  1.32254e+22
-8.03529  1.35137e+22
-7.91799  1.38044e+22
-7.80069  1.41007e+22
-7.68338  1.44052e+22
-7.56608  1.47214e+22
-7.44877  1.50521e+22
-7.33146  1.53989e+22
-7.21416  1.57628e+22
-7.09685  1.61441e+22
-6.97955  1.65419e+22
-6.86224  1.69542e+22
-6.74494  1.73788e+22
-6.62763  1.78114e+22
-6.51033  1.82484e+22
-6.39302  1.86858e+22
-6.27572  1.91193e+22
-6.15842  1.95452e+22
-6.04111  1.996e+22
-5.92381  2.03619e+22
-5.8065  2.07499e+22
-5.68919  2.11237e+22
-5.57189  2.14848e+22
-5.45458  2.18352e+22
-5.33728  2.2178e+22
-5.21997  2.25162e+22
-5.10267  2.28536e+22
-4.98536  2.31924e+22
-4.86806  2.35345e+22
-4.75075  2.38809e+22
-4.63345  2.42313e+22
-4.51614  2.45843e+22
-4.39884  2.49371e+22
-4.28154  2.52868e+22
-4.16423  2.563e+22
-4.04692  2.59621e+22
-3.92962  2.62805e+22
-3.81231  2.65824e+22
-3.69501  2.68658e+22
-3.5777  2.71304e+22
-3.4604  2.73766e+22
-3.34309  2.76062e+22
-3.22579  2.7822e+22
-3.10849  2.80286e+22
-2.99118  2.82296e+22
-2.87387  2.843e+22
-2.75657  2.86343e+22
-2.63926  2.88456e+22
-2.52196  2.90661e+22
-2.40465  2.9297e+22
-2.28735  2.95367e+22
-2.17005  2.97826e+22
-2.05274  3.00306e+22
-1.93544  3.02743e+22
-1.81813  3.05073e+22
-1.70083  3.07226e+22
-1.58352  3.09133e+22
-1.46622  3.10737e+22
-1.34891  3.11995e+22
-1.2316  3.12885e+22
-1.1143  3.13411e+22
-0.996995  3.13596e+22
-0.87969  3.13483e+22
-0.762385  3.13133e+22
-0.64508  3.12627e+22
-0.527775  3.12044e+22
-0.41047  3.11462e+22
-0.293165  3.10959e+22
-0.17586  3.10595e+22
-0.058555  3.10414e+22
0.05875  3.10436e+22
0.176055  3.10665e+22
0.29336  3.11072e+22
0.410665  3.11621e+22
0.52797  3.12241e+22
0.645275  3.12865e+22
0.76258  3.13411e+22
0.879885  3.13797e+22
0.99719  3.13946e+22
1.1145  3.13798e+22
1.2318  3.13304e+22
1.3491  3.12446e+22
1.46641  3.11218e+22
1.58371  3.09647e+22
1.70102  3.07774e+22
1.81832  3.05655e+22
1.93563  3.0336e+22
2.05294  3.00957e+22
2.17024  2.98516e+22
2.28754  2.96095e+22
2.40485  2.93734e+22
2.52216  2.91464e+22
2.63946  2.89294e+22
2.75677  2.87217e+22
2.87407  2.8521e+22
2.99137  2.83237e+22
3.10868  2.81256e+22
3.22599  2.79219e+22
3.34329  2.77084e+22
3.4606  2.74811e+22
3.5779  2.72369e+22
3.69521  2.69744e+22
3.81251  2.66929e+22
3.92982  2.63925e+22
4.04712  2.60755e+22
4.16443  2.57447e+22
4.28173  2.54031e+22
4.39903  2.50546e+22
4.51634  2.47031e+22
4.63364  2.43517e+22
4.75095  2.40024e+22
4.86825  2.36572e+22
4.98556  2.33162e+22
5.10286  2.29788e+22
5.22017  2.26421e+22
5.33748  2.23047e+22
5.45478  2.19627e+22
5.57209  2.16129e+22
5.68939  2.12523e+22
5.8067  2.08788e+22
5.924  2.04909e+22
6.0413  2.00892e+22
6.15861  1.96744e+22
6.27591  1.92485e+22
6.39322  1.88151e+22
6.51052  1.83778e+22
6.62783  1.79406e+22
6.74514  1.75078e+22
6.86244  1.70836e+22
6.97975  1.66712e+22
7.09705  1.62735e+22
7.21436  1.58921e+22
7.33166  1.55278e+22
7.44897  1.5181e+22
7.56627  1.485e+22
7.68358  1.45332e+22
7.80088  1.42278e+22
7.91819  1.39306e+22
8.03549  1.36388e+22
8.1528  1.3349e+22
8.2701  1.30583e+22
8.38741  1.27648e+22
8.50471  1.24666e+22
8.62202  1.21633e+22
8.73932  1.18543e+22
8.85662  1.1541e+22
8.97393  1.12243e+22
9.09123  1.09066e+22
9.20854  1.05905e+22
9.32584  1.02781e+22
9.44315  9.97172e+21
9.56045  9.67364e+21
9.67776  9.38522e+21
9.79506  9.10721e+21
9.91237  8.83905e+21
10.0297  8.58096e+21
10.147  8.33105e+21
10.2643  8.08763e+21
10.3816  7.84885e+21
10.4989  7.61271e+21
10.6162  7.37744e+21
10.7335  7.14194e+21
10.8508  6.90515e+21
10.9681  6.66637e+21
11.0854  6.42617e+21
11.2027  6.18502e+21
11.32  5.94419e+21
11.4373  5.70538e+21
11.5546  5.47055e+21
11.6719  5.24175e+21
11.7893  5.02129e+21
11.9066  4.81088e+21
12.0239  4.61173e+21
12.1412  4.42512e+21
12.2585  4.25099e+21
12.3758  4.0891e+21
12.4931  3.93855e+21
12.6104  3.79799e+21
12.7277  3.666e+21
12.845  3.54101e+21
12.9623  3.42153e+21
13.0796  3.30634e+21
13.1969  3.19418e+21
13.3142  3.0847e+21
13.4315  2.97693e+21
13.5488  2.87097e+21
13.6661  2.76684e+21
13.7834  2.66497e+21
13.9007  2.566e+21
14.018  2.47044e+21
14.1354  2.37942e+21
14.2527  2.29352e+21
14.37  2.21325e+21
14.4873  2.13898e+21
14.6046  2.07018e+21
14.7219  2.00666e+21
14.8392  1.94726e+21
14.9565  1.89078e+21
15.0738  1.83639e+21
15.1911  1.78261e+21
15.3084  1.72907e+21
15.4257  1.67522e+21
15.543  1.62129e+21
15.6603  1.56756e+21
15.7776  1.51484e+21
15.8949  1.46418e+21
16.0122  1.4167e+21
16.1295  1.37326e+21
16.2468  1.33472e+21
16.3641  1.30161e+21
16.4815  1.27418e+21
16.5988  1.25246e+21
16.7161  1.2361e+21
16.8334  1.2242e+21
16.9507  1.21586e+21
17.068  1.20989e+21
17.1853  1.20486e+21
17.3026  1.19952e+21
17.4199  1.19253e+21
17.5372  1.18295e+21
17.6545  1.17055e+21
17.7718  1.15474e+21
17.8891  1.13608e+21
18.0064  1.11539e+21
18.1237  1.09366e+21
18.241  1.07209e+21
18.3583  1.0521e+21
18.4756  1.03499e+21
18.5929  1.02169e+21
18.7102  1.01271e+21
18.8275  1.0089e+21
18.9449  1.00981e+21
19.0622  1.01504e+21
19.1795  1.024e+21
19.2968  1.03519e+21
19.4141  1.04753e+21
19.5314  1.05929e+21
19.6487  1.06899e+21
19.766  1.07563e+21
19.8833  1.07759e+21
20.0006  1.07475e+21
20.1179  1.06662e+21
20.2352  1.05368e+21
20.3525  1.03644e+21
20.4698  1.01601e+21
20.5871  9.9375e+20
20.7044  9.70987e+20
20.8217  9.48906e+20
20.939  9.28494e+20
21.0563  9.10431e+20
21.1736  8.95196e+20
21.291  8.8307e+20
21.4083  8.74125e+20
21.5256  8.67876e+20
21.6429  8.64206e+20
21.7602  8.6255e+20
21.8775  8.62388e+20
21.9948  8.63086e+20
22.1121  8.63969e+20
22.2294  8.64378e+20
22.3467  8.64103e+20
22.464  8.62376e+20
22.5813  8.5928e+20
22.6986  8.54887e+20
22.8159  8.49407e+20
22.9332  8.431e+20
23.0505  8.36378e+20
23.1678  8.29546e+20
23.2851  8.22676e+20
23.4024  8.15655e+20
23.5198  8.08578e+20
23.6371  8.0086e+20
23.7544  7.92248e+20
23.8717  7.82518e+20
23.989  7.71255e+20
24.1063  7.58418e+20
24.2236  7.43779e+20
24.3409  7.27347e+20
24.4582  7.09377e+20
24.5755  6.89645e+20
24.6928  6.68639e+20
24.8101  6.46444e+20
24.9274  6.23492e+20
25.0447  6.00184e+20
25.162  5.77104e+20
25.2793  5.54938e+20
25.3966  5.34254e+20
25.5139  5.15692e+20
25.6312  4.99731e+20
25.7485  4.867e+20
25.8658  4.76753e+20
25.9832  4.69968e+20
26.1005  4.66222e+20
26.2178  4.65126e+20
26.3351  4.66302e+20
26.4524  4.69038e+20
26.5697  4.72734e+20
26.687  4.76429e+20
26.8043  4.7928e+20
26.9216  4.80408e+20
27.0389  4.79132e+20
27.1562  4.74876e+20
27.2735  4.67511e+20
27.3908  4.57227e+20
27.5081  4.44499e+20
27.6254  4.29998e+20
27.7427  4.14706e+20
27.86  3.99439e+20
27.9773  3.85091e+20
28.0946  3.72484e+20
28.212  3.62247e+20
28.3293  3.54771e+20
28.4466  3.50452e+20
28.5639  3.49442e+20
28.6812  3.51839e+20
28.7985  3.57434e+20
28.9158  3.65795e+20
29.0331  3.76257e+20
29.1504  3.87983e+20
29.2677  3.99851e+20
29.385  4.10708e+20
29.5023  4.19469e+20
29.6196  4.25268e+20
29.7369  4.27598e+20
29.8542  4.26393e+20
29.9715  4.21805e+20
30.0888  4.14542e+20
30.2061  4.05269e+20
30.3234  3.95052e+20
30.4407  3.84779e+20
30.558  3.75168e+20
30.6754  3.66987e+20
30.7927  3.60494e+20
30.91  3.55964e+20
31.0273  3.5346e+20
31.1446  3.52562e+20
31.2619  3.52976e+20
31.3792  3.54016e+20
31.4965  3.55079e+20
31.6138  3.55415e+20
31.7311  3.54443e+20
31.8484  3.51769e+20
31.9657  3.47378e+20
32.083  3.41463e+20
32.2003  3.34543e+20
32.3176  3.27321e+20
32.4349  3.2065e+20
32.5522  3.15259e+20
32.6695  3.11797e+20
32.7868  3.10765e+20
32.9042  3.12382e+20
33.0215  3.16502e+20
33.1388  3.23035e+20
33.2561  3.31359e+20
33.3734  3.41031e+20
33.4907  3.5122e+20
33.608  3.61116e+20
33.7253  3.69807e+20
33.8426  3.76328e+20
33.9599  3.79974e+20
34.0772  3.80005e+20
34.1945  3.76192e+20
34.3118  3.68564e+20
34.4291  3.57634e+20
34.5464  3.44218e+20
34.6637  3.29223e+20
34.781  3.13923e+20
34.8983  2.99107e+20
35.0156  2.85723e+20
35.1329  2.74347e+20
35.2503  2.65291e+20
35.3676  2.5881e+20
35.4849  2.54843e+20
35.6022  2.53473e+20
35.7195  2.54708e+20
35.8368  2.58311e+20
35.9541  2.63972e+20
36.0714  2.71201e+20
36.1887  2.79201e+20
36.306  2.86899e+20
36.4233  2.93213e+20
36.5406  2.97057e+20
36.6579  2.97655e+20
36.7752  2.94548e+20
36.8925  2.8783e+20
37.0098  2.77985e+20
37.1271  2.65956e+20
37.2444  2.52817e+20
37.3617  2.39688e+20
37.479  2.27565e+20
37.5964  2.17174e+20
37.7137  2.08989e+20
37.831  2.03263e+20
37.9483  2.00025e+20
38.0656  1.99185e+20
38.1829  2.00677e+20
38.3002  2.04343e+20
38.4175  2.09926e+20
38.5348  2.16925e+20
38.6521  2.24851e+20
38.7694  2.32838e+20
38.8867  2.40043e+20
39.004  2.45406e+20
39.1213  2.48258e+20
39.2386  2.47921e+20
39.3559  2.44256e+20
39.4732  2.37578e+20
39.5905  2.28359e+20
39.7078  2.17523e+20
39.8251  2.06115e+20
39.9425  1.95175e+20
40.0598  1.85591e+20
40.1771  1.7809e+20
40.2944  1.73108e+20
40.4117  1.70826e+20
40.529  1.711e+20
40.6463  1.73592e+20
40.7636  1.77752e+20
40.8809  1.8292e+20
40.9982  1.88409e+20
41.1155  1.93412e+20
41.2328  1.97341e+20
41.3501  1.99694e+20
41.4674  2.00234e+20
41.5847  1.98897e+20
41.702  1.95896e+20
41.8193  1.91755e+20
41.9366  1.86962e+20
42.0539  1.82173e+20
42.1712  1.77905e+20
42.2885  1.74579e+20
42.4059  1.72498e+20
42.5232  1.71684e+20
42.6405  1.72214e+20
42.7578  1.73781e+20
42.8751  1.76299e+20
42.9924  1.7954e+20
43.1097  1.83178e+20
43.227  1.86851e+20
43.3443  1.90275e+20
43.4616  1.93044e+20
43.5789  1.94812e+20
43.6962  1.95186e+20
43.8135  1.94105e+20
43.9308  1.91417e+20
44.0481  1.87422e+20
44.1654  1.82494e+20
44.2827  1.77151e+20
44.4  1.71962e+20
44.5173  1.67389e+20
44.6347  1.63679e+20
44.752  1.6093e+20
44.8693  1.59027e+20
44.9866  1.57742e+20
45.1039  1.56646e+20
45.2212  1.55504e+20
45.3385  1.54068e+20
45.4558  1.52177e+20
45.5731  1.49925e+20
45.6904  1.47496e+20
45.8077  1.44921e+20
45.925  1.42396e+20
46.0423  1.39958e+20
46.1596  1.3764e+20
46.2769  1.3536e+20
46.3942  1.33156e+20
46.5115  1.31098e+20
46.6288  1.29293e+20
46.7461  1.27978e+20
46.8634  1.27362e+20
46.9808  1.27655e+20
47.0981  1.28866e+20
47.2154  1.30952e+20
47.3327  1.33712e+20
47.45  1.36802e+20
47.5673  1.39835e+20
47.6846  1.42457e+20
47.8019  1.44364e+20
47.9192  1.45371e+20
48.0365  1.4544e+20
48.1538  1.44641e+20
48.2711  1.43114e+20
48.3884  1.4108e+20
48.5057  1.38717e+20
48.623  1.36211e+20
48.7403  1.3374e+20
48.8576  1.31387e+20
48.9749  1.29327e+20
49.0922  1.27644e+20
49.2095  1.26335e+20
49.3269  1.25412e+20
49.4442  1.24892e+20
49.5615  1.24706e+20
49.6788  1.24862e+20
49.7961  1.2527e+20
49.9134  1.25943e+20
50.0307  1.26831e+20
50.148  1.27879e+20
50.2653  1.2899e+20
50.3826  1.29956e+20
50.4999  1.30502e+20
50.6172  1.30322e+20
50.7345  1.2907e+20
50.8518  1.26499e+20
