#S 1 spectral density
#N 2
#UFWHM 14.7804
#L  abscissas [um]  spectral density
-58.5938  1.02128e+20
-58.4764  1.11513e+20
-58.3591  1.19534e+20
-58.2418  1.25436e+20
-58.1245  1.28586e+20
-58.0072  1.28853e+20
-57.8899  1.26348e+20
-57.7726  1.21542e+20
-57.6553  1.15161e+20
-57.538  1.07914e+20
-57.4207  1.00512e+20
-57.3034  9.35605e+19
-57.1861  8.75288e+19
-57.0688  8.2751e+19
-56.9515  7.94935e+19
-56.8342  7.79673e+19
-56.7169  7.82131e+19
-56.5996  8.03356e+19
-56.4823  8.41034e+19
-56.365  8.91581e+19
-56.2477  9.50045e+19
-56.1303  1.00883e+20
-56.013  1.06009e+20
-55.8957  1.097e+20
-55.7784  1.11515e+20
-55.6611  1.11238e+20
-55.5438  1.08977e+20
-55.4265  1.05116e+20
-55.3092  1.00255e+20
-55.1919  9.50498e+19
-55.0746  9.00772e+19
-54.9573  8.58725e+19
-54.84  8.27348e+19
-54.7227  8.09473e+19
-54.6054  8.06101e+19
-54.4881  8.17593e+19
-54.3708  8.43855e+19
-54.2535  8.84681e+19
-54.1362  9.38434e+19
-54.0189  1.00233e+20
-53.9016  1.07268e+20
-53.7842  1.14435e+20
-53.6669  1.21152e+20
-53.5496  1.26994e+20
-53.4323  1.31626e+20
-53.315  1.34878e+20
-53.1977  1.36901e+20
-53.0804  1.37936e+20
-52.9631  1.38336e+20
-52.8458  1.3843e+20
-52.7285  1.3849e+20
-52.6112  1.38617e+20
-52.4939  1.38807e+20
-52.3766  1.38933e+20
-52.2593  1.38959e+20
-52.142  1.3881e+20
-52.0247  1.38547e+20
-51.9074  1.38365e+20
-51.7901  1.38427e+20
-51.6728  1.3888e+20
-51.5555  1.39772e+20
-51.4381  1.41045e+20
-51.3208  1.42362e+20
-51.2035  1.4339e+20
-51.0862  1.43708e+20
-50.9689  1.42996e+20
-50.8516  1.41066e+20
-50.7343  1.37891e+20
-50.617  1.33652e+20
-50.4997  1.28706e+20
-50.3824  1.23399e+20
-50.2651  1.18232e+20
-50.1478  1.13511e+20
-50.0305  1.09627e+20
-49.9132  1.06798e+20
-49.7959  1.05197e+20
-49.6786  1.04967e+20
-49.5613  1.06119e+20
-49.444  1.08588e+20
-49.3267  1.12249e+20
-49.2094  1.16919e+20
-49.092  1.2224e+20
-48.9747  1.27873e+20
-48.8574  1.33304e+20
-48.7401  1.3822e+20
-48.6228  1.42145e+20
-48.5055  1.44946e+20
-48.3882  1.4649e+20
-48.2709  1.46795e+20
-48.1536  1.46071e+20
-48.0363  1.44663e+20
-47.919  1.43049e+20
-47.8017  1.41786e+20
-47.6844  1.4145e+20
-47.5671  1.4266e+20
-47.4498  1.45881e+20
-47.3325  1.51482e+20
-47.2152  1.59482e+20
-47.0979  1.69702e+20
-46.9806  1.81512e+20
-46.8633  1.93973e+20
-46.7459  2.06212e+20
-46.6286  2.16941e+20
-46.5113  2.25276e+20
-46.394  2.30283e+20
-46.2767  2.31718e+20
-46.1594  2.29568e+20
-46.0421  2.24131e+20
-45.9248  2.16139e+20
-45.8075  2.06516e+20
-45.6902  1.96115e+20
-45.5729  1.85925e+20
-45.4556  1.76525e+20
-45.3383  1.68667e+20
-45.221  1.62591e+20
-45.1037  1.58646e+20
-44.9864  1.56974e+20
-44.8691  1.57413e+20
-44.7518  1.59726e+20
-44.6345  1.63572e+20
-44.5172  1.68351e+20
-44.3998  1.73326e+20
-44.2825  1.77809e+20
-44.1652  1.81027e+20
-44.0479  1.8253e+20
-43.9306  1.81946e+20
-43.8133  1.79424e+20
-43.696  1.75243e+20
-43.5787  1.70079e+20
-43.4614  1.64701e+20
-43.3441  1.59845e+20
-43.2268  1.56164e+20
-43.1095  1.54135e+20
-42.9922  1.53886e+20
-42.8749  1.55321e+20
-42.7576  1.5812e+20
-42.6403  1.61973e+20
-42.523  1.66345e+20
-42.4057  1.709e+20
-42.2884  1.75233e+20
-42.171  1.79043e+20
-42.0537  1.82214e+20
-41.9364  1.84563e+20
-41.8191  1.86111e+20
-41.7018  1.86798e+20
-41.5845  1.8686e+20
-41.4672  1.86513e+20
-41.3499  1.86029e+20
-41.2326  1.85814e+20
-41.1153  1.86281e+20
-40.998  1.87766e+20
-40.8807  1.90561e+20
-40.7634  1.94697e+20
-40.6461  2.00279e+20
-40.5288  2.0701e+20
-40.4115  2.14684e+20
-40.2942  2.23012e+20
-40.1769  2.31497e+20
-40.0596  2.3975e+20
-39.9423  2.47378e+20
-39.825  2.53828e+20
-39.7076  2.58695e+20
-39.5903  2.61533e+20
-39.473  2.62073e+20
-39.3557  2.60248e+20
-39.2384  2.56133e+20
-39.1211  2.50158e+20
-39.0038  2.42888e+20
-38.8865  2.3523e+20
-38.7692  2.27979e+20
-38.6519  2.21944e+20
-38.5346  2.17721e+20
-38.4173  2.15835e+20
-38.3  2.16357e+20
-38.1827  2.19284e+20
-38.0654  2.2449e+20
-37.9481  2.31853e+20
-37.8308  2.41239e+20
-37.7135  2.52572e+20
-37.5962  2.6577e+20
-37.4789  2.80669e+20
-37.3615  2.96782e+20
-37.2442  3.13598e+20
-37.1269  3.30041e+20
-37.0096  3.45163e+20
-36.8923  3.57806e+20
-36.775  3.67053e+20
-36.6577  3.72337e+20
-36.5404  3.7347e+20
-36.4231  3.70817e+20
-36.3058  3.65023e+20
-36.1885  3.57048e+20
-36.0712  3.47839e+20
-35.9539  3.38366e+20
-35.8366  3.29272e+20
-35.7193  3.20951e+20
-35.602  3.13832e+20
-35.4847  3.07844e+20
-35.3674  3.0312e+20
-35.2501  2.99746e+20
-35.1328  2.97656e+20
-35.0154  2.96956e+20
-34.8981  2.97267e+20
-34.7808  2.98402e+20
-34.6635  3.00001e+20
-34.5462  3.01347e+20
-34.4289  3.01838e+20
-34.3116  3.01023e+20
-34.1943  2.98723e+20
-34.077  2.94809e+20
-33.9597  2.897e+20
-33.8424  2.83935e+20
-33.7251  2.78459e+20
-33.6078  2.73899e+20
-33.4905  2.71047e+20
-33.3732  2.70488e+20
-33.2559  2.72456e+20
-33.1386  2.77154e+20
-33.0213  2.84393e+20
-32.904  2.93946e+20
-32.7867  3.05414e+20
-32.6693  3.18164e+20
-32.552  3.31705e+20
-32.4347  3.45021e+20
-32.3174  3.57435e+20
-32.2001  3.68016e+20
-32.0828  3.75994e+20
-31.9655  3.80931e+20
-31.8482  3.82328e+20
-31.7309  3.80316e+20
-31.6136  3.75138e+20
-31.4963  3.67343e+20
-31.379  3.57639e+20
-31.2617  3.46835e+20
-31.1444  3.35707e+20
-31.0271  3.24929e+20
-30.9098  3.15271e+20
-30.7925  3.07066e+20
-30.6752  3.0081e+20
-30.5579  2.96769e+20
-30.4406  2.95143e+20
-30.3232  2.96034e+20
-30.2059  2.99176e+20
-30.0886  3.04402e+20
-29.9713  3.1146e+20
-29.854  3.19836e+20
-29.7367  3.2903e+20
-29.6194  3.38777e+20
-29.5021  3.48839e+20
-29.3848  3.58932e+20
-29.2675  3.69007e+20
-29.1502  3.78973e+20
-29.0329  3.88813e+20
-28.9156  3.98214e+20
-28.7983  4.06973e+20
-28.681  4.14811e+20
-28.5637  4.21341e+20
-28.4464  4.26481e+20
-28.3291  4.3017e+20
-28.2118  4.32674e+20
-28.0944  4.34373e+20
-27.9771  4.35844e+20
-27.8598  4.37767e+20
-27.7425  4.40532e+20
-27.6252  4.44628e+20
-27.5079  4.50152e+20
-27.3906  4.57075e+20
-27.2733  4.65324e+20
-27.156  4.74419e+20
-27.0387  4.84191e+20
-26.9214  4.94229e+20
-26.8041  5.04231e+20
-26.6868  5.13894e+20
-26.5695  5.22964e+20
-26.4522  5.31211e+20
-26.3349  5.38371e+20
-26.2176  5.44268e+20
-26.1003  5.48821e+20
-25.983  5.521e+20
-25.8657  5.54241e+20
-25.7483  5.55674e+20
-25.631  5.56739e+20
-25.5137  5.57933e+20
-25.3964  5.59785e+20
-25.2791  5.628e+20
-25.1618  5.6732e+20
-25.0445  5.73685e+20
-24.9272  5.8214e+20
-24.8099  5.92971e+20
-24.6926  6.06237e+20
-24.5753  6.21808e+20
-24.458  6.3976e+20
-24.3407  6.59823e+20
-24.2234  6.81539e+20
-24.1061  7.04506e+20
-23.9888  7.28105e+20
-23.8715  7.51717e+20
-23.7542  7.74651e+20
-23.6369  7.96454e+20
-23.5196  8.16744e+20
-23.4023  8.34961e+20
-23.2849  8.51026e+20
-23.1676  8.64761e+20
-23.0503  8.75842e+20
-22.933  8.84516e+20
-22.8157  8.90413e+20
-22.6984  8.93817e+20
-22.5811  8.95036e+20
-22.4638  8.94226e+20
-22.3465  8.92421e+20
-22.2292  8.90159e+20
-22.1119  8.8843e+20
-21.9946  8.88014e+20
-21.8773  8.89744e+20
-21.76  8.94189e+20
-21.6427  9.01467e+20
-21.5254  9.11419e+20
-21.4081  9.238e+20
-21.2908  9.38044e+20
-21.1735  9.53363e+20
-21.0561  9.69098e+20
-20.9388  9.84184e+20
-20.8215  9.9776e+20
-20.7042  1.00925e+21
-20.5869  1.01789e+21
-20.4696  1.02313e+21
-20.3523  1.02482e+21
-20.235  1.02292e+21
-20.1177  1.01811e+21
-20.0004  1.01112e+21
-19.8831  1.00269e+21
-19.7658  9.94682e+20
-19.6485  9.88335e+20
-19.5312  9.85104e+20
-19.4139  9.86254e+20
-19.2966  9.92661e+20
-19.1793  1.00483e+21
-19.062  1.02253e+21
-18.9447  1.04541e+21
-18.8274  1.0726e+21
-18.71  1.10243e+21
-18.5927  1.13378e+21
-18.4754  1.16502e+21
-18.3581  1.19437e+21
-18.2408  1.22093e+21
-18.1235  1.24321e+21
-18.0062  1.2608e+21
-17.8889  1.2734e+21
-17.7716  1.28087e+21
-17.6543  1.28441e+21
-17.537  1.28466e+21
-17.4197  1.28327e+21
-17.3024  1.28175e+21
-17.1851  1.28197e+21
-17.0678  1.2856e+21
-16.9505  1.29397e+21
-16.8332  1.30815e+21
-16.7159  1.32892e+21
-16.5986  1.35663e+21
-16.4813  1.39124e+21
-16.364  1.43249e+21
-16.2466  1.47972e+21
-16.1293  1.53193e+21
-16.012  1.58849e+21
-15.8947  1.6482e+21
-15.7774  1.71007e+21
-15.6601  1.77312e+21
-15.5428  1.83651e+21
-15.4255  1.89964e+21
-15.3082  1.96228e+21
-15.1909  2.02409e+21
-15.0736  2.08579e+21
-14.9563  2.14778e+21
-14.839  2.21124e+21
-14.7217  2.27702e+21
-14.6044  2.34628e+21
-14.4871  2.4202e+21
-14.3698  2.49936e+21
-14.2525  2.58449e+21
-14.1352  2.67592e+21
-14.0178  2.77372e+21
-13.9005  2.87811e+21
-13.7832  2.98889e+21
-13.6659  3.10584e+21
-13.5486  3.22915e+21
-13.4313  3.35808e+21
-13.314  3.49262e+21
-13.1967  3.63211e+21
-13.0794  3.77607e+21
-12.9621  3.9239e+21
-12.8448  4.07499e+21
-12.7275  4.22874e+21
-12.6102  4.38497e+21
-12.4929  4.54385e+21
-12.3756  4.70528e+21
-12.2583  4.87007e+21
-12.141  5.03883e+21
-12.0237  5.21211e+21
-11.9064  5.39041e+21
-11.7891  5.57444e+21
-11.6718  5.76424e+21
-11.5544  5.95987e+21
-11.4371  6.1613e+21
-11.3198  6.36781e+21
-11.2025  6.57884e+21
-11.0852  6.79378e+21
-10.9679  7.01174e+21
-10.8506  7.23204e+21
-10.7333  7.45366e+21
-10.616  7.67635e+21
-10.4987  7.8999e+21
-10.3814  8.12432e+21
-10.2641  8.35012e+21
-10.1468  8.57882e+21
-10.0295  8.81156e+21
-9.91217  9.04999e+21
-9.79487  9.29652e+21
-9.67756  9.5525e+21
-9.56026  9.81926e+21
-9.44295  1.00976e+22
-9.32565  1.0388e+22
-9.20834  1.06896e+22
-9.09104  1.10009e+22
-8.97373  1.13201e+22
-8.85643  1.1645e+22
-8.73913  1.1972e+22
-8.62182  1.22987e+22
-8.50452  1.26223e+22
-8.38721  1.29406e+22
-8.26991  1.32518e+22
-8.1526  1.35556e+22
-8.03529  1.38515e+22
-7.91799  1.4141e+22
-7.80069  1.44269e+22
-7.68338  1.47113e+22
-7.56608  1.49987e+22
-7.44877  1.52932e+22
-7.33146  1.55985e+22
-7.21416  1.59177e+22
-7.09685  1.62543e+22
-6.97955  1.66091e+22
-6.86224  1.69827e+22
-6.74494  1.73743e+22
-6.62763  1.77805e+22
-6.51033  1.81976e+22
-6.39302  1.86208e+22
-6.27572  1.90445e+22
-6.15842  1.94628e+22
-6.04111  1.98698e+22
-5.92381  2.02611e+22
-5.8065  2.06336e+22
-5.68919  2.09851e+22
-5.57189  2.13154e+22
-5.45458  2.16266e+22
-5.33728  2.19217e+22
-5.21997  2.22047e+22
-5.10267  2.24815e+22
-4.98536  2.27565e+22
-4.86806  2.30344e+22
-4.75075  2.33191e+22
-4.63345  2.36129e+22
-4.51614  2.39167e+22
-4.39884  2.42294e+22
-4.28154  2.45493e+22
-4.16423  2.48731e+22
-4.04692  2.51959e+22
-3.92962  2.5514e+22
-3.81231  2.58231e+22
-3.69501  2.61192e+22
-3.5777  2.64002e+22
-3.4604  2.66646e+22
-3.34309  2.69125e+22
-3.22579  2.71457e+22
-3.10849  2.73679e+22
-2.99118  2.75824e+22
-2.87387  2.77946e+22
-2.75657  2.80091e+22
-2.63926  2.82299e+22
-2.52196  2.84598e+22
-2.40465  2.87005e+22
-2.28735  2.89504e+22
-2.17005  2.92067e+22
-2.05274  2.94649e+22
-1.93544  2.97175e+22
-1.81813  2.99564e+22
-1.70083  3.01734e+22
-1.58352  3.03599e+22
-1.46622  3.05092e+22
-1.34891  3.06154e+22
-1.2316  3.06763e+22
-1.1143  3.06923e+22
-0.996995  3.06668e+22
-0.87969  3.06058e+22
-0.762385  3.05178e+22
-0.64508  3.04134e+22
-0.527775  3.03039e+22
-0.41047  3.02003e+22
-0.293165  3.0113e+22
-0.17586  3.00505e+22
-0.058555  3.00191e+22
0.05875  3.00215e+22
0.176055  3.0058e+22
0.29336  3.01252e+22
0.410665  3.02174e+22
0.52797  3.03252e+22
0.645275  3.0439e+22
0.76258  3.05474e+22
0.879885  3.06392e+22
0.99719  3.07036e+22
1.1145  3.07326e+22
1.2318  3.07194e+22
1.3491  3.06613e+22
1.46641  3.05576e+22
1.58371  3.04111e+22
1.70102  3.02271e+22
1.81832  3.00127e+22
1.93563  2.97762e+22
2.05294  2.95262e+22
2.17024  2.9271e+22
2.28754  2.90173e+22
2.40485  2.87703e+22
2.52216  2.85328e+22
2.63946  2.83058e+22
2.75677  2.80881e+22
2.87407  2.78767e+22
2.99137  2.76676e+22
3.10868  2.74559e+22
3.22599  2.72368e+22
3.34329  2.70064e+22
3.4606  2.67614e+22
3.5779  2.64997e+22
3.69521  2.62215e+22
3.81251  2.5928e+22
3.92982  2.56213e+22
4.04712  2.53053e+22
4.16443  2.49846e+22
4.28173  2.46629e+22
4.39903  2.43448e+22
4.51634  2.40337e+22
4.63364  2.37315e+22
4.75095  2.34388e+22
4.86825  2.31551e+22
4.98556  2.28779e+22
5.10286  2.26039e+22
5.22017  2.23273e+22
5.33748  2.20445e+22
5.45478  2.17498e+22
5.57209  2.14389e+22
5.68939  2.11085e+22
5.8067  2.07572e+22
5.924  2.03847e+22
6.0413  1.99935e+22
6.15861  1.95866e+22
6.27591  1.91684e+22
6.39322  1.87453e+22
6.51052  1.83224e+22
6.62783  1.79054e+22
6.74514  1.74995e+22
6.86244  1.71086e+22
6.97975  1.6735e+22
7.09705  1.63804e+22
7.21436  1.60441e+22
7.33166  1.57244e+22
7.44897  1.54191e+22
7.56627  1.51244e+22
7.68358  1.48364e+22
7.80088  1.4551e+22
7.91819  1.42643e+22
8.03549  1.39737e+22
8.1528  1.36766e+22
8.2701  1.33715e+22
8.38741  1.30588e+22
8.50471  1.2739e+22
8.62202  1.24139e+22
8.73932  1.20854e+22
8.85662  1.17569e+22
8.97393  1.14306e+22
9.09123  1.11098e+22
9.20854  1.0797e+22
9.32584  1.04942e+22
9.44315  1.02023e+22
9.56045  9.9225e+21
9.67776  9.65445e+21
9.79506  9.39732e+21
9.91237  9.14919e+21
10.0297  8.90931e+21
10.147  8.67524e+21
10.2643  8.44522e+21
10.3816  8.21776e+21
10.4989  7.99175e+21
10.6162  7.76651e+21
10.7335  7.54213e+21
10.8508  7.31874e+21
10.9681  7.09655e+21
11.0854  6.87679e+21
11.2027  6.65993e+21
11.32  6.44685e+21
11.4373  6.23834e+21
11.5546  6.03505e+21
11.6719  5.83722e+21
11.7893  5.64548e+21
11.9066  5.45952e+21
12.0239  5.27897e+21
12.1412  5.10382e+21
12.2585  4.93315e+21
12.3758  4.76643e+21
12.4931  4.60291e+21
12.6104  4.44212e+21
12.7277  4.28385e+21
12.845  4.12819e+21
12.9623  3.97518e+21
13.0796  3.82555e+21
13.1969  3.67968e+21
13.3142  3.53847e+21
13.4315  3.40216e+21
13.5488  3.27149e+21
13.6661  3.14667e+21
13.7834  3.02803e+21
13.9007  2.91584e+21
14.018  2.80996e+21
14.1354  2.7107e+21
14.2527  2.61797e+21
14.37  2.53155e+21
14.4873  2.45116e+21
14.6046  2.37591e+21
14.7219  2.30538e+21
14.8392  2.23832e+21
14.9565  2.17355e+21
15.0738  2.11028e+21
15.1911  2.04722e+21
15.3084  1.984e+21
15.4257  1.92014e+21
15.543  1.8558e+21
15.6603  1.79115e+21
15.7776  1.72687e+21
15.8949  1.66388e+21
16.0122  1.60322e+21
16.1295  1.54584e+21
16.2468  1.49275e+21
16.3641  1.44486e+21
16.4815  1.40298e+21
16.5988  1.36779e+21
16.7161  1.33959e+21
16.8334  1.31835e+21
16.9507  1.30372e+21
17.068  1.295e+21
17.1853  1.29103e+21
17.3026  1.29038e+21
17.4199  1.29129e+21
17.5372  1.29205e+21
17.6545  1.29131e+21
17.7718  1.28726e+21
17.8891  1.27899e+21
18.0064  1.26595e+21
18.1237  1.2478e+21
18.241  1.22487e+21
18.3583  1.1979e+21
18.4756  1.16808e+21
18.5929  1.13663e+21
18.7102  1.10488e+21
18.8275  1.07487e+21
18.9449  1.04774e+21
19.0622  1.02478e+21
19.1795  1.00718e+21
19.2968  9.95048e+20
19.4141  9.88821e+20
19.5314  9.87736e+20
19.6487  9.90932e+20
19.766  9.9749e+20
19.8833  1.0054e+21
20.0006  1.01373e+21
20.1179  1.0208e+21
20.2352  1.02568e+21
20.3525  1.02739e+21
20.4698  1.02547e+21
20.5871  1.02006e+21
20.7044  1.01137e+21
20.8217  9.99867e+20
20.939  9.862e+20
21.0563  9.71084e+20
21.1736  9.55337e+20
21.291  9.39971e+20
21.4083  9.25858e+20
21.5256  9.1348e+20
21.6429  9.03606e+20
21.7602  8.96512e+20
21.8775  8.92327e+20
21.9948  8.90767e+20
22.1121  8.91275e+20
22.2294  8.93068e+20
22.3467  8.956e+20
22.464  8.97528e+20
22.5813  8.9828e+20
22.6986  8.97228e+20
22.8159  8.93868e+20
22.9332  8.87918e+20
23.0505  8.79326e+20
23.1678  8.68159e+20
23.2851  8.54439e+20
23.4024  8.38189e+20
23.5198  8.1993e+20
23.6371  7.99632e+20
23.7544  7.77696e+20
23.8717  7.54726e+20
23.989  7.31058e+20
24.1063  7.0751e+20
24.2236  6.84509e+20
24.3409  6.62727e+20
24.4582  6.42845e+20
24.5755  6.24875e+20
24.6928  6.09388e+20
24.8101  5.96273e+20
24.9274  5.8564e+20
25.0447  5.77227e+20
25.162  5.70901e+20
25.2793  5.66466e+20
25.3966  5.6352e+20
25.5139  5.61709e+20
25.6312  5.60534e+20
25.7485  5.59453e+20
25.8658  5.57961e+20
25.9832  5.55693e+20
26.1005  5.52374e+20
26.2178  5.47678e+20
26.3351  5.41673e+20
26.4524  5.34362e+20
26.5697  5.26068e+20
26.687  5.1688e+20
26.8043  5.07101e+20
26.9216  4.9698e+20
27.0389  4.8693e+20
27.1562  4.77086e+20
27.2735  4.67838e+20
27.3908  4.59588e+20
27.5081  4.52592e+20
27.6254  4.46982e+20
27.7427  4.42875e+20
27.86  4.39991e+20
27.9773  4.38008e+20
28.0946  4.36375e+20
28.212  4.3459e+20
28.3293  4.31974e+20
28.4466  4.28131e+20
28.5639  4.22889e+20
28.6812  4.1624e+20
28.7985  4.08359e+20
28.9158  3.99502e+20
29.0331  3.89954e+20
29.1504  3.8011e+20
29.2677  3.70042e+20
29.385  3.5992e+20
29.5023  3.49762e+20
29.6196  3.39694e+20
29.7369  3.29861e+20
29.8542  3.2061e+20
29.9715  3.12249e+20
30.0888  3.05231e+20
30.2061  2.99942e+20
30.3234  2.968e+20
30.4407  2.96039e+20
30.558  2.97689e+20
30.6754  3.01759e+20
30.7927  3.08055e+20
30.91  3.16274e+20
31.0273  3.26031e+20
31.1446  3.36725e+20
31.2619  3.47876e+20
31.3792  3.58615e+20
31.4965  3.68245e+20
31.6138  3.75947e+20
31.7311  3.81015e+20
31.8484  3.82863e+20
31.9657  3.81247e+20
32.083  3.7621e+20
32.2003  3.68082e+20
32.3176  3.57358e+20
32.4349  3.44935e+20
32.5522  3.31506e+20
32.6695  3.17972e+20
32.7868  3.05175e+20
32.9042  2.93803e+20
33.0215  2.84284e+20
33.1388  2.77145e+20
33.2561  2.72559e+20
33.3734  2.70728e+20
33.4907  2.71432e+20
33.608  2.74381e+20
33.7253  2.7898e+20
33.8426  2.84542e+20
33.9599  2.90289e+20
34.0772  2.95386e+20
34.1945  2.99264e+20
34.3118  3.01568e+20
34.4291  3.02315e+20
34.5464  3.01815e+20
34.6637  3.00451e+20
34.781  2.98956e+20
34.8983  2.97774e+20
35.0156  2.97475e+20
35.1329  2.98352e+20
35.2503  3.00495e+20
35.3676  3.03993e+20
35.4849  3.08759e+20
35.6022  3.1479e+20
35.7195  3.22087e+20
35.8368  3.30415e+20
35.9541  3.39601e+20
36.0714  3.49128e+20
36.1887  3.58348e+20
36.306  3.6632e+20
36.4233  3.72047e+20
36.5406  3.74564e+20
36.6579  3.7329e+20
36.7752  3.67868e+20
36.8925  3.58504e+20
37.0098  3.45738e+20
37.1271  3.30588e+20
37.2444  3.14063e+20
37.3617  2.97255e+20
37.479  2.81119e+20
37.5964  2.66291e+20
37.7137  2.53117e+20
37.831  2.41873e+20
37.9483  2.32555e+20
38.0656  2.25302e+20
38.1829  2.20171e+20
38.3002  2.17331e+20
38.4175  2.16912e+20
38.5348  2.18902e+20
38.6521  2.23171e+20
38.7694  2.29255e+20
38.8867  2.36551e+20
39.004  2.44207e+20
39.1213  2.51411e+20
39.2386  2.57327e+20
39.3559  2.61297e+20
39.4732  2.63082e+20
39.5905  2.62404e+20
39.7078  2.59444e+20
39.8251  2.54499e+20
39.9425  2.47988e+20
40.0598  2.40336e+20
40.1771  2.32032e+20
40.2944  2.23485e+20
40.4117  2.15223e+20
40.529  2.07527e+20
40.6463  2.00781e+20
40.7636  1.95285e+20
40.8809  1.91154e+20
40.9982  1.88409e+20
41.1155  1.8692e+20
41.2328  1.86432e+20
41.3501  1.86616e+20
41.4674  1.87049e+20
41.5847  1.87368e+20
41.702  1.87218e+20
41.8193  1.86442e+20
41.9366  1.84837e+20
42.0539  1.82416e+20
42.1712  1.79208e+20
42.2885  1.75282e+20
42.4059  1.70941e+20
42.5232  1.66382e+20
42.6405  1.62043e+20
42.7578  1.58204e+20
42.8751  1.55404e+20
42.9924  1.54043e+20
43.1097  1.54394e+20
43.227  1.56483e+20
43.3443  1.60209e+20
43.4616  1.65097e+20
43.5789  1.70543e+20
43.6962  1.75664e+20
43.8135  1.79824e+20
43.9308  1.82268e+20
44.0481  1.82709e+20
44.1654  1.81202e+20
44.2827  1.77902e+20
44.4  1.73381e+20
44.5173  1.6837e+20
44.6347  1.63631e+20
44.752  1.59787e+20
44.8693  1.57504e+20
44.9866  1.57117e+20
45.1039  1.58903e+20
45.2212  1.62877e+20
45.3385  1.6898e+20
45.4558  1.76922e+20
45.5731  1.86303e+20
45.6904  1.96577e+20
45.8077  2.06917e+20
45.925  2.16514e+20
46.0423  2.24414e+20
46.1596  2.2978e+20
46.2769  2.31872e+20
46.3942  2.30304e+20
46.5115  2.25169e+20
46.6288  2.16783e+20
46.7461  2.05991e+20
46.8634  1.93789e+20
46.9808  1.81257e+20
47.0981  1.69534e+20
47.2154  1.59398e+20
47.3327  1.5151e+20
47.45  1.45959e+20
47.5673  1.42782e+20
47.6846  1.41655e+20
47.8019  1.42042e+20
47.9192  1.43313e+20
48.0365  1.44933e+20
48.1538  1.46315e+20
48.2711  1.47043e+20
48.3884  1.46694e+20
48.5057  1.45177e+20
48.623  1.42327e+20
48.7403  1.38326e+20
48.8576  1.33435e+20
48.9749  1.27978e+20
49.0922  1.22388e+20
49.2095  1.17111e+20
49.3269  1.12491e+20
49.4442  1.08857e+20
49.5615  1.06423e+20
49.6788  1.05351e+20
49.7961  1.05641e+20
49.9134  1.07286e+20
50.0307  1.1017e+20
50.148  1.14074e+20
50.2653  1.188e+20
50.3826  1.24016e+20
50.4999  1.29278e+20
50.6172  1.34212e+20
50.7345  1.384e+20
50.8518  1.41542e+20
