#S 1 spectral density
#N 2
#UFWHM 34.1358
#L  abscissas [um]  spectral density
-58.5938  2.79973e+20
-58.4764  2.76513e+20
-58.3591  2.7586e+20
-58.2418  2.78889e+20
-58.1245  2.86125e+20
-58.0072  2.97919e+20
-57.8899  3.14129e+20
-57.7726  3.34029e+20
-57.6553  3.56437e+20
-57.538  3.79614e+20
-57.4207  4.0136e+20
-57.3034  4.19421e+20
-57.1861  4.31679e+20
-57.0688  4.36664e+20
-56.9515  4.33624e+20
-56.8342  4.22828e+20
-56.7169  4.05614e+20
-56.5996  3.84042e+20
-56.4823  3.60656e+20
-56.365  3.38163e+20
-56.2477  3.19007e+20
-56.1303  3.04991e+20
-56.013  2.97247e+20
-55.8957  2.96135e+20
-55.7784  3.01316e+20
-55.6611  3.11919e+20
-55.5438  3.26651e+20
-55.4265  3.44051e+20
-55.3092  3.62622e+20
-55.1919  3.81006e+20
-55.0746  3.97962e+20
-54.9573  4.12603e+20
-54.84  4.24366e+20
-54.7227  4.3326e+20
-54.6054  4.39376e+20
-54.4881  4.43298e+20
-54.3708  4.45612e+20
-54.2535  4.47044e+20
-54.1362  4.48015e+20
-54.0189  4.48695e+20
-53.9016  4.48542e+20
-53.7842  4.47099e+20
-53.6669  4.43258e+20
-53.5496  4.36417e+20
-53.4323  4.25905e+20
-53.315  4.1165e+20
-53.1977  3.94193e+20
-53.0804  3.74363e+20
-52.9631  3.53688e+20
-52.8458  3.33738e+20
-52.7285  3.16065e+20
-52.6112  3.02033e+20
-52.4939  2.92616e+20
-52.3766  2.8842e+20
-52.2593  2.89551e+20
-52.142  2.95779e+20
-52.0247  3.06523e+20
-51.9074  3.21019e+20
-51.7901  3.38181e+20
-51.6728  3.56873e+20
-51.5555  3.75888e+20
-51.4381  3.93736e+20
-51.3208  4.09332e+20
-51.2035  4.21586e+20
-51.0862  4.30064e+20
-50.9689  4.34556e+20
-50.8516  4.35425e+20
-50.7343  4.33704e+20
-50.617  4.30573e+20
-50.4997  4.27524e+20
-50.3824  4.25924e+20
-50.2651  4.26853e+20
-50.1478  4.3112e+20
-50.0305  4.388e+20
-49.9132  4.4968e+20
-49.7959  4.62783e+20
-49.6786  4.7683e+20
-49.5613  4.90474e+20
-49.444  5.02366e+20
-49.3267  5.1105e+20
-49.2094  5.15472e+20
-49.092  5.15288e+20
-48.9747  5.10106e+20
-48.8574  5.00518e+20
-48.7401  4.87371e+20
-48.6228  4.71915e+20
-48.5055  4.55668e+20
-48.3882  4.40115e+20
-48.2709  4.26553e+20
-48.1536  4.15932e+20
-48.0363  4.0878e+20
-47.919  4.051e+20
-47.8017  4.0456e+20
-47.6844  4.06385e+20
-47.5671  4.09747e+20
-47.4498  4.1366e+20
-47.3325  4.17304e+20
-47.2152  4.20048e+20
-47.0979  4.21465e+20
-46.9806  4.21521e+20
-46.8633  4.2045e+20
-46.7459  4.18535e+20
-46.6286  4.1673e+20
-46.5113  4.15686e+20
-46.394  4.16584e+20
-46.2767  4.20223e+20
-46.1594  4.27481e+20
-46.0421  4.38938e+20
-45.9248  4.546e+20
-45.8075  4.74073e+20
-45.6902  4.96343e+20
-45.5729  5.19941e+20
-45.4556  5.43303e+20
-45.3383  5.64369e+20
-45.221  5.81727e+20
-45.1037  5.93875e+20
-44.9864  6.00179e+20
-44.8691  6.00308e+20
-44.7518  5.94602e+20
-44.6345  5.83683e+20
-44.5172  5.68631e+20
-44.3998  5.50591e+20
-44.2825  5.30603e+20
-44.1652  5.09688e+20
-44.0479  4.88751e+20
-43.9306  4.68472e+20
-43.8133  4.49414e+20
-43.696  4.32113e+20
-43.5787  4.16721e+20
-43.4614  4.03251e+20
-43.3441  3.91734e+20
-43.2268  3.8185e+20
-43.1095  3.73354e+20
-42.9922  3.6588e+20
-42.8749  3.59395e+20
-42.7576  3.54044e+20
-42.6403  3.50254e+20
-42.523  3.48862e+20
-42.4057  3.50765e+20
-42.2884  3.57082e+20
-42.171  3.6869e+20
-42.0537  3.86205e+20
-41.9364  4.09756e+20
-41.8191  4.38791e+20
-41.7018  4.7237e+20
-41.5845  5.08935e+20
-41.4672  5.46798e+20
-41.3499  5.84031e+20
-41.2326  6.19028e+20
-41.1153  6.50285e+20
-40.998  6.76887e+20
-40.8807  6.98327e+20
-40.7634  7.14736e+20
-40.6461  7.26546e+20
-40.5288  7.34659e+20
-40.4115  7.40033e+20
-40.2942  7.43931e+20
-40.1769  7.47134e+20
-40.0596  7.50093e+20
-39.9423  7.53113e+20
-39.825  7.55837e+20
-39.7076  7.57493e+20
-39.5903  7.5709e+20
-39.473  7.53542e+20
-39.3557  7.4606e+20
-39.2384  7.34106e+20
-39.1211  7.1783e+20
-39.0038  6.9803e+20
-38.8865  6.75899e+20
-38.7692  6.53084e+20
-38.6519  6.31327e+20
-38.5346  6.12287e+20
-38.4173  5.97337e+20
-38.3  5.87354e+20
-38.1827  5.82738e+20
-38.0654  5.83774e+20
-37.9481  5.90209e+20
-37.8308  6.01915e+20
-37.7135  6.18367e+20
-37.5962  6.39123e+20
-37.4789  6.63528e+20
-37.3615  6.90816e+20
-37.2442  7.19722e+20
-37.1269  7.48909e+20
-37.0096  7.76819e+20
-36.8923  8.02092e+20
-36.775  8.2351e+20
-36.6577  8.40282e+20
-36.5404  8.5231e+20
-36.4231  8.60037e+20
-36.3058  8.64233e+20
-36.1885  8.66201e+20
-36.0712  8.66975e+20
-35.9539  8.67726e+20
-35.8366  8.69002e+20
-35.7193  8.71287e+20
-35.602  8.74724e+20
-35.4847  8.79098e+20
-35.3674  8.84185e+20
-35.2501  8.89932e+20
-35.1328  8.96137e+20
-35.0154  9.02845e+20
-34.8981  9.09809e+20
-34.7808  9.1712e+20
-34.6635  9.24724e+20
-34.5462  9.32502e+20
-34.4289  9.40576e+20
-34.3116  9.49204e+20
-34.1943  9.58816e+20
-34.077  9.70024e+20
-33.9597  9.835e+20
-33.8424  9.99921e+20
-33.7251  1.0197e+21
-33.6078  1.04287e+21
-33.4905  1.06891e+21
-33.3732  1.09703e+21
-33.2559  1.12606e+21
-33.1386  1.15482e+21
-33.0213  1.18219e+21
-32.904  1.20729e+21
-32.7867  1.22992e+21
-32.6693  1.25022e+21
-32.552  1.2687e+21
-32.4347  1.28608e+21
-32.3174  1.30333e+21
-32.2001  1.3214e+21
-32.0828  1.34096e+21
-31.9655  1.36252e+21
-31.8482  1.38631e+21
-31.7309  1.41238e+21
-31.6136  1.44041e+21
-31.4963  1.46998e+21
-31.379  1.50041e+21
-31.2617  1.53106e+21
-31.1444  1.561e+21
-31.0271  1.58956e+21
-30.9098  1.61627e+21
-30.7925  1.64058e+21
-30.6752  1.66242e+21
-30.5579  1.68194e+21
-30.4406  1.69941e+21
-30.3232  1.71541e+21
-30.2059  1.73001e+21
-30.0886  1.74366e+21
-29.9713  1.75663e+21
-29.854  1.76889e+21
-29.7367  1.78051e+21
-29.6194  1.79168e+21
-29.5021  1.80263e+21
-29.3848  1.81379e+21
-29.2675  1.82587e+21
-29.1502  1.83959e+21
-29.0329  1.8558e+21
-28.9156  1.87534e+21
-28.7983  1.89881e+21
-28.681  1.92676e+21
-28.5637  1.9598e+21
-28.4464  1.99824e+21
-28.3291  2.04238e+21
-28.2118  2.09221e+21
-28.0944  2.14796e+21
-27.9771  2.20921e+21
-27.8598  2.27549e+21
-27.7425  2.34552e+21
-27.6252  2.41803e+21
-27.5079  2.49114e+21
-27.3906  2.56291e+21
-27.2733  2.6315e+21
-27.156  2.69542e+21
-27.0387  2.75361e+21
-26.9214  2.80577e+21
-26.8041  2.85221e+21
-26.6868  2.89421e+21
-26.5695  2.93331e+21
-26.4522  2.97155e+21
-26.3349  3.011e+21
-26.2176  3.05384e+21
-26.1003  3.10125e+21
-25.983  3.15414e+21
-25.8657  3.21255e+21
-25.7483  3.27544e+21
-25.631  3.34122e+21
-25.5137  3.40681e+21
-25.3964  3.46919e+21
-25.2791  3.52488e+21
-25.1618  3.57059e+21
-25.0445  3.6034e+21
-24.9272  3.62181e+21
-24.8099  3.62519e+21
-24.6926  3.61451e+21
-24.5753  3.59246e+21
-24.458  3.56248e+21
-24.3407  3.52916e+21
-24.2234  3.49774e+21
-24.1061  3.47307e+21
-23.9888  3.45996e+21
-23.8715  3.46218e+21
-23.7542  3.48262e+21
-23.6369  3.52231e+21
-23.5196  3.58123e+21
-23.4023  3.65805e+21
-23.2849  3.74968e+21
-23.1676  3.85238e+21
-23.0503  3.96131e+21
-22.933  4.07146e+21
-22.8157  4.17796e+21
-22.6984  4.27643e+21
-22.5811  4.36368e+21
-22.4638  4.43768e+21
-22.3465  4.4978e+21
-22.2292  4.54515e+21
-22.1119  4.5818e+21
-21.9946  4.61136e+21
-21.8773  4.63758e+21
-21.76  4.66459e+21
-21.6427  4.69641e+21
-21.5254  4.73658e+21
-21.4081  4.78703e+21
-21.2908  4.84905e+21
-21.1735  4.92257e+21
-21.0561  5.00601e+21
-20.9388  5.09725e+21
-20.8215  5.19268e+21
-20.7042  5.28845e+21
-20.5869  5.38041e+21
-20.4696  5.465e+21
-20.3523  5.53871e+21
-20.235  5.59999e+21
-20.1177  5.64758e+21
-20.0004  5.6824e+21
-19.8831  5.70663e+21
-19.7658  5.72315e+21
-19.6485  5.73572e+21
-19.5312  5.74838e+21
-19.4139  5.76468e+21
-19.2966  5.78762e+21
-19.1793  5.81885e+21
-19.062  5.85929e+21
-18.9447  5.90801e+21
-18.8274  5.96298e+21
-18.71  6.02243e+21
-18.5927  6.08299e+21
-18.4754  6.14187e+21
-18.3581  6.19696e+21
-18.2408  6.24606e+21
-18.1235  6.28878e+21
-18.0062  6.32547e+21
-17.8889  6.35743e+21
-17.7716  6.38711e+21
-17.6543  6.41692e+21
-17.537  6.45048e+21
-17.4197  6.49052e+21
-17.3024  6.53993e+21
-17.1851  6.60041e+21
-17.0678  6.67255e+21
-16.9505  6.75654e+21
-16.8332  6.85127e+21
-16.7159  6.95429e+21
-16.5986  7.06263e+21
-16.4813  7.17312e+21
-16.364  7.28218e+21
-16.2466  7.38722e+21
-16.1293  7.48594e+21
-16.012  7.57646e+21
-15.8947  7.65833e+21
-15.7774  7.73219e+21
-15.6601  7.79919e+21
-15.5428  7.86183e+21
-15.4255  7.9224e+21
-15.3082  7.98412e+21
-15.1909  8.05078e+21
-15.0736  8.12449e+21
-14.9563  8.20777e+21
-14.839  8.30164e+21
-14.7217  8.40604e+21
-14.6044  8.51939e+21
-14.4871  8.63875e+21
-14.3698  8.76029e+21
-14.2525  8.8789e+21
-14.1352  8.98895e+21
-14.0178  9.08652e+21
-13.9005  9.16696e+21
-13.7832  9.22788e+21
-13.6659  9.26906e+21
-13.5486  9.2907e+21
-13.4313  9.29623e+21
-13.314  9.2897e+21
-13.1967  9.27619e+21
-13.0794  9.26199e+21
-12.9621  9.25156e+21
-12.8448  9.25057e+21
-12.7275  9.26229e+21
-12.6102  9.2891e+21
-12.4929  9.33149e+21
-12.3756  9.3881e+21
-12.2583  9.45692e+21
-12.141  9.53413e+21
-12.0237  9.61518e+21
-11.9064  9.69467e+21
-11.7891  9.7679e+21
-11.6718  9.83033e+21
-11.5544  9.87907e+21
-11.4371  9.91309e+21
-11.3198  9.93171e+21
-11.2025  9.93719e+21
-11.0852  9.93327e+21
-10.9679  9.92485e+21
-10.8506  9.9176e+21
-10.7333  9.91738e+21
-10.616  9.92982e+21
-10.4987  9.96116e+21
-10.3814  1.0014e+22
-10.2641  1.00917e+22
-10.1468  1.01948e+22
-10.0295  1.03223e+22
-9.91217  1.04711e+22
-9.79487  1.06368e+22
-9.67756  1.08135e+22
-9.56026  1.09938e+22
-9.44295  1.11698e+22
-9.32565  1.13346e+22
-9.20834  1.14807e+22
-9.09104  1.16025e+22
-8.97373  1.16965e+22
-8.85643  1.17599e+22
-8.73913  1.17935e+22
-8.62182  1.17991e+22
-8.50452  1.17808e+22
-8.38721  1.17445e+22
-8.26991  1.16954e+22
-8.1526  1.16411e+22
-8.03529  1.15873e+22
-7.91799  1.154e+22
-7.80069  1.15034e+22
-7.68338  1.14805e+22
-7.56608  1.14739e+22
-7.44877  1.14838e+22
-7.33146  1.15095e+22
-7.21416  1.15491e+22
-7.09685  1.16002e+22
-6.97955  1.16597e+22
-6.86224  1.17244e+22
-6.74494  1.17923e+22
-6.62763  1.18596e+22
-6.51033  1.19246e+22
-6.39302  1.19857e+22
-6.27572  1.20421e+22
-6.15842  1.20927e+22
-6.04111  1.21382e+22
-5.92381  1.21785e+22
-5.8065  1.22158e+22
-5.68919  1.22501e+22
-5.57189  1.22843e+22
-5.45458  1.23194e+22
-5.33728  1.23578e+22
-5.21997  1.24003e+22
-5.10267  1.24479e+22
-4.98536  1.25006e+22
-4.86806  1.25578e+22
-4.75075  1.26177e+22
-4.63345  1.26789e+22
-4.51614  1.27386e+22
-4.39884  1.27945e+22
-4.28154  1.28449e+22
-4.16423  1.28877e+22
-4.04692  1.2922e+22
-3.92962  1.29473e+22
-3.81231  1.29641e+22
-3.69501  1.29737e+22
-3.5777  1.29767e+22
-3.4604  1.29759e+22
-3.34309  1.29728e+22
-3.22579  1.29691e+22
-3.10849  1.29666e+22
-2.99118  1.29665e+22
-2.87387  1.29705e+22
-2.75657  1.29788e+22
-2.63926  1.29922e+22
-2.52196  1.30106e+22
-2.40465  1.30332e+22
-2.28735  1.30595e+22
-2.17005  1.3088e+22
-2.05274  1.31183e+22
-1.93544  1.31475e+22
-1.81813  1.31745e+22
-1.70083  1.31973e+22
-1.58352  1.32141e+22
-1.46622  1.32235e+22
-1.34891  1.32249e+22
-1.2316  1.32175e+22
-1.1143  1.32022e+22
-0.996995  1.31789e+22
-0.87969  1.31502e+22
-0.762385  1.31173e+22
-0.64508  1.30833e+22
-0.527775  1.30502e+22
-0.41047  1.30204e+22
-0.293165  1.2996e+22
-0.17586  1.29786e+22
-0.058555  1.29695e+22
0.05875  1.29691e+22
0.176055  1.29775e+22
0.29336  1.2994e+22
0.410665  1.30177e+22
0.52797  1.30468e+22
0.645275  1.30791e+22
0.76258  1.31122e+22
0.879885  1.31441e+22
0.99719  1.31721e+22
1.1145  1.31941e+22
1.2318  1.3209e+22
1.3491  1.32157e+22
1.46641  1.32137e+22
1.58371  1.32035e+22
1.70102  1.31861e+22
1.81832  1.31631e+22
1.93563  1.31355e+22
2.05294  1.31059e+22
2.17024  1.30758e+22
2.28754  1.30468e+22
2.40485  1.30204e+22
2.52216  1.29973e+22
2.63946  1.29791e+22
2.75677  1.29654e+22
2.87407  1.29567e+22
2.99137  1.29525e+22
3.10868  1.29519e+22
3.22599  1.29537e+22
3.34329  1.29569e+22
3.4606  1.29594e+22
3.5779  1.29595e+22
3.69521  1.29551e+22
3.81251  1.29447e+22
3.92982  1.29264e+22
4.04712  1.28999e+22
4.16443  1.28645e+22
4.28173  1.28206e+22
4.39903  1.27693e+22
4.51634  1.2712e+22
4.63364  1.26517e+22
4.75095  1.25898e+22
4.86825  1.25291e+22
4.98556  1.24716e+22
5.10286  1.24184e+22
5.22017  1.23705e+22
5.33748  1.23277e+22
5.45478  1.2289e+22
5.57209  1.22535e+22
5.68939  1.22188e+22
5.8067  1.21837e+22
5.924  1.21463e+22
6.0413  1.21052e+22
6.15861  1.20591e+22
6.27591  1.20077e+22
6.39322  1.1951e+22
6.51052  1.18895e+22
6.62783  1.18237e+22
6.74514  1.17559e+22
6.86244  1.16881e+22
6.97975  1.16229e+22
7.09705  1.15635e+22
7.21436  1.15124e+22
7.33166  1.1473e+22
7.44897  1.14475e+22
7.56627  1.14378e+22
7.68358  1.14445e+22
7.80088  1.14671e+22
7.91819  1.15037e+22
8.03549  1.15511e+22
8.1528  1.16046e+22
8.2701  1.16582e+22
8.38741  1.17062e+22
8.50471  1.17417e+22
8.62202  1.17585e+22
8.73932  1.17515e+22
8.85662  1.17167e+22
8.97393  1.16518e+22
9.09123  1.15567e+22
9.20854  1.14335e+22
9.32584  1.12869e+22
9.44315  1.11214e+22
9.56045  1.0945e+22
9.67776  1.07647e+22
9.79506  1.05884e+22
9.91237  1.04232e+22
10.0297  1.02748e+22
10.147  1.01481e+22
10.2643  1.0046e+22
10.3816  9.96864e+21
10.4989  9.91632e+21
10.6162  9.88553e+21
10.7335  9.87286e+21
10.8508  9.87275e+21
10.9681  9.87966e+21
11.0854  9.88761e+21
11.2027  9.89076e+21
11.32  9.88387e+21
11.4373  9.8641e+21
11.5546  9.82925e+21
11.6719  9.77912e+21
11.7893  9.71591e+21
11.9066  9.64194e+21
12.0239  9.56182e+21
12.1412  9.48079e+21
12.2585  9.40354e+21
12.3758  9.3347e+21
12.4931  9.27815e+21
12.6104  9.23625e+21
12.7277  9.21004e+21
12.845  9.199e+21
12.9623  9.20012e+21
13.0796  9.21067e+21
13.1969  9.22523e+21
13.3142  9.23831e+21
13.4315  9.24448e+21
13.5488  9.23845e+21
13.6661  9.21599e+21
13.7834  9.17401e+21
13.9007  9.11202e+21
14.018  9.03095e+21
14.1354  8.93245e+21
14.2527  8.82147e+21
14.37  8.70237e+21
14.4873  8.58038e+21
14.6046  8.46071e+21
14.7219  8.34702e+21
14.8392  8.2427e+21
14.9565  8.149e+21
15.0738  8.06568e+21
15.1911  7.99229e+21
15.3084  7.92593e+21
15.4257  7.86423e+21
15.543  7.80373e+21
15.6603  7.74159e+21
15.7776  7.67501e+21
15.8949  7.60172e+21
16.0122  7.51992e+21
16.1295  7.42979e+21
16.2468  7.33167e+21
16.3641  7.22703e+21
16.4815  7.11857e+21
16.5988  7.00874e+21
16.7161  6.90097e+21
16.8334  6.79894e+21
16.9507  6.70505e+21
17.068  6.62159e+21
17.1853  6.55001e+21
17.3026  6.49028e+21
17.4199  6.44159e+21
17.5372  6.40223e+21
17.6545  6.3689e+21
17.7718  6.33943e+21
17.8891  6.31009e+21
18.0064  6.27822e+21
18.1237  6.2415e+21
18.241  6.1987e+21
18.3583  6.14951e+21
18.4756  6.09434e+21
18.5929  6.03525e+21
18.7102  5.97476e+21
18.8275  5.91515e+21
18.9449  5.85976e+21
19.0622  5.81104e+21
19.1795  5.77034e+21
19.2968  5.73872e+21
19.4141  5.71548e+21
19.5314  5.69896e+21
19.6487  5.68585e+21
19.766  5.67273e+21
19.8833  5.65591e+21
20.0006  5.63117e+21
20.1179  5.59586e+21
20.2352  5.54774e+21
20.3525  5.48639e+21
20.4698  5.41271e+21
20.5871  5.32854e+21
20.7044  5.23681e+21
20.8217  5.14148e+21
20.939  5.04659e+21
21.0563  4.95615e+21
21.1736  4.87338e+21
21.291  4.80073e+21
21.4083  4.73923e+21
21.5256  4.68952e+21
21.6429  4.65001e+21
21.7602  4.61845e+21
21.8775  4.59168e+21
21.9948  4.56556e+21
22.1121  4.53615e+21
22.2294  4.49959e+21
22.3467  4.45216e+21
22.464  4.39217e+21
22.5813  4.31834e+21
22.6986  4.23139e+21
22.8159  4.13321e+21
22.9332  4.0273e+21
23.0505  3.91789e+21
23.1678  3.80974e+21
23.2851  3.70798e+21
23.4024  3.61735e+21
23.5198  3.54149e+21
23.6371  3.48336e+21
23.7544  3.44454e+21
23.8717  3.42474e+21
23.989  3.42298e+21
24.1063  3.43644e+21
24.2236  3.46125e+21
24.3409  3.49266e+21
24.4582  3.52564e+21
24.5755  3.55535e+21
24.6928  3.577e+21
24.8101  3.58706e+21
24.9274  3.58311e+21
25.0447  3.5643e+21
25.162  3.53126e+21
25.2793  3.48552e+21
25.3966  3.42993e+21
25.5139  3.36757e+21
25.6312  3.30216e+21
25.7485  3.23696e+21
25.8658  3.17453e+21
25.9832  3.11677e+21
26.1005  3.06426e+21
26.2178  3.01744e+21
26.3351  2.9752e+21
26.4524  2.93614e+21
26.5697  2.89825e+21
26.687  2.85942e+21
26.8043  2.8177e+21
26.9216  2.77153e+21
27.0389  2.71957e+21
27.1562  2.66171e+21
27.2735  2.59809e+21
27.3908  2.52993e+21
27.5081  2.45862e+21
27.6254  2.38611e+21
27.7427  2.31431e+21
27.86  2.24494e+21
27.9773  2.17948e+21
28.0946  2.11901e+21
28.212  2.06405e+21
28.3293  2.01492e+21
28.4466  1.97166e+21
28.5639  1.93396e+21
28.6812  1.90163e+21
28.7985  1.87429e+21
28.9158  1.85141e+21
29.0331  1.8325e+21
29.1504  1.81671e+21
29.2677  1.80343e+21
29.385  1.79171e+21
29.5023  1.78073e+21
29.6196  1.76995e+21
29.7369  1.75891e+21
29.8542  1.74743e+21
29.9715  1.73522e+21
30.0888  1.7224e+21
30.2061  1.70866e+21
30.3234  1.69405e+21
30.4407  1.67813e+21
30.558  1.6607e+21
30.6754  1.64127e+21
30.7927  1.61942e+21
30.91  1.59529e+21
31.0273  1.56885e+21
31.1446  1.5405e+21
31.2619  1.5108e+21
31.3792  1.48056e+21
31.4965  1.45044e+21
31.6138  1.42129e+21
31.7311  1.39359e+21
31.8484  1.36794e+21
31.9657  1.34448e+21
32.083  1.32326e+21
32.2003  1.30401e+21
32.3176  1.28619e+21
32.4349  1.26916e+21
32.5522  1.25193e+21
32.6695  1.2337e+21
32.7868  1.2136e+21
32.9042  1.19114e+21
33.0215  1.16621e+21
33.1388  1.13919e+21
33.2561  1.11084e+21
33.3734  1.08218e+21
33.4907  1.05449e+21
33.608  1.02895e+21
33.7253  1.00634e+21
33.8426  9.87006e+20
33.9599  9.71055e+20
34.0772  9.57927e+20
34.1945  9.47067e+20
34.3118  9.37742e+20
34.4291  9.29332e+20
34.5464  9.21435e+20
34.6637  9.13753e+20
34.781  9.06336e+20
34.8983  8.9912e+20
35.0156  8.92266e+20
35.1329  8.85766e+20
35.2503  8.79707e+20
35.3676  8.74135e+20
35.4849  8.69128e+20
35.6022  8.65003e+20
35.7195  8.61835e+20
35.8368  8.59717e+20
35.9541  8.58643e+20
36.0714  8.58083e+20
36.1887  8.5743e+20
36.306  8.55622e+20
36.4233  8.51386e+20
36.5406  8.43714e+20
36.6579  8.31642e+20
36.7752  8.14865e+20
36.8925  7.93472e+20
37.0098  7.68212e+20
37.1271  7.40421e+20
37.2444  7.11377e+20
37.3617  6.82714e+20
37.479  6.55773e+20
37.5964  6.31627e+20
37.7137  6.11248e+20
37.831  5.95179e+20
37.9483  5.83914e+20
38.0656  5.77799e+20
38.1829  5.77109e+20
38.3002  5.82094e+20
38.4175  5.924e+20
38.5348  6.07619e+20
38.6521  6.26855e+20
38.7694  6.48665e+20
38.8867  6.7155e+20
39.004  6.93623e+20
39.1213  7.13412e+20
39.2386  7.29506e+20
39.3559  7.41311e+20
39.4732  7.48736e+20
39.5905  7.52164e+20
39.7078  7.52572e+20
39.8251  7.5104e+20
39.9425  7.48416e+20
40.0598  7.45513e+20
40.1771  7.42611e+20
40.2944  7.3966e+20
40.4117  7.35878e+20
40.529  7.30586e+20
40.6463  7.22555e+20
40.7636  7.10662e+20
40.8809  6.94241e+20
40.9982  6.72816e+20
41.1155  6.46113e+20
41.2328  6.14799e+20
41.3501  5.79862e+20
41.4674  5.42735e+20
41.5847  5.05024e+20
41.702  4.6866e+20
41.8193  4.35372e+20
41.9366  4.06642e+20
42.0539  3.83421e+20
42.1712  3.66234e+20
42.2885  3.54957e+20
42.4059  3.48898e+20
42.5232  3.47226e+20
42.6405  3.48775e+20
42.7578  3.52699e+20
42.8751  3.58137e+20
42.9924  3.64705e+20
43.1097  3.7217e+20
43.227  3.80727e+20
43.3443  3.90649e+20
43.4616  4.02199e+20
43.5789  4.15613e+20
43.6962  4.31027e+20
43.8135  4.48372e+20
43.9308  4.67405e+20
44.0481  4.87663e+20
44.1654  5.08614e+20
44.2827  5.2944e+20
44.4  5.49339e+20
44.5173  5.67408e+20
44.6347  5.8236e+20
44.752  5.93205e+20
44.8693  5.98765e+20
44.9866  5.98564e+20
45.1039  5.92114e+20
45.2212  5.79899e+20
45.3385  5.62552e+20
45.4558  5.4137e+20
45.5731  5.18112e+20
45.6904  4.94567e+20
45.8077  4.72376e+20
45.925  4.53036e+20
46.0423  4.37501e+20
46.1596  4.26211e+20
46.2769  4.1901e+20
46.3942  4.15493e+20
46.5115  4.14678e+20
46.6288  4.15742e+20
46.7461  4.17577e+20
46.8634  4.19384e+20
46.9808  4.20592e+20
47.0981  4.20451e+20
47.2154  4.19058e+20
47.3327  4.16247e+20
47.45  4.12712e+20
47.5673  4.08868e+20
47.6846  4.05536e+20
47.8019  4.03792e+20
47.9192  4.04435e+20
48.0365  4.08237e+20
48.1538  4.1551e+20
48.2711  4.26163e+20
48.3884  4.39788e+20
48.5057  4.55307e+20
48.623  4.71591e+20
48.7403  4.8693e+20
48.8576  4.99931e+20
48.9749  5.09331e+20
49.0922  5.14282e+20
49.2095  5.1435e+20
49.3269  5.09683e+20
49.4442  5.01011e+20
49.5615  4.88996e+20
49.6788  4.75239e+20
49.7961  4.61175e+20
49.9134  4.48133e+20
50.0307  4.37344e+20
50.148  4.29728e+20
50.2653  4.25598e+20
50.3826  4.24672e+20
50.4999  4.2631e+20
50.6172  4.29362e+20
50.7345  4.32455e+20
50.8518  4.34035e+20
