#S 1 spectral density
#N 2
#UFWHM 19.4726
#L  abscissas [um]  spectral density
-58.5938  1.36827e+20
-58.4764  1.43897e+20
-58.3591  1.49647e+20
-58.2418  1.53288e+20
-58.1245  1.54425e+20
-58.0072  1.53118e+20
-57.8899  1.49635e+20
-57.7726  1.44655e+20
-57.6553  1.38876e+20
-57.538  1.33181e+20
-57.4207  1.28164e+20
-57.3034  1.24377e+20
-57.1861  1.22039e+20
-57.0688  1.21368e+20
-56.9515  1.22313e+20
-56.8342  1.24878e+20
-56.7169  1.29016e+20
-56.5996  1.34459e+20
-56.4823  1.40977e+20
-56.365  1.48135e+20
-56.2477  1.55215e+20
-56.1303  1.61555e+20
-56.013  1.66387e+20
-55.8957  1.69127e+20
-55.7784  1.69292e+20
-55.6611  1.66817e+20
-55.5438  1.61992e+20
-55.4265  1.55313e+20
-55.3092  1.47507e+20
-55.1919  1.39385e+20
-55.0746  1.31678e+20
-54.9573  1.24999e+20
-54.84  1.19822e+20
-54.7227  1.16404e+20
-54.6054  1.14954e+20
-54.4881  1.15586e+20
-54.3708  1.18345e+20
-54.2535  1.23086e+20
-54.1362  1.29637e+20
-54.0189  1.3762e+20
-53.9016  1.46497e+20
-53.7842  1.55584e+20
-53.6669  1.64259e+20
-53.5496  1.7182e+20
-53.4323  1.77769e+20
-53.315  1.81926e+20
-53.1977  1.84296e+20
-53.0804  1.85148e+20
-52.9631  1.84871e+20
-52.8458  1.84007e+20
-52.7285  1.82902e+20
-52.6112  1.81878e+20
-52.4939  1.81047e+20
-52.3766  1.8054e+20
-52.2593  1.80278e+20
-52.142  1.80334e+20
-52.0247  1.80808e+20
-51.9074  1.81734e+20
-51.7901  1.83265e+20
-51.6728  1.85401e+20
-51.5555  1.87974e+20
-51.4381  1.90711e+20
-51.3208  1.93148e+20
-51.2035  1.94808e+20
-51.0862  1.95106e+20
-50.9689  1.93735e+20
-50.8516  1.90522e+20
-50.7343  1.8557e+20
-50.617  1.79155e+20
-50.4997  1.71856e+20
-50.3824  1.64287e+20
-50.2651  1.57096e+20
-50.1478  1.50865e+20
-50.0305  1.46142e+20
-49.9132  1.4326e+20
-49.7959  1.42554e+20
-49.6786  1.44167e+20
-49.5613  1.48142e+20
-49.444  1.54442e+20
-49.3267  1.62899e+20
-49.2094  1.73159e+20
-49.092  1.84788e+20
-48.9747  1.97273e+20
-48.8574  2.09974e+20
-48.7401  2.22176e+20
-48.6228  2.33321e+20
-48.5055  2.42796e+20
-48.3882  2.50079e+20
-48.2709  2.54885e+20
-48.1536  2.57144e+20
-48.0363  2.56787e+20
-47.919  2.54119e+20
-47.8017  2.4952e+20
-47.6844  2.43692e+20
-47.5671  2.37281e+20
-47.4498  2.31128e+20
-47.3325  2.26067e+20
-47.2152  2.22692e+20
-47.0979  2.21506e+20
-46.9806  2.22611e+20
-46.8633  2.25859e+20
-46.7459  2.30807e+20
-46.6286  2.36785e+20
-46.5113  2.4318e+20
-46.394  2.4919e+20
-46.2767  2.54431e+20
-46.1594  2.58512e+20
-46.0421  2.61299e+20
-45.9248  2.62776e+20
-45.8075  2.6313e+20
-45.6902  2.62527e+20
-45.5729  2.61178e+20
-45.4556  2.59182e+20
-45.3383  2.56887e+20
-45.221  2.54366e+20
-45.1037  2.52097e+20
-44.9864  2.50397e+20
-44.8691  2.49653e+20
-44.7518  2.50243e+20
-44.6345  2.52383e+20
-44.5172  2.56005e+20
-44.3998  2.6083e+20
-44.2825  2.66441e+20
-44.1652  2.72194e+20
-44.0479  2.77293e+20
-43.9306  2.81228e+20
-43.8133  2.83468e+20
-43.696  2.83695e+20
-43.5787  2.81971e+20
-43.4614  2.78599e+20
-43.3441  2.73831e+20
-43.2268  2.68176e+20
-43.1095  2.62046e+20
-42.9922  2.55979e+20
-42.8749  2.50238e+20
-42.7576  2.4523e+20
-42.6403  2.41366e+20
-42.523  2.38879e+20
-42.4057  2.38144e+20
-42.2884  2.3927e+20
-42.171  2.42302e+20
-42.0537  2.47124e+20
-41.9364  2.53275e+20
-41.8191  2.60317e+20
-41.7018  2.67374e+20
-41.5845  2.739e+20
-41.4672  2.79176e+20
-41.3499  2.82616e+20
-41.2326  2.83868e+20
-41.1153  2.82903e+20
-40.998  2.79839e+20
-40.8807  2.75106e+20
-40.7634  2.69063e+20
-40.6461  2.62561e+20
-40.5288  2.56112e+20
-40.4115  2.50597e+20
-40.2942  2.46673e+20
-40.1769  2.4487e+20
-40.0596  2.45622e+20
-39.9423  2.49088e+20
-39.825  2.55069e+20
-39.7076  2.63141e+20
-39.5903  2.72683e+20
-39.473  2.82902e+20
-39.3557  2.92897e+20
-39.2384  3.02026e+20
-39.1211  3.09712e+20
-39.0038  3.15563e+20
-38.8865  3.19588e+20
-38.7692  3.21941e+20
-38.6519  3.22709e+20
-38.5346  3.22179e+20
-38.4173  3.20501e+20
-38.3  3.17826e+20
-38.1827  3.14188e+20
-38.0654  3.09776e+20
-37.9481  3.04936e+20
-37.8308  3.0003e+20
-37.7135  2.95681e+20
-37.5962  2.92446e+20
-37.4789  2.90784e+20
-37.3615  2.91057e+20
-37.2442  2.93168e+20
-37.1269  2.9681e+20
-37.0096  3.01292e+20
-36.8923  3.06038e+20
-36.775  3.10404e+20
-36.6577  3.13881e+20
-36.5404  3.16382e+20
-36.4231  3.18194e+20
-36.3058  3.19747e+20
-36.1885  3.21728e+20
-36.0712  3.24554e+20
-35.9539  3.28808e+20
-35.8366  3.34503e+20
-35.7193  3.41612e+20
-35.602  3.49942e+20
-35.4847  3.59114e+20
-35.3674  3.68946e+20
-35.2501  3.79344e+20
-35.1328  3.90241e+20
-35.0154  4.01736e+20
-34.8981  4.1384e+20
-34.7808  4.26556e+20
-34.6635  4.39663e+20
-34.5462  4.5282e+20
-34.4289  4.6559e+20
-34.3116  4.7746e+20
-34.1943  4.8817e+20
-34.077  4.97481e+20
-33.9597  5.05258e+20
-33.8424  5.11766e+20
-33.7251  5.17191e+20
-33.6078  5.21758e+20
-33.4905  5.25636e+20
-33.3732  5.28961e+20
-33.2559  5.31874e+20
-33.1386  5.34385e+20
-33.0213  5.36596e+20
-32.904  5.38751e+20
-32.7867  5.40998e+20
-32.6693  5.43734e+20
-32.552  5.47203e+20
-32.4347  5.51528e+20
-32.3174  5.56912e+20
-32.2001  5.63274e+20
-32.0828  5.70573e+20
-31.9655  5.78479e+20
-31.8482  5.86763e+20
-31.7309  5.95356e+20
-31.6136  6.03836e+20
-31.4963  6.1216e+20
-31.379  6.1991e+20
-31.2617  6.27077e+20
-31.1444  6.33244e+20
-31.0271  6.38048e+20
-30.9098  6.4137e+20
-30.7925  6.42861e+20
-30.6752  6.42621e+20
-30.5579  6.40837e+20
-30.4406  6.3774e+20
-30.3232  6.33869e+20
-30.2059  6.29528e+20
-30.0886  6.25458e+20
-29.9713  6.22083e+20
-29.854  6.19777e+20
-29.7367  6.18958e+20
-29.6194  6.19838e+20
-29.5021  6.22752e+20
-29.3848  6.27764e+20
-29.2675  6.34679e+20
-29.1502  6.43532e+20
-29.0329  6.53865e+20
-28.9156  6.64989e+20
-28.7983  6.76089e+20
-28.681  6.86322e+20
-28.5637  6.94878e+20
-28.4464  7.01037e+20
-28.3291  7.04423e+20
-28.2118  7.05211e+20
-28.0944  7.03549e+20
-27.9771  7.00207e+20
-27.8598  6.95982e+20
-27.7425  6.91478e+20
-27.6252  6.87659e+20
-27.5079  6.84869e+20
-27.3906  6.83574e+20
-27.2733  6.83678e+20
-27.156  6.8509e+20
-27.0387  6.87821e+20
-26.9214  6.91249e+20
-26.8041  6.95217e+20
-26.6868  6.99152e+20
-26.5695  7.02926e+20
-26.4522  7.06116e+20
-26.3349  7.0828e+20
-26.2176  7.09433e+20
-26.1003  7.09386e+20
-25.983  7.08495e+20
-25.8657  7.07234e+20
-25.7483  7.06137e+20
-25.631  7.0607e+20
-25.5137  7.07587e+20
-25.3964  7.11683e+20
-25.2791  7.18845e+20
-25.1618  7.29344e+20
-25.0445  7.43352e+20
-24.9272  7.60578e+20
-24.8099  7.80654e+20
-24.6926  8.02825e+20
-24.5753  8.25926e+20
-24.458  8.49163e+20
-24.3407  8.71247e+20
-24.2234  8.9094e+20
-24.1061  9.07112e+20
-23.9888  9.1885e+20
-23.8715  9.25619e+20
-23.7542  9.27102e+20
-23.6369  9.23607e+20
-23.5196  9.15986e+20
-23.4023  9.05226e+20
-23.2849  8.92914e+20
-23.1676  8.80609e+20
-23.0503  8.69755e+20
-22.933  8.62057e+20
-22.8157  8.58526e+20
-22.6984  8.60276e+20
-22.5811  8.67687e+20
-22.4638  8.81075e+20
-22.3465  9.00491e+20
-22.2292  9.25317e+20
-22.1119  9.54959e+20
-21.9946  9.88308e+20
-21.8773  1.02435e+21
-21.76  1.06161e+21
-21.6427  1.09854e+21
-21.5254  1.13395e+21
-21.4081  1.16651e+21
-21.2908  1.19552e+21
-21.1735  1.22066e+21
-21.0561  1.24194e+21
-20.9388  1.25998e+21
-20.8215  1.27569e+21
-20.7042  1.29036e+21
-20.5869  1.30539e+21
-20.4696  1.32206e+21
-20.3523  1.34184e+21
-20.235  1.36576e+21
-20.1177  1.3948e+21
-20.0004  1.42956e+21
-19.8831  1.4704e+21
-19.7658  1.51736e+21
-19.6485  1.57019e+21
-19.5312  1.62821e+21
-19.4139  1.69053e+21
-19.2966  1.75586e+21
-19.1793  1.82298e+21
-19.062  1.8903e+21
-18.9447  1.95649e+21
-18.8274  2.02045e+21
-18.71  2.08139e+21
-18.5927  2.13892e+21
-18.4754  2.19302e+21
-18.3581  2.24429e+21
-18.2408  2.2937e+21
-18.1235  2.34225e+21
-18.0062  2.39149e+21
-17.8889  2.44264e+21
-17.7716  2.49737e+21
-17.6543  2.55665e+21
-17.537  2.62156e+21
-17.4197  2.6925e+21
-17.3024  2.76963e+21
-17.1851  2.85272e+21
-17.0678  2.94075e+21
-16.9505  3.03259e+21
-16.8332  3.12687e+21
-16.7159  3.22173e+21
-16.5986  3.31552e+21
-16.4813  3.407e+21
-16.364  3.49493e+21
-16.2466  3.57893e+21
-16.1293  3.65946e+21
-16.012  3.73683e+21
-15.8947  3.81265e+21
-15.7774  3.88856e+21
-15.6601  3.96686e+21
-15.5428  4.04968e+21
-15.4255  4.13904e+21
-15.3082  4.23687e+21
-15.1909  4.34517e+21
-15.0736  4.46438e+21
-14.9563  4.59525e+21
-14.839  4.73725e+21
-14.7217  4.88949e+21
-14.6044  5.04967e+21
-14.4871  5.21562e+21
-14.3698  5.38396e+21
-14.2525  5.55136e+21
-14.1352  5.71448e+21
-14.0178  5.8709e+21
-13.9005  6.01813e+21
-13.7832  6.15495e+21
-13.6659  6.28174e+21
-13.5486  6.3995e+21
-13.4313  6.5101e+21
-13.314  6.61665e+21
-13.1967  6.72239e+21
-13.0794  6.83148e+21
-12.9621  6.94669e+21
-12.8448  7.07171e+21
-12.7275  7.20848e+21
-12.6102  7.35881e+21
-12.4929  7.52344e+21
-12.3756  7.70169e+21
-12.2583  7.89271e+21
-12.141  8.09445e+21
-12.0237  8.30402e+21
-11.9064  8.51803e+21
-11.7891  8.73343e+21
-11.6718  8.94661e+21
-11.5544  9.15515e+21
-11.4371  9.35775e+21
-11.3198  9.55256e+21
-11.2025  9.74032e+21
-11.0852  9.92187e+21
-10.9679  1.00995e+22
-10.8506  1.02756e+22
-10.7333  1.04526e+22
-10.616  1.06332e+22
-10.4987  1.08205e+22
-10.3814  1.10148e+22
-10.2641  1.12177e+22
-10.1468  1.14289e+22
-10.0295  1.16477e+22
-9.91217  1.18716e+22
-9.79487  1.20989e+22
-9.67756  1.23263e+22
-9.56026  1.25508e+22
-9.44295  1.27694e+22
-9.32565  1.29803e+22
-9.20834  1.31817e+22
-9.09104  1.33727e+22
-8.97373  1.35548e+22
-8.85643  1.37296e+22
-8.73913  1.38994e+22
-8.62182  1.4068e+22
-8.50452  1.4239e+22
-8.38721  1.44167e+22
-8.26991  1.46032e+22
-8.1526  1.48015e+22
-8.03529  1.50118e+22
-7.91799  1.5234e+22
-7.80069  1.54662e+22
-7.68338  1.57048e+22
-7.56608  1.59462e+22
-7.44877  1.61856e+22
-7.33146  1.6418e+22
-7.21416  1.66387e+22
-7.09685  1.68442e+22
-6.97955  1.70316e+22
-6.86224  1.72001e+22
-6.74494  1.73509e+22
-6.62763  1.74852e+22
-6.51033  1.76073e+22
-6.39302  1.77217e+22
-6.27572  1.7834e+22
-6.15842  1.79498e+22
-6.04111  1.80738e+22
-5.92381  1.82103e+22
-5.8065  1.83632e+22
-5.68919  1.85331e+22
-5.57189  1.87203e+22
-5.45458  1.89232e+22
-5.33728  1.91391e+22
-5.21997  1.9363e+22
-5.10267  1.95906e+22
-4.98536  1.98161e+22
-4.86806  2.00341e+22
-4.75075  2.02398e+22
-4.63345  2.04302e+22
-4.51614  2.06024e+22
-4.39884  2.07558e+22
-4.28154  2.08918e+22
-4.16423  2.10128e+22
-4.04692  2.11221e+22
-3.92962  2.12243e+22
-3.81231  2.13237e+22
-3.69501  2.14249e+22
-3.5777  2.15302e+22
-3.4604  2.16421e+22
-3.34309  2.17603e+22
-3.22579  2.18838e+22
-3.10849  2.20096e+22
-2.99118  2.21339e+22
-2.87387  2.22525e+22
-2.75657  2.23608e+22
-2.63926  2.24551e+22
-2.52196  2.25322e+22
-2.40465  2.25911e+22
-2.28735  2.26316e+22
-2.17005  2.26563e+22
-2.05274  2.26691e+22
-1.93544  2.2675e+22
-1.81813  2.26804e+22
-1.70083  2.26921e+22
-1.58352  2.27167e+22
-1.46622  2.27598e+22
-1.34891  2.28257e+22
-1.2316  2.29166e+22
-1.1143  2.30328e+22
-0.996995  2.31717e+22
-0.87969  2.33287e+22
-0.762385  2.34966e+22
-0.64508  2.36668e+22
-0.527775  2.38295e+22
-0.41047  2.3975e+22
-0.293165  2.40937e+22
-0.17586  2.41778e+22
-0.058555  2.42216e+22
0.05875  2.42222e+22
0.176055  2.41794e+22
0.29336  2.40964e+22
0.410665  2.3979e+22
0.52797  2.38351e+22
0.645275  2.36739e+22
0.76258  2.35056e+22
0.879885  2.33398e+22
0.99719  2.31852e+22
1.1145  2.30487e+22
1.2318  2.2935e+22
1.3491  2.28468e+22
1.46641  2.27837e+22
1.58371  2.27434e+22
1.70102  2.27217e+22
1.81832  2.27127e+22
1.93563  2.27098e+22
2.05294  2.27065e+22
2.17024  2.26963e+22
2.28754  2.26738e+22
2.40485  2.26354e+22
2.52216  2.25788e+22
2.63946  2.25035e+22
2.75677  2.24112e+22
2.87407  2.23045e+22
2.99137  2.21876e+22
3.10868  2.20648e+22
3.22599  2.19403e+22
3.34329  2.18184e+22
3.4606  2.17016e+22
3.5779  2.15909e+22
3.69521  2.14866e+22
3.81251  2.13869e+22
3.92982  2.12884e+22
4.04712  2.11871e+22
4.16443  2.1079e+22
4.28173  2.09592e+22
4.39903  2.08244e+22
4.51634  2.06721e+22
4.63364  2.05015e+22
4.75095  2.03126e+22
4.86825  2.01081e+22
4.98556  1.98919e+22
5.10286  1.96681e+22
5.22017  1.94423e+22
5.33748  1.922e+22
5.45478  1.90062e+22
5.57209  1.88053e+22
5.68939  1.86195e+22
5.8067  1.84514e+22
5.924  1.83001e+22
6.0413  1.81647e+22
6.15861  1.80417e+22
6.27591  1.79269e+22
6.39322  1.78155e+22
6.51052  1.77015e+22
6.62783  1.75797e+22
6.74514  1.74454e+22
6.86244  1.72951e+22
6.97975  1.71264e+22
7.09705  1.69391e+22
7.21436  1.6734e+22
7.33166  1.6513e+22
7.44897  1.62809e+22
7.56627  1.6042e+22
7.68358  1.5801e+22
7.80088  1.55626e+22
7.91819  1.53308e+22
8.03549  1.51093e+22
8.1528  1.48997e+22
8.2701  1.47018e+22
8.38741  1.45155e+22
8.50471  1.43385e+22
8.62202  1.41675e+22
8.73932  1.39989e+22
8.85662  1.38293e+22
8.97393  1.36546e+22
9.09123  1.34723e+22
9.20854  1.32809e+22
9.32584  1.30797e+22
9.44315  1.28683e+22
9.56045  1.26491e+22
9.67776  1.24244e+22
9.79506  1.21966e+22
9.91237  1.19689e+22
10.0297  1.17443e+22
10.147  1.15254e+22
10.2643  1.13139e+22
10.3816  1.11102e+22
10.4989  1.09153e+22
10.6162  1.07275e+22
10.7335  1.05461e+22
10.8508  1.0368e+22
10.9681  1.01911e+22
11.0854  1.00127e+22
11.2027  9.82998e+21
11.32  9.64109e+21
11.4373  9.445e+21
11.5546  9.24161e+21
11.6719  9.03184e+21
11.7893  8.81771e+21
11.9066  8.60176e+21
12.0239  8.38668e+21
12.1412  8.17655e+21
12.2585  7.97448e+21
12.3758  7.78295e+21
12.4931  7.60402e+21
12.6104  7.43885e+21
12.7277  7.28825e+21
12.845  7.15118e+21
12.9623  7.02551e+21
13.0796  6.90947e+21
13.1969  6.79988e+21
13.3142  6.69303e+21
13.4315  6.58529e+21
13.5488  6.47365e+21
13.6661  6.35463e+21
13.7834  6.22637e+21
13.9007  6.08792e+21
14.018  5.93936e+21
14.1354  5.78135e+21
14.2527  5.61652e+21
14.37  5.44776e+21
14.4873  5.278e+21
14.6046  5.11085e+21
14.7219  4.94939e+21
14.8392  4.79628e+21
14.9565  4.65342e+21
15.0738  4.52155e+21
15.1911  4.40157e+21
15.3084  4.29252e+21
15.4257  4.19388e+21
15.543  4.10362e+21
15.6603  4.01999e+21
15.7776  3.94094e+21
15.8949  3.86395e+21
16.0122  3.78713e+21
16.1295  3.70853e+21
16.2468  3.62696e+21
16.3641  3.54165e+21
16.4815  3.45247e+21
16.5988  3.35994e+21
16.7161  3.26473e+21
16.8334  3.16868e+21
16.9507  3.07345e+21
17.068  2.98053e+21
17.1853  2.89144e+21
17.3026  2.8074e+21
17.4199  2.72948e+21
17.5372  2.65781e+21
17.6545  2.59206e+21
17.7718  2.53198e+21
17.8891  2.47658e+21
18.0064  2.42452e+21
18.1237  2.37443e+21
18.241  2.32505e+21
18.3583  2.27469e+21
18.4756  2.22237e+21
18.5929  2.16716e+21
18.7102  2.10857e+21
18.8275  2.04641e+21
18.9449  1.98127e+21
19.0622  1.91398e+21
19.1795  1.84556e+21
19.2968  1.77746e+21
19.4141  1.71116e+21
19.5314  1.64804e+21
19.6487  1.58932e+21
19.766  1.5358e+21
19.8833  1.4883e+21
20.0006  1.44688e+21
20.1179  1.41169e+21
20.2352  1.38221e+21
20.3525  1.35787e+21
20.4698  1.33769e+21
20.5871  1.32042e+21
20.7044  1.30499e+21
20.8217  1.28972e+21
20.939  1.27334e+21
21.0563  1.25467e+21
21.1736  1.23262e+21
21.291  1.20691e+21
21.4083  1.17704e+21
21.5256  1.14368e+21
21.6429  1.10769e+21
21.7602  1.07013e+21
21.8775  1.03234e+21
21.9948  9.95877e+20
22.1121  9.6211e+20
22.2294  9.32183e+20
22.3467  9.07094e+20
22.464  8.87551e+20
22.5813  8.7403e+20
22.6986  8.66515e+20
22.8159  8.64718e+20
22.9332  8.68143e+20
23.0505  8.75733e+20
23.1678  8.86385e+20
23.2851  8.9851e+20
23.4024  9.1048e+20
23.5198  9.20848e+20
23.6371  9.28093e+20
23.7544  9.31146e+20
23.8717  9.29223e+20
23.989  9.22021e+20
24.1063  9.0986e+20
24.2236  8.93327e+20
24.3409  8.7333e+20
24.4582  8.51021e+20
24.5755  8.27606e+20
24.6928  8.04236e+20
24.8101  7.82066e+20
24.9274  7.6199e+20
25.0447  7.44765e+20
25.162  7.30793e+20
25.2793  7.20213e+20
25.3966  7.13224e+20
25.5139  7.09164e+20
25.6312  7.07578e+20
25.7485  7.07755e+20
25.8658  7.08767e+20
25.9832  7.10147e+20
26.1005  7.10873e+20
26.2178  7.10767e+20
26.3351  7.09653e+20
26.4524  7.07421e+20
26.5697  7.04239e+20
26.687  7.00504e+20
26.8043  6.96492e+20
26.9216  6.92556e+20
27.0389  6.89119e+20
27.1562  6.86502e+20
27.2735  6.85118e+20
27.3908  6.85092e+20
27.5081  6.86515e+20
27.6254  6.89361e+20
27.7427  6.93241e+20
27.86  6.97754e+20
27.9773  7.02039e+20
28.0946  7.05291e+20
28.212  7.06874e+20
28.3293  7.06048e+20
28.4466  7.0257e+20
28.5639  6.96366e+20
28.6812  6.87775e+20
28.7985  6.77531e+20
28.9158  6.66442e+20
29.0331  6.55379e+20
29.1504  6.45151e+20
29.2677  6.36397e+20
29.385  6.29476e+20
29.5023  6.24622e+20
29.6196  6.21847e+20
29.7369  6.2106e+20
29.8542  6.21982e+20
29.9715  6.24274e+20
30.0888  6.27834e+20
30.2061  6.31956e+20
30.3234  6.36281e+20
30.4407  6.40284e+20
30.558  6.43362e+20
30.6754  6.45279e+20
30.7927  6.45446e+20
30.91  6.43899e+20
31.0273  6.40675e+20
31.1446  6.35857e+20
31.2619  6.29727e+20
31.3792  6.2266e+20
31.4965  6.14862e+20
31.6138  6.06588e+20
31.7311  5.98086e+20
31.8484  5.89557e+20
31.9657  5.81274e+20
32.083  5.73395e+20
32.2003  5.66174e+20
32.3176  5.59831e+20
32.4349  5.54464e+20
32.5522  5.50172e+20
32.6695  5.46752e+20
32.7868  5.44012e+20
32.9042  5.41723e+20
33.0215  5.39582e+20
33.1388  5.37345e+20
33.2561  5.34849e+20
33.3734  5.31903e+20
33.4907  5.28531e+20
33.608  5.24632e+20
33.7253  5.20038e+20
33.8426  5.14564e+20
33.9599  5.07986e+20
34.0772  5.00068e+20
34.1945  4.9072e+20
34.3118  4.79931e+20
34.4291  4.6797e+20
34.5464  4.55128e+20
34.6637  4.41874e+20
34.781  4.28773e+20
34.8983  4.16019e+20
35.0156  4.03861e+20
35.1329  3.92331e+20
35.2503  3.81378e+20
35.3676  3.70983e+20
35.4849  3.61075e+20
35.6022  3.51826e+20
35.7195  3.43517e+20
35.8368  3.36354e+20
35.9541  3.30619e+20
36.0714  3.26433e+20
36.1887  3.23523e+20
36.306  3.21538e+20
36.4233  3.19911e+20
36.5406  3.18039e+20
36.6579  3.15452e+20
36.7752  3.11898e+20
36.8925  3.07521e+20
37.0098  3.02715e+20
37.1271  2.98179e+20
37.2444  2.94589e+20
37.3617  2.92538e+20
37.479  2.92334e+20
37.5964  2.93977e+20
37.7137  2.9726e+20
37.831  3.01606e+20
37.9483  3.06516e+20
38.0656  3.1128e+20
38.1829  3.15606e+20
38.3002  3.19171e+20
38.4175  3.21794e+20
38.5348  3.2337e+20
38.6521  3.23788e+20
38.7694  3.22897e+20
38.8867  3.20488e+20
39.004  3.16332e+20
39.1213  3.10343e+20
39.2386  3.02566e+20
39.3559  2.93351e+20
39.4732  2.83301e+20
39.5905  2.73101e+20
39.7078  2.63562e+20
39.8251  2.55461e+20
39.9425  2.49556e+20
40.0598  2.46159e+20
40.1771  2.45495e+20
40.2944  2.47337e+20
40.4117  2.51342e+20
40.529  2.56853e+20
40.6463  2.63238e+20
40.7636  2.69831e+20
40.8809  2.75754e+20
40.9982  2.80463e+20
41.1155  2.83443e+20
41.2328  2.84336e+20
41.3501  2.82972e+20
41.4674  2.79453e+20
41.5847  2.74155e+20
41.702  2.67549e+20
41.8193  2.60405e+20
41.9366  2.53405e+20
42.0539  2.4728e+20
42.1712  2.42538e+20
42.2885  2.39483e+20
42.4059  2.38434e+20
42.5232  2.39216e+20
42.6405  2.41767e+20
42.7578  2.4564e+20
42.8751  2.50639e+20
42.9924  2.56392e+20
43.1097  2.62518e+20
43.227  2.68613e+20
43.3443  2.74243e+20
43.4616  2.78983e+20
43.5789  2.82366e+20
43.6962  2.84013e+20
43.8135  2.83697e+20
43.9308  2.81419e+20
44.0481  2.77452e+20
44.1654  2.72317e+20
44.2827  2.66619e+20
44.4  2.61019e+20
44.5173  2.56149e+20
44.6347  2.52609e+20
44.752  2.5052e+20
44.8693  2.50016e+20
44.9866  2.50778e+20
45.1039  2.52535e+20
45.2212  2.54818e+20
45.3385  2.57276e+20
45.4558  2.59681e+20
45.5731  2.61618e+20
45.6904  2.62975e+20
45.8077  2.63569e+20
45.925  2.63217e+20
46.0423  2.61693e+20
46.1596  2.58882e+20
46.2769  2.54794e+20
46.3942  2.49534e+20
46.5115  2.43468e+20
46.6288  2.3713e+20
46.7461  2.3119e+20
46.8634  2.26332e+20
46.9808  2.2314e+20
47.0981  2.22154e+20
47.2154  2.2344e+20
47.3327  2.26918e+20
47.45  2.32037e+20
47.5673  2.38214e+20
47.6846  2.44629e+20
47.8019  2.50482e+20
47.9192  2.55017e+20
48.0365  2.57625e+20
48.1538  2.57898e+20
48.2711  2.55598e+20
48.3884  2.50679e+20
48.5057  2.43281e+20
48.623  2.33743e+20
48.7403  2.2254e+20
48.8576  2.10289e+20
48.9749  1.97598e+20
49.0922  1.85096e+20
49.2095  1.73435e+20
49.3269  1.63226e+20
49.4442  1.54821e+20
49.5615  1.48606e+20
49.6788  1.44699e+20
49.7961  1.43181e+20
49.9134  1.43976e+20
50.0307  1.46898e+20
50.148  1.51739e+20
50.2653  1.58009e+20
50.3826  1.65237e+20
50.4999  1.72832e+20
50.6172  1.80133e+20
50.7345  1.86488e+20
