#S 1 spectral density
#N 2
#UFWHM 31.555
#L  abscissas [um]  spectral density
-58.5938  3.09094e+19
-58.4764  2.79269e+19
-58.3591  2.51398e+19
-58.2418  2.24222e+19
-58.1245  1.97244e+19
-58.0072  1.71576e+19
-57.8899  1.4964e+19
-57.7726  1.34888e+19
-57.6553  1.30647e+19
-57.538  1.3905e+19
-57.4207  1.60531e+19
-57.3034  1.93972e+19
-57.1861  2.36837e+19
-57.0688  2.86345e+19
-56.9515  3.40164e+19
-56.8342  3.96935e+19
-56.7169  4.56809e+19
-56.5996  5.1958e+19
-56.4823  5.85552e+19
-56.365  6.53128e+19
-56.2477  7.19041e+19
-56.1303  7.79086e+19
-56.013  8.27997e+19
-55.8957  8.60526e+19
-55.7784  8.73606e+19
-55.6611  8.66183e+19
-55.5438  8.40214e+19
-55.4265  7.99824e+19
-55.3092  7.50317e+19
-55.1919  6.97334e+19
-55.0746  6.45224e+19
-54.9573  5.97203e+19
-54.84  5.54999e+19
-54.7227  5.19037e+19
-54.6054  4.9027e+19
-54.4881  4.69052e+19
-54.3708  4.57204e+19
-54.2535  4.56125e+19
-54.1362  4.67622e+19
-54.0189  4.92331e+19
-53.9016  5.29986e+19
-53.7842  5.78725e+19
-53.6669  6.35523e+19
-53.5496  6.97142e+19
-53.4323  7.61046e+19
-53.315  8.25495e+19
-53.1977  8.90499e+19
-53.0804  9.56366e+19
-52.9631  1.02402e+20
-52.8458  1.09291e+20
-52.7285  1.16193e+20
-52.6112  1.22738e+20
-52.4939  1.28459e+20
-52.3766  1.32894e+20
-52.2593  1.35635e+20
-52.142  1.36457e+20
-52.0247  1.35348e+20
-51.9074  1.32579e+20
-51.7901  1.28582e+20
-51.6728  1.23916e+20
-51.5555  1.1915e+20
-51.4381  1.146e+20
-51.3208  1.10638e+20
-51.2035  1.0738e+20
-51.0862  1.04984e+20
-50.9689  1.03461e+20
-50.8516  1.02901e+20
-50.7343  1.03425e+20
-50.617  1.05214e+20
-50.4997  1.08323e+20
-50.3824  1.12834e+20
-50.2651  1.1859e+20
-50.1478  1.25337e+20
-50.0305  1.32653e+20
-49.9132  1.39983e+20
-49.7959  1.46846e+20
-49.6786  1.52671e+20
-49.5613  1.57132e+20
-49.444  1.59972e+20
-49.3267  1.61116e+20
-49.2094  1.60611e+20
-49.092  1.58642e+20
-48.9747  1.55597e+20
-48.8574  1.51899e+20
-48.7401  1.47969e+20
-48.6228  1.44393e+20
-48.5055  1.4162e+20
-48.3882  1.40014e+20
-48.2709  1.39827e+20
-48.1536  1.41241e+20
-48.0363  1.44197e+20
-47.919  1.48468e+20
-47.8017  1.53749e+20
-47.6844  1.59761e+20
-47.5671  1.66127e+20
-47.4498  1.72595e+20
-47.3325  1.79005e+20
-47.2152  1.85208e+20
-47.0979  1.91215e+20
-46.9806  1.96913e+20
-46.8633  2.02337e+20
-46.7459  2.07564e+20
-46.6286  2.12598e+20
-46.5113  2.1775e+20
-46.394  2.23054e+20
-46.2767  2.29025e+20
-46.1594  2.35896e+20
-46.0421  2.43875e+20
-45.9248  2.53035e+20
-45.8075  2.63158e+20
-45.6902  2.73799e+20
-45.5729  2.84302e+20
-45.4556  2.93815e+20
-45.3383  3.01609e+20
-45.221  3.07051e+20
-45.1037  3.09959e+20
-44.9864  3.10512e+20
-44.8691  3.09137e+20
-44.7518  3.06575e+20
-44.6345  3.03702e+20
-44.5172  3.01369e+20
-44.3998  3.00165e+20
-44.2825  3.00323e+20
-44.1652  3.01825e+20
-44.0479  3.04389e+20
-43.9306  3.07458e+20
-43.8133  3.10328e+20
-43.696  3.12558e+20
-43.5787  3.13538e+20
-43.4614  3.12921e+20
-43.3441  3.10505e+20
-43.2268  3.06283e+20
-43.1095  3.00404e+20
-42.9922  2.93075e+20
-42.8749  2.84762e+20
-42.7576  2.76155e+20
-42.6403  2.67937e+20
-42.523  2.61035e+20
-42.4057  2.5629e+20
-42.2884  2.54523e+20
-42.171  2.56278e+20
-42.0537  2.61948e+20
-41.9364  2.71574e+20
-41.8191  2.84649e+20
-41.7018  3.00684e+20
-41.5845  3.18717e+20
-41.4672  3.37839e+20
-41.3499  3.571e+20
-41.2326  3.75523e+20
-41.1153  3.9248e+20
-40.998  4.072e+20
-40.8807  4.19328e+20
-40.7634  4.28595e+20
-40.6461  4.34943e+20
-40.5288  4.3858e+20
-40.4115  4.39594e+20
-40.2942  4.38509e+20
-40.1769  4.35767e+20
-40.0596  4.31935e+20
-39.9423  4.27473e+20
-39.825  4.22673e+20
-39.7076  4.17844e+20
-39.5903  4.12795e+20
-39.473  4.07633e+20
-39.3557  4.02262e+20
-39.2384  3.96574e+20
-39.1211  3.90783e+20
-39.0038  3.85158e+20
-38.8865  3.80196e+20
-38.7692  3.76367e+20
-38.6519  3.74032e+20
-38.5346  3.73601e+20
-38.4173  3.75197e+20
-38.3  3.78646e+20
-38.1827  3.8375e+20
-38.0654  3.9025e+20
-37.9481  3.97832e+20
-37.8308  4.06338e+20
-37.7135  4.15676e+20
-37.5962  4.25961e+20
-37.4789  4.37047e+20
-37.3615  4.48774e+20
-37.2442  4.60752e+20
-37.1269  4.72376e+20
-37.0096  4.83208e+20
-36.8923  4.92444e+20
-36.775  4.998e+20
-36.6577  5.05252e+20
-36.5404  5.09065e+20
-36.4231  5.12112e+20
-36.3058  5.1508e+20
-36.1885  5.18868e+20
-36.0712  5.23999e+20
-35.9539  5.30742e+20
-35.8366  5.38831e+20
-35.7193  5.47526e+20
-35.602  5.55769e+20
-35.4847  5.62763e+20
-35.3674  5.67741e+20
-35.2501  5.70321e+20
-35.1328  5.70384e+20
-35.0154  5.68242e+20
-34.8981  5.64634e+20
-34.7808  5.6031e+20
-34.6635  5.55938e+20
-34.5462  5.52288e+20
-34.4289  5.50035e+20
-34.3116  5.49525e+20
-34.1943  5.51308e+20
-34.077  5.5576e+20
-33.9597  5.6301e+20
-33.8424  5.73406e+20
-33.7251  5.86883e+20
-33.6078  6.03225e+20
-33.4905  6.2216e+20
-33.3732  6.43e+20
-33.2559  6.65206e+20
-33.1386  6.87993e+20
-33.0213  7.11008e+20
-32.904  7.33988e+20
-32.7867  7.56674e+20
-32.6693  7.79252e+20
-32.552  8.01767e+20
-32.4347  8.24568e+20
-32.3174  8.47746e+20
-32.2001  8.71175e+20
-32.0828  8.94846e+20
-31.9655  9.18518e+20
-31.8482  9.41858e+20
-31.7309  9.64621e+20
-31.6136  9.86528e+20
-31.4963  1.00724e+21
-31.379  1.02632e+21
-31.2617  1.04349e+21
-31.1444  1.05822e+21
-31.0271  1.07019e+21
-30.9098  1.07883e+21
-30.7925  1.0842e+21
-30.6752  1.08626e+21
-30.5579  1.08538e+21
-30.4406  1.08214e+21
-30.3232  1.07726e+21
-30.2059  1.07202e+21
-30.0886  1.06725e+21
-29.9713  1.0641e+21
-29.854  1.06349e+21
-29.7367  1.06645e+21
-29.6194  1.07353e+21
-29.5021  1.08543e+21
-29.3848  1.10247e+21
-29.2675  1.12472e+21
-29.1502  1.15183e+21
-29.0329  1.1833e+21
-28.9156  1.21806e+21
-28.7983  1.25512e+21
-28.681  1.29295e+21
-28.5637  1.33045e+21
-28.4464  1.36649e+21
-28.3291  1.40058e+21
-28.2118  1.43245e+21
-28.0944  1.46244e+21
-27.9771  1.49113e+21
-27.8598  1.51925e+21
-27.7425  1.54792e+21
-27.6252  1.57755e+21
-27.5079  1.60863e+21
-27.3906  1.64107e+21
-27.2733  1.67466e+21
-27.156  1.70888e+21
-27.0387  1.74271e+21
-26.9214  1.77559e+21
-26.8041  1.80657e+21
-26.6868  1.83487e+21
-26.5695  1.86e+21
-26.4522  1.88155e+21
-26.3349  1.89992e+21
-26.2176  1.9154e+21
-26.1003  1.92922e+21
-25.983  1.94257e+21
-25.8657  1.95714e+21
-25.7483  1.97482e+21
-25.631  1.99739e+21
-25.5137  2.02701e+21
-25.3964  2.06431e+21
-25.2791  2.11029e+21
-25.1618  2.16493e+21
-25.0445  2.22764e+21
-24.9272  2.29705e+21
-24.8099  2.3714e+21
-24.6926  2.44843e+21
-24.5753  2.52624e+21
-24.458  2.60187e+21
-24.3407  2.67345e+21
-24.2234  2.73897e+21
-24.1061  2.79733e+21
-23.9888  2.84734e+21
-23.8715  2.88927e+21
-23.7542  2.92367e+21
-23.6369  2.95184e+21
-23.5196  2.97539e+21
-23.4023  2.99684e+21
-23.2849  3.01819e+21
-23.1676  3.0414e+21
-23.0503  3.06867e+21
-22.933  3.10057e+21
-22.8157  3.13786e+21
-22.6984  3.18021e+21
-22.5811  3.22697e+21
-22.4638  3.27728e+21
-22.3465  3.32917e+21
-22.2292  3.38167e+21
-22.1119  3.4329e+21
-21.9946  3.48166e+21
-21.8773  3.52663e+21
-21.76  3.56677e+21
-21.6427  3.60209e+21
-21.5254  3.63261e+21
-21.4081  3.65889e+21
-21.2908  3.68186e+21
-21.1735  3.70313e+21
-21.0561  3.72438e+21
-20.9388  3.74761e+21
-20.8215  3.77521e+21
-20.7042  3.80785e+21
-20.5869  3.84709e+21
-20.4696  3.89329e+21
-20.3523  3.9462e+21
-20.235  4.00506e+21
-20.1177  4.0684e+21
-20.0004  4.13453e+21
-19.8831  4.20252e+21
-19.7658  4.26993e+21
-19.6485  4.33586e+21
-19.5312  4.39947e+21
-19.4139  4.46057e+21
-19.2966  4.51914e+21
-19.1793  4.57629e+21
-19.062  4.63337e+21
-18.9447  4.69208e+21
-18.8274  4.7541e+21
-18.71  4.82226e+21
-18.5927  4.89828e+21
-18.4754  4.98388e+21
-18.3581  5.08081e+21
-18.2408  5.18944e+21
-18.1235  5.31e+21
-18.0062  5.44162e+21
-17.8889  5.58298e+21
-17.7716  5.73261e+21
-17.6543  5.88726e+21
-17.537  6.04516e+21
-17.4197  6.20299e+21
-17.3024  6.35868e+21
-17.1851  6.50966e+21
-17.0678  6.65393e+21
-16.9505  6.79042e+21
-16.8332  6.91835e+21
-16.7159  7.03745e+21
-16.5986  7.14785e+21
-16.4813  7.25048e+21
-16.364  7.34658e+21
-16.2466  7.43808e+21
-16.1293  7.52702e+21
-16.012  7.61475e+21
-15.8947  7.70321e+21
-15.7774  7.79399e+21
-15.6601  7.88802e+21
-15.5428  7.98595e+21
-15.4255  8.08777e+21
-15.3082  8.19336e+21
-15.1909  8.30308e+21
-15.0736  8.41566e+21
-14.9563  8.53106e+21
-14.839  8.64915e+21
-14.7217  8.7695e+21
-14.6044  8.89186e+21
-14.4871  9.01637e+21
-14.3698  9.1429e+21
-14.2525  9.27119e+21
-14.1352  9.40067e+21
-14.0178  9.5321e+21
-13.9005  9.66478e+21
-13.7832  9.79888e+21
-13.6659  9.93458e+21
-13.5486  1.00719e+22
-13.4313  1.0211e+22
-13.314  1.03517e+22
-13.1967  1.04936e+22
-13.0794  1.06372e+22
-12.9621  1.07808e+22
-12.8448  1.09248e+22
-12.7275  1.1068e+22
-12.6102  1.12103e+22
-12.4929  1.13509e+22
-12.3756  1.14892e+22
-12.2583  1.16251e+22
-12.141  1.1758e+22
-12.0237  1.18873e+22
-11.9064  1.20119e+22
-11.7891  1.21307e+22
-11.6718  1.22425e+22
-11.5544  1.23467e+22
-11.4371  1.24422e+22
-11.3198  1.25282e+22
-11.2025  1.26049e+22
-11.0852  1.26729e+22
-10.9679  1.27333e+22
-10.8506  1.2788e+22
-10.7333  1.28383e+22
-10.616  1.28868e+22
-10.4987  1.29365e+22
-10.3814  1.29889e+22
-10.2641  1.30465e+22
-10.1468  1.31111e+22
-10.0295  1.31836e+22
-9.91217  1.32645e+22
-9.79487  1.33533e+22
-9.67756  1.34489e+22
-9.56026  1.35485e+22
-9.44295  1.36489e+22
-9.32565  1.37474e+22
-9.20834  1.38395e+22
-9.09104  1.39218e+22
-8.97373  1.3991e+22
-8.85643  1.40445e+22
-8.73913  1.40812e+22
-8.62182  1.41007e+22
-8.50452  1.4104e+22
-8.38721  1.40934e+22
-8.26991  1.40721e+22
-8.1526  1.40445e+22
-8.03529  1.40152e+22
-7.91799  1.39896e+22
-7.80069  1.39726e+22
-7.68338  1.39686e+22
-7.56608  1.39818e+22
-7.44877  1.40153e+22
-7.33146  1.40705e+22
-7.21416  1.41477e+22
-7.09685  1.42459e+22
-6.97955  1.43625e+22
-6.86224  1.44939e+22
-6.74494  1.46353e+22
-6.62763  1.47814e+22
-6.51033  1.49262e+22
-6.39302  1.50642e+22
-6.27572  1.51896e+22
-6.15842  1.5298e+22
-6.04111  1.53854e+22
-5.92381  1.54492e+22
-5.8065  1.54884e+22
-5.68919  1.55032e+22
-5.57189  1.54954e+22
-5.45458  1.54678e+22
-5.33728  1.54238e+22
-5.21997  1.53676e+22
-5.10267  1.5303e+22
-4.98536  1.52339e+22
-4.86806  1.51627e+22
-4.75075  1.50914e+22
-4.63345  1.50209e+22
-4.51614  1.49512e+22
-4.39884  1.48813e+22
-4.28154  1.481e+22
-4.16423  1.47353e+22
-4.04692  1.4656e+22
-3.92962  1.45709e+22
-3.81231  1.44798e+22
-3.69501  1.43824e+22
-3.5777  1.42805e+22
-3.4604  1.41759e+22
-3.34309  1.40716e+22
-3.22579  1.39711e+22
-3.10849  1.38785e+22
-2.99118  1.37982e+22
-2.87387  1.37339e+22
-2.75657  1.36893e+22
-2.63926  1.36665e+22
-2.52196  1.36672e+22
-2.40465  1.36908e+22
-2.28735  1.37353e+22
-2.17005  1.37973e+22
-2.05274  1.38719e+22
-1.93544  1.39526e+22
-1.81813  1.40332e+22
-1.70083  1.41062e+22
-1.58352  1.41653e+22
-1.46622  1.4205e+22
-1.34891  1.42217e+22
-1.2316  1.4213e+22
-1.1143  1.41792e+22
-0.996995  1.41225e+22
-0.87969  1.40474e+22
-0.762385  1.39591e+22
-0.64508  1.3865e+22
-0.527775  1.37721e+22
-0.41047  1.36876e+22
-0.293165  1.36179e+22
-0.17586  1.35684e+22
-0.058555  1.35429e+22
0.05875  1.35434e+22
0.176055  1.35695e+22
0.29336  1.36198e+22
0.410665  1.36902e+22
0.52797  1.37753e+22
0.645275  1.38686e+22
0.76258  1.3963e+22
0.879885  1.40513e+22
0.99719  1.41263e+22
1.1145  1.41827e+22
1.2318  1.42161e+22
1.3491  1.42243e+22
1.46641  1.42071e+22
1.58371  1.41667e+22
1.70102  1.41069e+22
1.81832  1.40332e+22
1.93563  1.39523e+22
2.05294  1.38711e+22
2.17024  1.37962e+22
2.28754  1.37341e+22
2.40485  1.36893e+22
2.52216  1.36657e+22
2.63946  1.36652e+22
2.75677  1.36877e+22
2.87407  1.37326e+22
2.99137  1.37968e+22
3.10868  1.38771e+22
3.22599  1.39696e+22
3.34329  1.40699e+22
3.4606  1.41741e+22
3.5779  1.42785e+22
3.69521  1.438e+22
3.81251  1.4477e+22
3.92982  1.45679e+22
4.04712  1.46524e+22
4.16443  1.47314e+22
4.28173  1.48057e+22
4.39903  1.4877e+22
4.51634  1.49466e+22
4.63364  1.50163e+22
4.75095  1.50866e+22
4.86825  1.5158e+22
4.98556  1.52293e+22
5.10286  1.52986e+22
5.22017  1.53634e+22
5.33748  1.54198e+22
5.45478  1.5464e+22
5.57209  1.54919e+22
5.68939  1.54997e+22
5.8067  1.54851e+22
5.924  1.54461e+22
6.0413  1.53825e+22
6.15861  1.52954e+22
6.27591  1.51875e+22
6.39322  1.50626e+22
6.51052  1.49255e+22
6.62783  1.47814e+22
6.74514  1.46362e+22
6.86244  1.44958e+22
6.97975  1.43657e+22
7.09705  1.42504e+22
7.21436  1.41536e+22
7.33166  1.40776e+22
7.44897  1.40238e+22
7.56627  1.39917e+22
7.68358  1.39795e+22
7.80088  1.39844e+22
7.91819  1.40023e+22
8.03549  1.40287e+22
8.1528  1.40585e+22
8.2701  1.40861e+22
8.38741  1.41075e+22
8.50471  1.4118e+22
8.62202  1.41146e+22
8.73932  1.40949e+22
8.85662  1.40581e+22
8.97393  1.40046e+22
9.09123  1.39354e+22
9.20854  1.38534e+22
9.32584  1.3762e+22
9.44315  1.36643e+22
9.56045  1.35646e+22
9.67776  1.34664e+22
9.79506  1.33723e+22
9.91237  1.3285e+22
10.0297  1.32056e+22
10.147  1.31349e+22
10.2643  1.30719e+22
10.3816  1.30157e+22
10.4989  1.29648e+22
10.6162  1.29165e+22
10.7335  1.28689e+22
10.8508  1.28193e+22
10.9681  1.27655e+22
11.0854  1.27059e+22
11.2027  1.26384e+22
11.32  1.25619e+22
11.4373  1.24759e+22
11.5546  1.23806e+22
11.6719  1.22766e+22
11.7893  1.21649e+22
11.9066  1.20461e+22
12.0239  1.19215e+22
12.1412  1.17927e+22
12.2585  1.16599e+22
12.3758  1.15241e+22
12.4931  1.13859e+22
12.6104  1.12454e+22
12.7277  1.11033e+22
12.845  1.09603e+22
12.9623  1.08162e+22
13.0796  1.06725e+22
13.1969  1.05291e+22
13.3142  1.03869e+22
13.4315  1.0246e+22
13.5488  1.01069e+22
13.6661  9.9694e+21
13.7834  9.83335e+21
13.9007  9.69886e+21
14.018  9.56617e+21
14.1354  9.43453e+21
14.2527  9.30444e+21
14.37  9.17608e+21
14.4873  9.04922e+21
14.6046  8.92448e+21
14.7219  8.80169e+21
14.8392  8.68116e+21
14.9565  8.56296e+21
15.0738  8.44706e+21
15.1911  8.33431e+21
15.3084  8.22456e+21
15.4257  8.11848e+21
15.543  8.01633e+21
15.6603  7.91816e+21
15.7776  7.8241e+21
15.8949  7.73328e+21
16.0122  7.64435e+21
16.1295  7.55631e+21
16.2468  7.46726e+21
16.3641  7.3753e+21
16.4815  7.27894e+21
16.5988  7.17594e+21
16.7161  7.06501e+21
16.8334  6.94572e+21
16.9507  6.81741e+21
17.068  6.68034e+21
17.1853  6.53541e+21
17.3026  6.3838e+21
17.4199  6.2277e+21
17.5372  6.06948e+21
17.6545  5.91099e+21
17.7718  5.75571e+21
17.8891  5.60585e+21
18.0064  5.46393e+21
18.1237  5.33174e+21
18.241  5.21095e+21
18.3583  5.10206e+21
18.4756  5.00479e+21
18.5929  4.91878e+21
18.7102  4.84271e+21
18.8275  4.77418e+21
18.9449  4.71159e+21
19.0622  4.65262e+21
19.1795  4.59509e+21
19.2968  4.53746e+21
19.4141  4.4783e+21
19.5314  4.41683e+21
19.6487  4.3528e+21
19.766  4.28623e+21
19.8833  4.21841e+21
20.0006  4.15019e+21
20.1179  4.0835e+21
20.2352  4.01973e+21
20.3525  3.96065e+21
20.4698  3.90772e+21
20.5871  3.86155e+21
20.7044  3.82204e+21
20.8217  3.78925e+21
20.939  3.76193e+21
21.0563  3.73849e+21
21.1736  3.71728e+21
21.291  3.69599e+21
21.4083  3.67293e+21
21.5256  3.64674e+21
21.6429  3.61619e+21
21.7602  3.58065e+21
21.8775  3.54018e+21
21.9948  3.49501e+21
22.1121  3.4462e+21
22.2294  3.39497e+21
22.3467  3.34223e+21
22.464  3.29003e+21
22.5813  3.23971e+21
22.6986  3.19266e+21
22.8159  3.15015e+21
22.9332  3.11288e+21
23.0505  3.08089e+21
23.1678  3.05362e+21
23.2851  3.03015e+21
23.4024  3.00887e+21
23.5198  2.98726e+21
23.6371  2.96338e+21
23.7544  2.93498e+21
23.8717  2.9003e+21
23.989  2.85808e+21
24.1063  2.80759e+21
24.2236  2.74902e+21
24.3409  2.6832e+21
24.4582  2.61119e+21
24.5755  2.53524e+21
24.6928  2.45731e+21
24.8101  2.38004e+21
24.9274  2.30551e+21
25.0447  2.23599e+21
25.162  2.1733e+21
25.2793  2.11869e+21
25.3966  2.07261e+21
25.5139  2.03531e+21
25.6312  2.00594e+21
25.7485  1.98321e+21
25.8658  1.9656e+21
25.9832  1.9509e+21
26.1005  1.93764e+21
26.2178  1.92377e+21
26.3351  1.90815e+21
26.4524  1.88963e+21
26.5697  1.86783e+21
26.687  1.84251e+21
26.8043  1.81411e+21
26.9216  1.78306e+21
27.0389  1.75006e+21
27.1562  1.71593e+21
27.2735  1.68166e+21
27.3908  1.6478e+21
27.5081  1.61521e+21
27.6254  1.58399e+21
27.7427  1.55421e+21
27.86  1.52537e+21
27.9773  1.49697e+21
28.0946  1.46812e+21
28.212  1.43789e+21
28.3293  1.40576e+21
28.4466  1.3714e+21
28.5639  1.33516e+21
28.6812  1.29749e+21
28.7985  1.25952e+21
28.9158  1.22243e+21
29.0331  1.1876e+21
29.1504  1.15619e+21
29.2677  1.12903e+21
29.385  1.10687e+21
29.5023  1.08997e+21
29.6196  1.07819e+21
29.7369  1.07114e+21
29.8542  1.06823e+21
29.9715  1.06884e+21
30.0888  1.07198e+21
30.2061  1.07677e+21
30.3234  1.08208e+21
30.4407  1.08679e+21
30.558  1.08998e+21
30.6754  1.09071e+21
30.7927  1.08864e+21
30.91  1.08308e+21
31.0273  1.07424e+21
31.1446  1.06219e+21
31.2619  1.04732e+21
31.3792  1.03005e+21
31.4965  1.01082e+21
31.6138  9.89948e+20
31.7311  9.6804e+20
31.8484  9.45103e+20
31.9657  9.21655e+20
32.083  8.97854e+20
32.2003  8.741e+20
32.3176  8.50554e+20
32.4349  8.27289e+20
32.5522  8.04384e+20
32.6695  7.81719e+20
32.7868  7.59024e+20
32.9042  7.36209e+20
33.0215  7.13166e+20
33.1388  6.8998e+20
33.2561  6.67122e+20
33.3734  6.44846e+20
33.4907  6.23989e+20
33.608  6.05032e+20
33.7253  5.88683e+20
33.8426  5.75287e+20
33.9599  5.64903e+20
34.0772  5.57655e+20
34.1945  5.53311e+20
34.3118  5.51631e+20
34.4291  5.52112e+20
34.5464  5.54393e+20
34.6637  5.5798e+20
34.781  5.62333e+20
34.8983  5.6671e+20
35.0156  5.70302e+20
35.1329  5.72282e+20
35.2503  5.7209e+20
35.3676  5.69482e+20
35.4849  5.64433e+20
35.6022  5.57265e+20
35.7195  5.48918e+20
35.8368  5.403e+20
35.9541  5.32225e+20
36.0714  5.25538e+20
36.1887  5.20412e+20
36.306  5.16588e+20
36.4233  5.13643e+20
36.5406  5.10584e+20
36.6579  5.0667e+20
36.7752  5.01124e+20
36.8925  4.93678e+20
37.0098  4.84388e+20
37.1271  4.73527e+20
37.2444  4.61833e+20
37.3617  4.49844e+20
37.479  4.38078e+20
37.5964  4.27023e+20
37.7137  4.16749e+20
37.831  4.07397e+20
37.9483  3.98905e+20
38.0656  3.91331e+20
38.1829  3.84872e+20
38.3002  3.79731e+20
38.4175  3.76313e+20
38.5348  3.74799e+20
38.6521  3.75259e+20
38.7694  3.77604e+20
38.8867  3.81475e+20
39.004  3.86474e+20
39.1213  3.92062e+20
39.2386  3.9785e+20
39.3559  4.03442e+20
39.4732  4.08867e+20
39.5905  4.13974e+20
39.7078  4.1896e+20
39.8251  4.2388e+20
39.9425  4.28599e+20
40.0598  4.33129e+20
40.1771  4.36898e+20
40.2944  4.39544e+20
40.4117  4.40584e+20
40.529  4.39489e+20
40.6463  4.3582e+20
40.7636  4.29343e+20
40.8809  4.19984e+20
40.9982  4.07749e+20
41.1155  3.92919e+20
41.2328  3.75911e+20
41.3501  3.57417e+20
41.4674  3.3814e+20
41.5847  3.1901e+20
41.702  3.00994e+20
41.8193  2.85051e+20
41.9366  2.72013e+20
42.0539  2.625e+20
42.1712  2.56898e+20
42.2885  2.55242e+20
42.4059  2.57114e+20
42.5232  2.61916e+20
42.6405  2.68858e+20
42.7578  2.77079e+20
42.8751  2.85682e+20
42.9924  2.93981e+20
43.1097  3.01229e+20
43.227  3.07101e+20
43.3443  3.11286e+20
43.4616  3.13647e+20
43.5789  3.14221e+20
43.6962  3.13203e+20
43.8135  3.11026e+20
43.9308  3.08131e+20
44.0481  3.05131e+20
44.1654  3.02632e+20
44.2827  3.01163e+20
44.4  3.01062e+20
44.5173  3.02383e+20
44.6347  3.04761e+20
44.752  3.07576e+20
44.8693  3.10096e+20
44.9866  3.11466e+20
45.1039  3.10816e+20
45.2212  3.07743e+20
45.3385  3.02165e+20
45.4558  2.94264e+20
45.5731  2.84612e+20
45.6904  2.74071e+20
45.8077  2.63348e+20
45.925  2.53221e+20
46.0423  2.44023e+20
46.1596  2.36063e+20
46.2769  2.29213e+20
46.3942  2.2321e+20
46.5115  2.17872e+20
46.6288  2.12747e+20
46.7461  2.07701e+20
46.8634  2.02532e+20
46.9808  1.97054e+20
47.0981  1.91379e+20
47.2154  1.85396e+20
47.3327  1.79204e+20
47.45  1.72782e+20
47.5673  1.66293e+20
47.6846  1.59941e+20
47.8019  1.5397e+20
47.9192  1.48683e+20
48.0365  1.44452e+20
48.1538  1.41562e+20
48.2711  1.40203e+20
48.3884  1.4041e+20
48.5057  1.42067e+20
48.623  1.44883e+20
48.7403  1.48504e+20
48.8576  1.52434e+20
48.9749  1.56174e+20
49.0922  1.59194e+20
49.2095  1.61073e+20
49.3269  1.61549e+20
49.4442  1.60364e+20
49.5615  1.57496e+20
49.6788  1.52961e+20
49.7961  1.47082e+20
49.9134  1.40191e+20
50.0307  1.32804e+20
50.148  1.2552e+20
50.2653  1.18794e+20
50.3826  1.13031e+20
50.4999  1.08557e+20
50.6172  1.05462e+20
50.7345  1.03716e+20
50.8518  1.03184e+20
