#S 1 spectral density
#N 2
#UFWHM 32.8454
#L  abscissas [um]  spectral density
-58.5938  2.67343e+20
-58.4764  2.63812e+20
-58.3591  2.61925e+20
-58.2418  2.6177e+20
-58.1245  2.63457e+20
-58.0072  2.67144e+20
-57.8899  2.72751e+20
-57.7726  2.80418e+20
-57.6553  2.89921e+20
-57.538  3.0091e+20
-57.4207  3.12813e+20
-57.3034  3.24967e+20
-57.1861  3.36599e+20
-57.0688  3.47153e+20
-56.9515  3.56161e+20
-56.8342  3.6361e+20
-56.7169  3.69732e+20
-56.5996  3.7491e+20
-56.4823  3.79753e+20
-56.365  3.84683e+20
-56.2477  3.89902e+20
-56.1303  3.95566e+20
-56.013  4.01553e+20
-55.8957  4.07467e+20
-55.7784  4.13015e+20
-55.6611  4.179e+20
-55.5438  4.21978e+20
-55.4265  4.25173e+20
-55.3092  4.27394e+20
-55.1919  4.28774e+20
-55.0746  4.29165e+20
-54.9573  4.28578e+20
-54.84  4.26878e+20
-54.7227  4.24101e+20
-54.6054  4.20293e+20
-54.4881  4.15669e+20
-54.3708  4.10754e+20
-54.2535  4.05858e+20
-54.1362  4.01468e+20
-54.0189  3.97973e+20
-53.9016  3.9562e+20
-53.7842  3.94416e+20
-53.6669  3.94212e+20
-53.5496  3.94759e+20
-53.4323  3.96003e+20
-53.315  3.97648e+20
-53.1977  3.99774e+20
-53.0804  4.0246e+20
-52.9631  4.05827e+20
-52.8458  4.09862e+20
-52.7285  4.14489e+20
-52.6112  4.19545e+20
-52.4939  4.24756e+20
-52.3766  4.29724e+20
-52.2593  4.34348e+20
-52.142  4.38545e+20
-52.0247  4.42503e+20
-51.9074  4.46583e+20
-51.7901  4.51164e+20
-51.6728  4.56761e+20
-51.5555  4.63511e+20
-51.4381  4.71542e+20
-51.3208  4.80559e+20
-51.2035  4.89939e+20
-51.0862  4.99157e+20
-50.9689  5.07293e+20
-50.8516  5.13815e+20
-50.7343  5.18184e+20
-50.617  5.20079e+20
-50.4997  5.19577e+20
-50.3824  5.16772e+20
-50.2651  5.12125e+20
-50.1478  5.06212e+20
-50.0305  4.99777e+20
-49.9132  4.93726e+20
-49.7959  4.88802e+20
-49.6786  4.86008e+20
-49.5613  4.86106e+20
-49.444  4.89771e+20
-49.3267  4.97424e+20
-49.2094  5.09224e+20
-49.092  5.24912e+20
-48.9747  5.43885e+20
-48.8574  5.65252e+20
-48.7401  5.88008e+20
-48.6228  6.10787e+20
-48.5055  6.32421e+20
-48.3882  6.51788e+20
-48.2709  6.67958e+20
-48.1536  6.80117e+20
-48.0363  6.87911e+20
-47.919  6.9132e+20
-47.8017  6.90713e+20
-47.6844  6.86678e+20
-47.5671  6.80338e+20
-47.4498  6.72779e+20
-47.3325  6.65227e+20
-47.2152  6.58773e+20
-47.0979  6.54342e+20
-46.9806  6.52593e+20
-46.8633  6.53749e+20
-46.7459  6.5754e+20
-46.6286  6.63806e+20
-46.5113  6.7176e+20
-46.394  6.81137e+20
-46.2767  6.91097e+20
-46.1594  7.01272e+20
-46.0421  7.1145e+20
-45.9248  7.21361e+20
-45.8075  7.30832e+20
-45.6902  7.39683e+20
-45.5729  7.47619e+20
-45.4556  7.54671e+20
-45.3383  7.60622e+20
-45.221  7.65709e+20
-45.1037  7.69935e+20
-44.9864  7.73535e+20
-44.8691  7.77087e+20
-44.7518  7.81002e+20
-44.6345  7.85562e+20
-44.5172  7.90813e+20
-44.3998  7.96575e+20
-44.2825  8.02338e+20
-44.1652  8.07419e+20
-44.0479  8.11048e+20
-43.9306  8.1248e+20
-43.8133  8.11323e+20
-43.696  8.0724e+20
-43.5787  8.00552e+20
-43.4614  7.91611e+20
-43.3441  7.81179e+20
-43.2268  7.70157e+20
-43.1095  7.59554e+20
-42.9922  7.50409e+20
-42.8749  7.4374e+20
-42.7576  7.40392e+20
-42.6403  7.41108e+20
-42.523  7.46457e+20
-42.4057  7.56796e+20
-42.2884  7.7236e+20
-42.171  7.9293e+20
-42.0537  8.17781e+20
-41.9364  8.46125e+20
-41.8191  8.76674e+20
-41.7018  9.08426e+20
-41.5845  9.39655e+20
-41.4672  9.69077e+20
-41.3499  9.9558e+20
-41.2326  1.01833e+21
-41.1153  1.03656e+21
-40.998  1.05013e+21
-40.8807  1.05887e+21
-40.7634  1.06309e+21
-40.6461  1.06323e+21
-40.5288  1.05992e+21
-40.4115  1.05392e+21
-40.2942  1.04579e+21
-40.1769  1.03671e+21
-40.0596  1.02747e+21
-39.9423  1.01886e+21
-39.825  1.01137e+21
-39.7076  1.00535e+21
-39.5903  1.00121e+21
-39.473  9.99006e+20
-39.3557  9.98674e+20
-39.2384  1.00034e+21
-39.1211  1.00424e+21
-39.0038  1.01012e+21
-38.8865  1.0184e+21
-38.7692  1.02903e+21
-38.6519  1.04191e+21
-38.5346  1.05657e+21
-38.4173  1.07252e+21
-38.3  1.08892e+21
-38.1827  1.10504e+21
-38.0654  1.11999e+21
-37.9481  1.13345e+21
-37.8308  1.14497e+21
-37.7135  1.1548e+21
-37.5962  1.16331e+21
-37.4789  1.17099e+21
-37.3615  1.17815e+21
-37.2442  1.18498e+21
-37.1269  1.19174e+21
-37.0096  1.19819e+21
-36.8923  1.20409e+21
-36.775  1.20927e+21
-36.6577  1.21355e+21
-36.5404  1.2174e+21
-36.4231  1.22103e+21
-36.3058  1.22518e+21
-36.1885  1.23029e+21
-36.0712  1.23669e+21
-35.9539  1.24445e+21
-35.8366  1.25307e+21
-35.7193  1.26216e+21
-35.602  1.27064e+21
-35.4847  1.27796e+21
-35.3674  1.28342e+21
-35.2501  1.28684e+21
-35.1328  1.2883e+21
-35.0154  1.28787e+21
-34.8981  1.28672e+21
-34.7808  1.2852e+21
-34.6635  1.28391e+21
-34.5462  1.28356e+21
-34.4289  1.28468e+21
-34.3116  1.28738e+21
-34.1943  1.292e+21
-34.077  1.29879e+21
-33.9597  1.30795e+21
-33.8424  1.31925e+21
-33.7251  1.33251e+21
-33.6078  1.34745e+21
-33.4905  1.36339e+21
-33.3732  1.37935e+21
-33.2559  1.39476e+21
-33.1386  1.40863e+21
-33.0213  1.42074e+21
-32.904  1.43074e+21
-32.7867  1.43887e+21
-32.6693  1.44578e+21
-32.552  1.45204e+21
-32.4347  1.45904e+21
-32.3174  1.4673e+21
-32.2001  1.47797e+21
-32.0828  1.49165e+21
-31.9655  1.50877e+21
-31.8482  1.52977e+21
-31.7309  1.55431e+21
-31.6136  1.58249e+21
-31.4963  1.61367e+21
-31.379  1.64703e+21
-31.2617  1.68163e+21
-31.1444  1.71609e+21
-31.0271  1.74945e+21
-30.9098  1.78028e+21
-30.7925  1.80778e+21
-30.6752  1.83091e+21
-30.5579  1.84936e+21
-30.4406  1.86315e+21
-30.3232  1.87236e+21
-30.2059  1.8781e+21
-30.0886  1.88072e+21
-29.9713  1.8813e+21
-29.854  1.88082e+21
-29.7367  1.88041e+21
-29.6194  1.88095e+21
-29.5021  1.88334e+21
-29.3848  1.88844e+21
-29.2675  1.89697e+21
-29.1502  1.90896e+21
-29.0329  1.92442e+21
-28.9156  1.94294e+21
-28.7983  1.96387e+21
-28.681  1.98624e+21
-28.5637  2.00921e+21
-28.4464  2.03201e+21
-28.3291  2.05434e+21
-28.2118  2.07606e+21
-28.0944  2.09768e+21
-27.9771  2.12e+21
-27.8598  2.14386e+21
-27.7425  2.17067e+21
-27.6252  2.20093e+21
-27.5079  2.23554e+21
-27.3906  2.2746e+21
-27.2733  2.31798e+21
-27.156  2.36528e+21
-27.0387  2.41531e+21
-26.9214  2.46704e+21
-26.8041  2.51894e+21
-26.6868  2.5694e+21
-26.5695  2.61662e+21
-26.4522  2.65903e+21
-26.3349  2.69552e+21
-26.2176  2.72487e+21
-26.1003  2.74692e+21
-25.983  2.76175e+21
-25.8657  2.77013e+21
-25.7483  2.77371e+21
-25.631  2.77426e+21
-25.5137  2.7746e+21
-25.3964  2.77657e+21
-25.2791  2.7827e+21
-25.1618  2.7951e+21
-25.0445  2.81525e+21
-24.9272  2.84418e+21
-24.8099  2.88211e+21
-24.6926  2.92889e+21
-24.5753  2.98377e+21
-24.458  3.045e+21
-24.3407  3.11072e+21
-24.2234  3.17867e+21
-24.1061  3.24656e+21
-23.9888  3.31205e+21
-23.8715  3.37303e+21
-23.7542  3.42817e+21
-23.6369  3.47648e+21
-23.5196  3.51763e+21
-23.4023  3.55218e+21
-23.2849  3.58102e+21
-23.1676  3.60529e+21
-23.0503  3.62697e+21
-22.933  3.6473e+21
-22.8157  3.66794e+21
-22.6984  3.6902e+21
-22.5811  3.71519e+21
-22.4638  3.744e+21
-22.3465  3.7767e+21
-22.2292  3.81412e+21
-22.1119  3.85597e+21
-21.9946  3.90216e+21
-21.8773  3.95211e+21
-21.76  4.00496e+21
-21.6427  4.06036e+21
-21.5254  4.1174e+21
-21.4081  4.17569e+21
-21.2908  4.23471e+21
-21.1735  4.29437e+21
-21.0561  4.35477e+21
-20.9388  4.41616e+21
-20.8215  4.47922e+21
-20.7042  4.54369e+21
-20.5869  4.60981e+21
-20.4696  4.67732e+21
-20.3523  4.74529e+21
-20.235  4.81281e+21
-20.1177  4.87859e+21
-20.0004  4.94117e+21
-19.8831  4.99972e+21
-19.7658  5.05254e+21
-19.6485  5.09923e+21
-19.5312  5.13931e+21
-19.4139  5.17309e+21
-19.2966  5.20121e+21
-19.1793  5.22482e+21
-19.062  5.24579e+21
-18.9447  5.26604e+21
-18.8274  5.28781e+21
-18.71  5.31362e+21
-18.5927  5.34554e+21
-18.4754  5.3856e+21
-18.3581  5.43553e+21
-18.2408  5.49565e+21
-18.1235  5.56634e+21
-18.0062  5.64682e+21
-17.8889  5.7359e+21
-17.7716  5.83182e+21
-17.6543  5.93208e+21
-17.537  6.03494e+21
-17.4197  6.13807e+21
-17.3024  6.23975e+21
-17.1851  6.33863e+21
-17.0678  6.43362e+21
-16.9505  6.52496e+21
-16.8332  6.61301e+21
-16.7159  6.69842e+21
-16.5986  6.7821e+21
-16.4813  6.8653e+21
-16.364  6.94898e+21
-16.2466  7.03396e+21
-16.1293  7.12101e+21
-16.012  7.209e+21
-15.8947  7.29762e+21
-15.7774  7.38495e+21
-15.6601  7.46871e+21
-15.5428  7.54637e+21
-15.4255  7.61513e+21
-15.3082  7.67252e+21
-15.1909  7.71725e+21
-15.0736  7.74774e+21
-14.9563  7.76474e+21
-14.839  7.76942e+21
-14.7217  7.76471e+21
-14.6044  7.75398e+21
-14.4871  7.74182e+21
-14.3698  7.73307e+21
-14.2525  7.73251e+21
-14.1352  7.74433e+21
-14.0178  7.77291e+21
-13.9005  7.82109e+21
-13.7832  7.89044e+21
-13.6659  7.98175e+21
-13.5486  8.09343e+21
-13.4313  8.2232e+21
-13.314  8.36699e+21
-13.1967  8.51995e+21
-13.0794  8.67623e+21
-12.9621  8.82952e+21
-12.8448  8.97439e+21
-12.7275  9.10552e+21
-12.6102  9.21924e+21
-12.4929  9.31335e+21
-12.3756  9.38713e+21
-12.2583  9.44226e+21
-12.141  9.4819e+21
-12.0237  9.50977e+21
-11.9064  9.53081e+21
-11.7891  9.55003e+21
-11.6718  9.57239e+21
-11.5544  9.60233e+21
-11.4371  9.64298e+21
-11.3198  9.69572e+21
-11.2025  9.76139e+21
-11.0852  9.83866e+21
-10.9679  9.92491e+21
-10.8506  1.00169e+22
-10.7333  1.01098e+22
-10.616  1.0199e+22
-10.4987  1.02805e+22
-10.3814  1.035e+22
-10.2641  1.04052e+22
-10.1468  1.0445e+22
-10.0295  1.04697e+22
-9.91217  1.04811e+22
-9.79487  1.04827e+22
-9.67756  1.04789e+22
-9.56026  1.04741e+22
-9.44295  1.04729e+22
-9.32565  1.04803e+22
-9.20834  1.04997e+22
-9.09104  1.05334e+22
-8.97373  1.0583e+22
-8.85643  1.0648e+22
-8.73913  1.07273e+22
-8.62182  1.08183e+22
-8.50452  1.09176e+22
-8.38721  1.10217e+22
-8.26991  1.11263e+22
-8.1526  1.12281e+22
-8.03529  1.13237e+22
-7.91799  1.14114e+22
-7.80069  1.14902e+22
-7.68338  1.15603e+22
-7.56608  1.16233e+22
-7.44877  1.16819e+22
-7.33146  1.17391e+22
-7.21416  1.17982e+22
-7.09685  1.18627e+22
-6.97955  1.19353e+22
-6.86224  1.20185e+22
-6.74494  1.21126e+22
-6.62763  1.2217e+22
-6.51033  1.23302e+22
-6.39302  1.24487e+22
-6.27572  1.25683e+22
-6.15842  1.26843e+22
-6.04111  1.27914e+22
-5.92381  1.28845e+22
-5.8065  1.296e+22
-5.68919  1.3015e+22
-5.57189  1.30483e+22
-5.45458  1.30603e+22
-5.33728  1.30531e+22
-5.21997  1.30304e+22
-5.10267  1.29964e+22
-4.98536  1.29565e+22
-4.86806  1.29154e+22
-4.75075  1.28776e+22
-4.63345  1.28475e+22
-4.51614  1.28274e+22
-4.39884  1.28191e+22
-4.28154  1.28224e+22
-4.16423  1.28366e+22
-4.04692  1.28597e+22
-3.92962  1.28891e+22
-3.81231  1.29218e+22
-3.69501  1.29552e+22
-3.5777  1.29864e+22
-3.4604  1.30138e+22
-3.34309  1.3036e+22
-3.22579  1.30536e+22
-3.10849  1.30676e+22
-2.99118  1.308e+22
-2.87387  1.30933e+22
-2.75657  1.31111e+22
-2.63926  1.31359e+22
-2.52196  1.31703e+22
-2.40465  1.32163e+22
-2.28735  1.32738e+22
-2.17005  1.33424e+22
-2.05274  1.3419e+22
-1.93544  1.35005e+22
-1.81813  1.3582e+22
-1.70083  1.36583e+22
-1.58352  1.3724e+22
-1.46622  1.37745e+22
-1.34891  1.3806e+22
-1.2316  1.38161e+22
-1.1143  1.38043e+22
-0.996995  1.37721e+22
-0.87969  1.37224e+22
-0.762385  1.36601e+22
-0.64508  1.35903e+22
-0.527775  1.35197e+22
-0.41047  1.34543e+22
-0.293165  1.33999e+22
-0.17586  1.33609e+22
-0.058555  1.33411e+22
0.05875  1.33419e+22
0.176055  1.33634e+22
0.29336  1.3404e+22
0.410665  1.34598e+22
0.52797  1.35267e+22
0.645275  1.35986e+22
0.76258  1.36695e+22
0.879885  1.37328e+22
0.99719  1.37832e+22
1.1145  1.38162e+22
1.2318  1.38283e+22
1.3491  1.38184e+22
1.46641  1.37872e+22
1.58371  1.37369e+22
1.70102  1.36713e+22
1.81832  1.35951e+22
1.93563  1.35137e+22
2.05294  1.34323e+22
2.17024  1.33556e+22
2.28754  1.32874e+22
2.40485  1.323e+22
2.52216  1.31846e+22
2.63946  1.31502e+22
2.75677  1.31258e+22
2.87407  1.31086e+22
2.99137  1.30957e+22
3.10868  1.3084e+22
3.22599  1.30708e+22
3.34329  1.3054e+22
3.4606  1.30327e+22
3.5779  1.30062e+22
3.69521  1.29761e+22
3.81251  1.29441e+22
3.92982  1.29126e+22
4.04712  1.28844e+22
4.16443  1.28626e+22
4.28173  1.28497e+22
4.39903  1.28475e+22
4.51634  1.28569e+22
4.63364  1.2878e+22
4.75095  1.2909e+22
4.86825  1.29471e+22
4.98556  1.29889e+22
5.10286  1.30292e+22
5.22017  1.30634e+22
5.33748  1.30863e+22
5.45478  1.30937e+22
5.57209  1.30818e+22
5.68939  1.30485e+22
5.8067  1.29939e+22
5.924  1.29186e+22
6.0413  1.28258e+22
6.15861  1.27193e+22
6.27591  1.2604e+22
6.39322  1.24854e+22
6.51052  1.23678e+22
6.62783  1.22556e+22
6.74514  1.21518e+22
6.86244  1.20588e+22
6.97975  1.19766e+22
7.09705  1.19045e+22
7.21436  1.18407e+22
7.33166  1.17817e+22
7.44897  1.17251e+22
7.56627  1.16667e+22
7.68358  1.16037e+22
7.80088  1.15336e+22
7.91819  1.14546e+22
8.03549  1.1367e+22
8.1528  1.12715e+22
8.2701  1.11696e+22
8.38741  1.10651e+22
8.50471  1.09612e+22
8.62202  1.08622e+22
8.73932  1.07715e+22
8.85662  1.06928e+22
8.97393  1.06283e+22
9.09123  1.05792e+22
9.20854  1.05459e+22
9.32584  1.05271e+22
9.44315  1.05201e+22
9.56045  1.05213e+22
9.67776  1.05265e+22
9.79506  1.05305e+22
9.91237  1.05288e+22
10.0297  1.05173e+22
10.147  1.04927e+22
10.2643  1.04531e+22
10.3816  1.03977e+22
10.4989  1.03285e+22
10.6162  1.02475e+22
10.7335  1.01587e+22
10.8508  1.00664e+22
10.9681  9.97535e+21
11.0854  9.89011e+21
11.2027  9.81398e+21
11.32  9.74928e+21
11.4373  9.69725e+21
11.5546  9.6576e+21
11.6719  9.62846e+21
11.7893  9.60661e+21
11.9066  9.58768e+21
12.0239  9.56658e+21
12.1412  9.53867e+21
12.2585  9.49886e+21
12.3758  9.4429e+21
12.4931  9.36824e+21
12.6104  9.27317e+21
12.7277  9.15868e+21
12.845  9.02695e+21
12.9623  8.88129e+21
13.0796  8.7273e+21
13.1969  8.5707e+21
13.3142  8.41756e+21
13.4315  8.27365e+21
13.5488  8.14407e+21
13.6661  8.03275e+21
13.7834  7.94198e+21
13.9007  7.87309e+21
14.018  7.82572e+21
14.1354  7.79763e+21
14.2527  7.78615e+21
14.37  7.78728e+21
14.4873  7.7964e+21
14.6046  7.80874e+21
14.7219  7.81948e+21
14.8392  7.82419e+21
14.9565  7.81927e+21
15.0738  7.80187e+21
15.1911  7.77098e+21
15.3084  7.72592e+21
15.4257  7.66804e+21
15.543  7.5987e+21
15.6603  7.52068e+21
15.7776  7.43664e+21
15.8949  7.34915e+21
16.0122  7.26025e+21
16.1295  7.17182e+21
16.2468  7.08479e+21
16.3641  6.99958e+21
16.4815  6.91575e+21
16.5988  6.83227e+21
16.7161  6.74845e+21
16.8334  6.66285e+21
16.9507  6.57461e+21
17.068  6.48273e+21
17.1853  6.38724e+21
17.3026  6.28799e+21
17.4199  6.18606e+21
17.5372  6.08273e+21
17.6545  5.97954e+21
17.7718  5.87887e+21
17.8891  5.78288e+21
18.0064  5.69356e+21
18.1237  5.61299e+21
18.241  5.54231e+21
18.3583  5.48214e+21
18.4756  5.4323e+21
18.5929  5.39216e+21
18.7102  5.36031e+21
18.8275  5.3344e+21
18.9449  5.31256e+21
19.0622  5.29212e+21
19.1795  5.27097e+21
19.2968  5.247e+21
19.4141  5.21852e+21
19.5314  5.18438e+21
19.6487  5.14378e+21
19.766  5.09654e+21
19.8833  5.04311e+21
20.0006  4.98411e+21
20.1179  4.92083e+21
20.2352  4.85435e+21
20.3525  4.78614e+21
20.4698  4.71761e+21
20.5871  4.6497e+21
20.7044  4.58286e+21
20.8217  4.51777e+21
20.939  4.45437e+21
21.0563  4.39234e+21
21.1736  4.33157e+21
21.291  4.27137e+21
21.4083  4.21216e+21
21.5256  4.15372e+21
21.6429  4.09642e+21
21.7602  4.0409e+21
21.8775  3.98786e+21
21.9948  3.93795e+21
22.1121  3.89188e+21
22.2294  3.85015e+21
22.3467  3.81286e+21
22.464  3.7801e+21
22.5813  3.75147e+21
22.6986  3.72631e+21
22.8159  3.70396e+21
22.9332  3.68315e+21
23.0505  3.66251e+21
23.1678  3.64048e+21
23.2851  3.61556e+21
23.4024  3.58626e+21
23.5198  3.55099e+21
23.6371  3.50904e+21
23.7544  3.45987e+21
23.8717  3.40393e+21
23.989  3.34206e+21
24.1063  3.27584e+21
24.2236  3.2073e+21
24.3409  3.13872e+21
24.4582  3.0725e+21
24.5755  3.01082e+21
24.6928  2.95575e+21
24.8101  2.90871e+21
24.9274  2.87058e+21
25.0447  2.84153e+21
25.162  2.82131e+21
25.2793  2.80893e+21
25.3966  2.80246e+21
25.5139  2.80028e+21
25.6312  2.79988e+21
25.7485  2.79886e+21
25.8658  2.79491e+21
25.9832  2.78588e+21
26.1005  2.77066e+21
26.2178  2.74815e+21
26.3351  2.71814e+21
26.4524  2.68112e+21
26.5697  2.63814e+21
26.687  2.59033e+21
26.8043  2.53952e+21
26.9216  2.48726e+21
27.0389  2.43521e+21
27.1562  2.38487e+21
27.2735  2.33739e+21
27.3908  2.29369e+21
27.5081  2.25444e+21
27.6254  2.21968e+21
27.7427  2.18917e+21
27.86  2.16215e+21
27.9773  2.13796e+21
28.0946  2.11547e+21
28.212  2.09352e+21
28.3293  2.0715e+21
28.4466  2.04885e+21
28.5639  2.02575e+21
28.6812  2.00249e+21
28.7985  1.97987e+21
28.9158  1.95875e+21
29.0331  1.94012e+21
29.1504  1.92452e+21
29.2677  1.91241e+21
29.385  1.90389e+21
29.5023  1.89871e+21
29.6196  1.89619e+21
29.7369  1.89556e+21
29.8542  1.89579e+21
29.9715  1.8961e+21
30.0888  1.89522e+21
30.2061  1.89236e+21
30.3234  1.88649e+21
30.4407  1.87675e+21
30.558  1.86274e+21
30.6754  1.84376e+21
30.7927  1.82034e+21
30.91  1.79261e+21
31.0273  1.76137e+21
31.1446  1.72779e+21
31.2619  1.693e+21
31.3792  1.65821e+21
31.4965  1.62466e+21
31.6138  1.59341e+21
31.7311  1.56512e+21
31.8484  1.54034e+21
31.9657  1.51931e+21
32.083  1.50203e+21
32.2003  1.48819e+21
32.3176  1.4773e+21
32.4349  1.46877e+21
32.5522  1.46155e+21
32.6695  1.45491e+21
32.7868  1.44778e+21
32.9042  1.43916e+21
33.0215  1.42881e+21
33.1388  1.41633e+21
33.2561  1.40212e+21
33.3734  1.38637e+21
33.4907  1.37006e+21
33.608  1.354e+21
33.7253  1.339e+21
33.8426  1.32552e+21
33.9599  1.31412e+21
34.0772  1.30498e+21
34.1945  1.29821e+21
34.3118  1.29354e+21
34.4291  1.29083e+21
34.5464  1.28973e+21
34.6637  1.29001e+21
34.781  1.29125e+21
34.8983  1.29286e+21
35.0156  1.29406e+21
35.1329  1.29416e+21
35.2503  1.29275e+21
35.3676  1.28916e+21
35.4849  1.28371e+21
35.6022  1.27628e+21
35.7195  1.26774e+21
35.8368  1.25874e+21
35.9541  1.25e+21
36.0714  1.24235e+21
36.1887  1.23603e+21
36.306  1.23089e+21
36.4233  1.22684e+21
36.5406  1.22313e+21
36.6579  1.21931e+21
36.7752  1.21482e+21
36.8925  1.20961e+21
37.0098  1.20366e+21
37.1271  1.1971e+21
37.2444  1.19025e+21
37.3617  1.18329e+21
37.479  1.17608e+21
37.5964  1.16825e+21
37.7137  1.15959e+21
37.831  1.14959e+21
37.9483  1.13787e+21
38.0656  1.12432e+21
38.1829  1.10919e+21
38.3002  1.09294e+21
38.4175  1.0765e+21
38.5348  1.06055e+21
38.6521  1.04584e+21
38.7694  1.03302e+21
38.8867  1.02244e+21
39.004  1.0143e+21
39.1213  1.00833e+21
39.2386  1.00458e+21
39.3559  1.00292e+21
39.4732  1.00325e+21
39.5905  1.00559e+21
39.7078  1.00984e+21
39.8251  1.01575e+21
39.9425  1.02328e+21
40.0598  1.03205e+21
40.1771  1.04132e+21
40.2944  1.05028e+21
40.4117  1.05832e+21
40.529  1.06435e+21
40.6463  1.06752e+21
40.7636  1.0673e+21
40.8809  1.06301e+21
40.9982  1.05403e+21
41.1155  1.0404e+21
41.2328  1.02191e+21
41.3501  9.99119e+20
41.4674  9.72373e+20
41.5847  9.42801e+20
41.702  9.11556e+20
41.8193  8.79796e+20
41.9366  8.49211e+20
42.0539  8.20899e+20
42.1712  7.961e+20
42.2885  7.75759e+20
42.4059  7.60274e+20
42.5232  7.5006e+20
42.6405  7.44804e+20
42.7578  7.44299e+20
42.8751  7.47856e+20
42.9924  7.54597e+20
43.1097  7.63841e+20
43.227  7.74548e+20
43.3443  7.85574e+20
43.4616  7.96052e+20
43.5789  8.04953e+20
43.6962  8.11691e+20
43.8135  8.15579e+20
43.9308  8.1672e+20
44.0481  8.15124e+20
44.1654  8.11371e+20
44.2827  8.06229e+20
44.4  8.0046e+20
44.5173  7.94624e+20
44.6347  7.89298e+20
44.752  7.84817e+20
44.8693  7.80851e+20
44.9866  7.77166e+20
45.1039  7.73505e+20
45.2212  7.69323e+20
45.3385  7.64263e+20
45.4558  7.58217e+20
45.5731  7.51196e+20
45.6904  7.43153e+20
45.8077  7.34385e+20
45.925  7.24875e+20
46.0423  7.15013e+20
46.1596  7.0484e+20
46.2769  6.94618e+20
46.3942  6.84773e+20
46.5115  6.75516e+20
46.6288  6.67587e+20
46.7461  6.61441e+20
46.8634  6.57641e+20
46.9808  6.56748e+20
47.0981  6.58584e+20
47.2154  6.63124e+20
47.3327  6.69594e+20
47.45  6.77248e+20
47.5673  6.84842e+20
47.6846  6.91114e+20
47.8019  6.95032e+20
47.9192  6.95546e+20
48.0365  6.91937e+20
48.1538  6.83955e+20
48.2711  6.71609e+20
48.3884  6.55321e+20
48.5057  6.35793e+20
48.623  6.14015e+20
48.7403  5.91091e+20
48.8576  5.68302e+20
48.9749  5.46868e+20
49.0922  5.27936e+20
49.2095  5.12361e+20
49.3269  5.00608e+20
49.4442  4.93085e+20
49.5615  4.89451e+20
49.6788  4.89419e+20
49.7961  4.92278e+20
49.9134  4.97233e+20
50.0307  5.03363e+20
50.148  5.09711e+20
50.2653  5.15569e+20
50.3826  5.20153e+20
50.4999  5.22858e+20
50.6172  5.23241e+20
50.7345  5.21224e+20
50.8518  5.16789e+20
50.9691  5.10177e+20
