#S 1 spectral density
#N 2
#UFWHM 25.3379
#L  abscissas [um]  spectral density
-58.5938  6.8002e+19
-58.4764  7.51737e+19
-58.3591  8.41709e+19
-58.2418  9.45328e+19
-58.1245  1.05741e+20
-58.0072  1.17301e+20
-57.8899  1.28746e+20
-57.7726  1.39641e+20
-57.6553  1.4954e+20
-57.538  1.58027e+20
-57.4207  1.64632e+20
-57.3034  1.68937e+20
-57.1861  1.70685e+20
-57.0688  1.69851e+20
-56.9515  1.66721e+20
-56.8342  1.61831e+20
-56.7169  1.56012e+20
-56.5996  1.4999e+20
-56.4823  1.44517e+20
-56.365  1.3997e+20
-56.2477  1.36389e+20
-56.1303  1.33452e+20
-56.013  1.3072e+20
-55.8957  1.27566e+20
-55.7784  1.23631e+20
-55.6611  1.18679e+20
-55.5438  1.12872e+20
-55.4265  1.06668e+20
-55.3092  1.00589e+20
-55.1919  9.5141e+19
-55.0746  9.07397e+19
-54.9573  8.75052e+19
-54.84  8.54059e+19
-54.7227  8.41744e+19
-54.6054  8.36116e+19
-54.4881  8.36022e+19
-54.3708  8.42134e+19
-54.2535  8.56141e+19
-54.1362  8.80745e+19
-54.0189  9.19697e+19
-53.9016  9.74649e+19
-53.7842  1.04524e+20
-53.6669  1.12998e+20
-53.5496  1.22482e+20
-53.4323  1.32547e+20
-53.315  1.42694e+20
-53.1977  1.52479e+20
-53.0804  1.61612e+20
-52.9631  1.69798e+20
-52.8458  1.76757e+20
-52.7285  1.82288e+20
-52.6112  1.86097e+20
-52.4939  1.8795e+20
-52.3766  1.87631e+20
-52.2593  1.851e+20
-52.142  1.80565e+20
-52.0247  1.74364e+20
-51.9074  1.67141e+20
-51.7901  1.59531e+20
-51.6728  1.52297e+20
-51.5555  1.46006e+20
-51.4381  1.41174e+20
-51.3208  1.38015e+20
-51.2035  1.36589e+20
-51.0862  1.36856e+20
-50.9689  1.38733e+20
-50.8516  1.42156e+20
-50.7343  1.47036e+20
-50.617  1.53352e+20
-50.4997  1.61072e+20
-50.3824  1.70016e+20
-50.2651  1.79993e+20
-50.1478  1.90502e+20
-50.0305  2.01134e+20
-49.9132  2.11222e+20
-49.7959  2.20273e+20
-49.6786  2.27814e+20
-49.5613  2.33604e+20
-49.444  2.37592e+20
-49.3267  2.39913e+20
-49.2094  2.40926e+20
-49.092  2.41035e+20
-48.9747  2.40749e+20
-48.8574  2.40495e+20
-48.7401  2.40637e+20
-48.6228  2.41355e+20
-48.5055  2.42694e+20
-48.3882  2.44441e+20
-48.2709  2.46311e+20
-48.1536  2.47952e+20
-48.0363  2.48966e+20
-47.919  2.49141e+20
-47.8017  2.48421e+20
-47.6844  2.47044e+20
-47.5671  2.45396e+20
-47.4498  2.44018e+20
-47.3325  2.43554e+20
-47.2152  2.44338e+20
-47.0979  2.46609e+20
-46.9806  2.50021e+20
-46.8633  2.53941e+20
-46.7459  2.57512e+20
-46.6286  2.59599e+20
-46.5113  2.59296e+20
-46.394  2.55798e+20
-46.2767  2.48842e+20
-46.1594  2.38584e+20
-46.0421  2.25585e+20
-45.9248  2.1078e+20
-45.8075  1.95259e+20
-45.6902  1.80083e+20
-45.5729  1.66224e+20
-45.4556  1.54401e+20
-45.3383  1.45182e+20
-45.221  1.3889e+20
-45.1037  1.35804e+20
-44.9864  1.35981e+20
-44.8691  1.39521e+20
-44.7518  1.46323e+20
-44.6345  1.56167e+20
-44.5172  1.68539e+20
-44.3998  1.82704e+20
-44.2825  1.97761e+20
-44.1652  2.12668e+20
-44.0479  2.26297e+20
-43.9306  2.37805e+20
-43.8133  2.46552e+20
-43.696  2.52174e+20
-43.5787  2.54821e+20
-43.4614  2.54945e+20
-43.3441  2.53197e+20
-43.2268  2.50431e+20
-43.1095  2.47434e+20
-42.9922  2.45034e+20
-42.8749  2.43885e+20
-42.7576  2.44405e+20
-42.6403  2.46974e+20
-42.523  2.51598e+20
-42.4057  2.58227e+20
-42.2884  2.66568e+20
-42.171  2.76088e+20
-42.0537  2.86235e+20
-41.9364  2.96285e+20
-41.8191  3.05696e+20
-41.7018  3.14018e+20
-41.5845  3.21065e+20
-41.4672  3.27048e+20
-41.3499  3.32408e+20
-41.2326  3.37914e+20
-41.1153  3.44442e+20
-40.998  3.52784e+20
-40.8807  3.63436e+20
-40.7634  3.76621e+20
-40.6461  3.92006e+20
-40.5288  4.08885e+20
-40.4115  4.26088e+20
-40.2942  4.42136e+20
-40.1769  4.55717e+20
-40.0596  4.65595e+20
-39.9423  4.70863e+20
-39.825  4.70987e+20
-39.7076  4.66086e+20
-39.5903  4.56797e+20
-39.473  4.44382e+20
-39.3557  4.3021e+20
-39.2384  4.16139e+20
-39.1211  4.03983e+20
-39.0038  3.95141e+20
-38.8865  3.9066e+20
-38.7692  3.90914e+20
-38.6519  3.95278e+20
-38.5346  4.02568e+20
-38.4173  4.10739e+20
-38.3  4.1769e+20
-38.1827  4.21077e+20
-38.0654  4.19159e+20
-37.9481  4.10896e+20
-37.8308  3.96122e+20
-37.7135  3.7569e+20
-37.5962  3.51323e+20
-37.4789  3.25186e+20
-37.3615  2.99511e+20
-37.2442  2.76419e+20
-37.1269  2.57521e+20
-37.0096  2.43908e+20
-36.8923  2.35878e+20
-36.775  2.33383e+20
-36.6577  2.35915e+20
-36.5404  2.42971e+20
-36.4231  2.53888e+20
-36.3058  2.6793e+20
-36.1885  2.84587e+20
-36.0712  3.03269e+20
-35.9539  3.23384e+20
-35.8366  3.44419e+20
-35.7193  3.6583e+20
-35.602  3.87421e+20
-35.4847  4.09201e+20
-35.3674  4.31515e+20
-35.2501  4.54977e+20
-35.1328  4.80218e+20
-35.0154  5.07877e+20
-34.8981  5.37952e+20
-34.7808  5.70186e+20
-34.6635  6.03567e+20
-34.5462  6.36363e+20
-34.4289  6.6673e+20
-34.3116  6.92461e+20
-34.1943  7.11575e+20
-34.077  7.22415e+20
-33.9597  7.24083e+20
-33.8424  7.16327e+20
-33.7251  6.99741e+20
-33.6078  6.75349e+20
-33.4905  6.44882e+20
-33.3732  6.10404e+20
-33.2559  5.74208e+20
-33.1386  5.38669e+20
-33.0213  5.06081e+20
-32.904  4.78599e+20
-32.7867  4.57873e+20
-32.6693  4.44996e+20
-32.552  4.40404e+20
-32.4347  4.43515e+20
-32.3174  4.53343e+20
-32.2001  4.681e+20
-32.0828  4.8576e+20
-31.9655  5.04302e+20
-31.8482  5.22005e+20
-31.7309  5.3763e+20
-31.6136  5.50671e+20
-31.4963  5.61224e+20
-31.379  5.69991e+20
-31.2617  5.78122e+20
-31.1444  5.86769e+20
-31.0271  5.97011e+20
-30.9098  6.10004e+20
-30.7925  6.25927e+20
-30.6752  6.44899e+20
-30.5579  6.66611e+20
-30.4406  6.90276e+20
-30.3232  7.14946e+20
-30.2059  7.39252e+20
-30.0886  7.62046e+20
-29.9713  7.82483e+20
-29.854  7.9958e+20
-29.7367  8.1295e+20
-29.6194  8.2278e+20
-29.5021  8.29554e+20
-29.3848  8.34078e+20
-29.2675  8.37507e+20
-29.1502  8.40901e+20
-29.0329  8.45228e+20
-28.9156  8.51025e+20
-28.7983  8.5843e+20
-28.681  8.67239e+20
-28.5637  8.7693e+20
-28.4464  8.86842e+20
-28.3291  8.96356e+20
-28.2118  9.04906e+20
-28.0944  9.12343e+20
-27.9771  9.1879e+20
-27.8598  9.24571e+20
-27.7425  9.30208e+20
-27.6252  9.36208e+20
-27.5079  9.43278e+20
-27.3906  9.51908e+20
-27.2733  9.62747e+20
-27.156  9.75987e+20
-27.0387  9.92095e+20
-26.9214  1.01122e+21
-26.8041  1.03352e+21
-26.6868  1.05888e+21
-26.5695  1.08716e+21
-26.4522  1.11799e+21
-26.3349  1.15117e+21
-26.2176  1.18631e+21
-26.1003  1.223e+21
-25.983  1.26105e+21
-25.8657  1.30022e+21
-25.7483  1.3402e+21
-25.631  1.38076e+21
-25.5137  1.4213e+21
-25.3964  1.46124e+21
-25.2791  1.49948e+21
-25.1618  1.53502e+21
-25.0445  1.56645e+21
-24.9272  1.59268e+21
-24.8099  1.61268e+21
-24.6926  1.626e+21
-24.5753  1.63245e+21
-24.458  1.63267e+21
-24.3407  1.62767e+21
-24.2234  1.61952e+21
-24.1061  1.61042e+21
-23.9888  1.6033e+21
-23.8715  1.60137e+21
-23.7542  1.60806e+21
-23.6369  1.62633e+21
-23.5196  1.65898e+21
-23.4023  1.70778e+21
-23.2849  1.77344e+21
-23.1676  1.85539e+21
-23.0503  1.95154e+21
-22.933  2.05866e+21
-22.8157  2.17237e+21
-22.6984  2.28775e+21
-22.5811  2.39964e+21
-22.4638  2.50347e+21
-22.3465  2.5957e+21
-22.2292  2.67386e+21
-22.1119  2.73714e+21
-21.9946  2.78649e+21
-21.8773  2.82401e+21
-21.76  2.85309e+21
-21.6427  2.87771e+21
-21.5254  2.90206e+21
-21.4081  2.93036e+21
-21.2908  2.96583e+21
-21.1735  3.01106e+21
-21.0561  3.06719e+21
-20.9388  3.1341e+21
-20.8215  3.21008e+21
-20.7042  3.29277e+21
-20.5869  3.37835e+21
-20.4696  3.46314e+21
-20.3523  3.54319e+21
-20.235  3.61522e+21
-20.1177  3.67651e+21
-20.0004  3.7261e+21
-19.8831  3.76396e+21
-19.7658  3.79168e+21
-19.6485  3.81149e+21
-19.5312  3.82704e+21
-19.4139  3.84159e+21
-19.2966  3.85886e+21
-19.1793  3.8819e+21
-19.062  3.91316e+21
-18.9447  3.95379e+21
-18.8274  4.00412e+21
-18.71  4.064e+21
-18.5927  4.132e+21
-18.4754  4.20641e+21
-18.3581  4.28532e+21
-18.2408  4.36704e+21
-18.1235  4.45006e+21
-18.0062  4.53353e+21
-17.8889  4.61703e+21
-17.7716  4.70143e+21
-17.6543  4.78772e+21
-17.537  4.8776e+21
-17.4197  4.97298e+21
-17.3024  5.07606e+21
-17.1851  5.18829e+21
-17.0678  5.31053e+21
-16.9505  5.44308e+21
-16.8332  5.58529e+21
-16.7159  5.73532e+21
-16.5986  5.89044e+21
-16.4813  6.0478e+21
-16.364  6.20402e+21
-16.2466  6.3563e+21
-16.1293  6.50154e+21
-16.012  6.63808e+21
-15.8947  6.76488e+21
-15.7774  6.88223e+21
-15.6601  6.99138e+21
-15.5428  7.09453e+21
-15.4255  7.19423e+21
-15.3082  7.29383e+21
-15.1909  7.39703e+21
-15.0736  7.50604e+21
-14.9563  7.62324e+21
-14.839  7.74966e+21
-14.7217  7.88444e+21
-14.6044  8.02561e+21
-14.4871  8.17014e+21
-14.3698  8.31348e+21
-14.2525  8.45038e+21
-14.1352  8.57537e+21
-14.0178  8.68483e+21
-13.9005  8.7747e+21
-13.7832  8.84339e+21
-13.6659  8.8911e+21
-13.5486  8.91976e+21
-13.4313  8.93292e+21
-13.314  8.93522e+21
-13.1967  8.93205e+21
-13.0794  8.92964e+21
-12.9621  8.93211e+21
-12.8448  8.94465e+21
-12.7275  8.96944e+21
-12.6102  9.00854e+21
-12.4929  9.06197e+21
-12.3756  9.12819e+21
-12.2583  9.2052e+21
-12.141  9.28985e+21
-12.0237  9.37825e+21
-11.9064  9.46658e+21
-11.7891  9.55157e+21
-11.6718  9.63062e+21
-11.5544  9.70274e+21
-11.4371  9.76848e+21
-11.3198  9.82902e+21
-11.2025  9.88801e+21
-11.0852  9.95009e+21
-10.9679  1.00206e+22
-10.8506  1.01052e+22
-10.7333  1.02091e+22
-10.616  1.03372e+22
-10.4987  1.04939e+22
-10.3814  1.06801e+22
-10.2641  1.08969e+22
-10.1468  1.1143e+22
-10.0295  1.1415e+22
-9.91217  1.1708e+22
-9.79487  1.2016e+22
-9.67756  1.23314e+22
-9.56026  1.2646e+22
-9.44295  1.29511e+22
-9.32565  1.32395e+22
-9.20834  1.35032e+22
-9.09104  1.37362e+22
-8.97373  1.39349e+22
-8.85643  1.40965e+22
-8.73913  1.42207e+22
-8.62182  1.43092e+22
-8.50452  1.43657e+22
-8.38721  1.43952e+22
-8.26991  1.44027e+22
-8.1526  1.43957e+22
-8.03529  1.43797e+22
-7.91799  1.43617e+22
-7.80069  1.4347e+22
-7.68338  1.43406e+22
-7.56608  1.4347e+22
-7.44877  1.43692e+22
-7.33146  1.4409e+22
-7.21416  1.4467e+22
-7.09685  1.4543e+22
-6.97955  1.46357e+22
-6.86224  1.47427e+22
-6.74494  1.48623e+22
-6.62763  1.49896e+22
-6.51033  1.51217e+22
-6.39302  1.52547e+22
-6.27572  1.53848e+22
-6.15842  1.55087e+22
-6.04111  1.56235e+22
-5.92381  1.57272e+22
-5.8065  1.58201e+22
-5.68919  1.59012e+22
-5.57189  1.5973e+22
-5.45458  1.60376e+22
-5.33728  1.60992e+22
-5.21997  1.6161e+22
-5.10267  1.62274e+22
-4.98536  1.63016e+22
-4.86806  1.63865e+22
-4.75075  1.64835e+22
-4.63345  1.65935e+22
-4.51614  1.67149e+22
-4.39884  1.68456e+22
-4.28154  1.69829e+22
-4.16423  1.71221e+22
-4.04692  1.72588e+22
-3.92962  1.73884e+22
-3.81231  1.75067e+22
-3.69501  1.76104e+22
-3.5777  1.76964e+22
-3.4604  1.77636e+22
-3.34309  1.78119e+22
-3.22579  1.78423e+22
-3.10849  1.78575e+22
-2.99118  1.78606e+22
-2.87387  1.78561e+22
-2.75657  1.7848e+22
-2.63926  1.78405e+22
-2.52196  1.78366e+22
-2.40465  1.78382e+22
-2.28735  1.78455e+22
-2.17005  1.78572e+22
-2.05274  1.78715e+22
-1.93544  1.78825e+22
-1.81813  1.78861e+22
-1.70083  1.78763e+22
-1.58352  1.78477e+22
-1.46622  1.77956e+22
-1.34891  1.77175e+22
-1.2316  1.76116e+22
-1.1143  1.74803e+22
-0.996995  1.73264e+22
-0.87969  1.71566e+22
-0.762385  1.69779e+22
-0.64508  1.68004e+22
-0.527775  1.66334e+22
-0.41047  1.64858e+22
-0.293165  1.63668e+22
-0.17586  1.62832e+22
-0.058555  1.62403e+22
0.05875  1.62403e+22
0.176055  1.62831e+22
0.29336  1.63663e+22
0.410665  1.6485e+22
0.52797  1.6632e+22
0.645275  1.67986e+22
0.76258  1.69754e+22
0.879885  1.7153e+22
0.99719  1.73216e+22
1.1145  1.74741e+22
1.2318  1.76042e+22
1.3491  1.77085e+22
1.46641  1.77853e+22
1.58371  1.78359e+22
1.70102  1.78631e+22
1.81832  1.78716e+22
1.93563  1.78665e+22
2.05294  1.78539e+22
2.17024  1.7839e+22
2.28754  1.7826e+22
2.40485  1.78176e+22
2.52216  1.78148e+22
2.63946  1.78178e+22
2.75677  1.78239e+22
2.87407  1.78306e+22
2.99137  1.78336e+22
3.10868  1.78288e+22
3.22599  1.78119e+22
3.34329  1.778e+22
3.4606  1.77304e+22
3.5779  1.76615e+22
3.69521  1.75736e+22
3.81251  1.74688e+22
3.92982  1.73485e+22
4.04712  1.72174e+22
4.16443  1.70796e+22
4.28173  1.69392e+22
4.39903  1.68009e+22
4.51634  1.6669e+22
4.63364  1.65469e+22
4.75095  1.64361e+22
4.86825  1.63381e+22
4.98556  1.62523e+22
5.10286  1.61772e+22
5.22017  1.611e+22
5.33748  1.60472e+22
5.45478  1.59847e+22
5.57209  1.59191e+22
5.68939  1.58462e+22
5.8067  1.57637e+22
5.924  1.56702e+22
6.0413  1.55653e+22
6.15861  1.54496e+22
6.27591  1.53249e+22
6.39322  1.51943e+22
6.51052  1.5061e+22
6.62783  1.49282e+22
6.74514  1.48004e+22
6.86244  1.46813e+22
6.97975  1.45741e+22
7.09705  1.44816e+22
7.21436  1.44058e+22
7.33166  1.4348e+22
7.44897  1.43085e+22
7.56627  1.42865e+22
7.68358  1.428e+22
7.80088  1.42859e+22
7.91819  1.42998e+22
8.03549  1.43173e+22
8.1528  1.43325e+22
8.2701  1.43383e+22
8.38741  1.43289e+22
8.50471  1.4298e+22
8.62202  1.42396e+22
8.73932  1.41487e+22
8.85662  1.40226e+22
8.97393  1.38593e+22
9.09123  1.3659e+22
9.20854  1.34244e+22
9.32584  1.31601e+22
9.44315  1.2871e+22
9.56045  1.25653e+22
9.67776  1.2251e+22
9.79506  1.1936e+22
9.91237  1.16288e+22
10.0297  1.13368e+22
10.147  1.10661e+22
10.2643  1.08215e+22
10.3816  1.06058e+22
10.4989  1.04208e+22
10.6162  1.02655e+22
10.7335  1.01381e+22
10.8508  1.00347e+22
10.9681  9.95043e+21
11.0854  9.88042e+21
11.2027  9.81846e+21
11.32  9.75911e+21
11.4373  9.69813e+21
11.5546  9.63225e+21
11.6719  9.55961e+21
11.7893  9.48035e+21
11.9066  9.39537e+21
12.0239  9.30685e+21
12.1412  9.21893e+21
12.2585  9.13483e+21
12.3758  9.05835e+21
12.4931  8.99272e+21
12.6104  8.94005e+21
12.7277  8.90179e+21
12.845  8.87792e+21
12.9623  8.86598e+21
13.0796  8.86393e+21
13.1969  8.86685e+21
13.3142  8.86989e+21
13.4315  8.86735e+21
13.5488  8.85391e+21
13.6661  8.82476e+21
13.7834  8.7762e+21
13.9007  8.70659e+21
14.018  8.61609e+21
14.1354  8.50584e+21
14.2527  8.37982e+21
14.37  8.24258e+21
14.4873  8.09883e+21
14.6046  7.95406e+21
14.7219  7.81256e+21
14.8392  7.67792e+21
14.9565  7.55192e+21
15.0738  7.43476e+21
15.1911  7.32616e+21
15.3084  7.22343e+21
15.4257  7.12401e+21
15.543  7.02465e+21
15.6603  6.9221e+21
15.7776  6.81368e+21
15.8949  6.69689e+21
16.0122  6.57075e+21
16.1295  6.43493e+21
16.2468  6.2904e+21
16.3641  6.13918e+21
16.4815  5.98399e+21
16.5988  5.82777e+21
16.7161  5.67349e+21
16.8334  5.52496e+21
16.9507  5.38396e+21
17.068  5.25255e+21
17.1853  5.13137e+21
17.3026  5.02031e+21
17.4199  4.91832e+21
17.5372  4.82392e+21
17.6545  4.73475e+21
17.7718  4.64952e+21
17.8891  4.56591e+21
18.0064  4.48317e+21
18.1237  4.40048e+21
18.241  4.31817e+21
18.3583  4.23723e+21
18.4756  4.15893e+21
18.5929  4.08517e+21
18.7102  4.01785e+21
18.8275  3.95854e+21
18.9449  3.90853e+21
19.0622  3.86844e+21
19.1795  3.83754e+21
19.2968  3.81461e+21
19.4141  3.79737e+21
19.5314  3.78287e+21
19.6487  3.76732e+21
19.766  3.74727e+21
19.8833  3.7196e+21
20.0006  3.68149e+21
20.1179  3.63188e+21
20.2352  3.57065e+21
20.3525  3.49894e+21
20.4698  3.4194e+21
20.5871  3.33522e+21
20.7044  3.25035e+21
20.8217  3.1686e+21
20.939  3.09351e+21
21.0563  3.02763e+21
21.1736  2.97245e+21
21.291  2.92819e+21
21.4083  2.8933e+21
21.5256  2.86579e+21
21.6429  2.84185e+21
21.7602  2.81769e+21
21.8775  2.78888e+21
21.9948  2.75155e+21
22.1121  2.70239e+21
22.2294  2.63917e+21
22.3467  2.56127e+21
22.464  2.46956e+21
22.5813  2.36617e+21
22.6986  2.25512e+21
22.8159  2.14071e+21
22.9332  2.02811e+21
23.0505  1.92215e+21
23.1678  1.82732e+21
23.2851  1.74673e+21
23.4024  1.68229e+21
23.5198  1.63471e+21
23.6371  1.60318e+21
23.7544  1.58579e+21
23.8717  1.57989e+21
23.989  1.58234e+21
24.1063  1.58988e+21
24.2236  1.59932e+21
24.3409  1.60771e+21
24.4582  1.6128e+21
24.5755  1.6127e+21
24.6928  1.60636e+21
24.8101  1.5932e+21
24.9274  1.5733e+21
25.0447  1.54727e+21
25.162  1.51615e+21
25.2793  1.48107e+21
25.3966  1.44324e+21
25.5139  1.40382e+21
25.6312  1.36374e+21
25.7485  1.32372e+21
25.8658  1.28428e+21
25.9832  1.24565e+21
26.1005  1.20815e+21
26.2178  1.17201e+21
26.3351  1.13744e+21
26.4524  1.10473e+21
26.5697  1.07434e+21
26.687  1.04658e+21
26.8043  1.02165e+21
26.9216  9.99821e+20
27.0389  9.81064e+20
27.1562  9.65355e+20
27.2735  9.52367e+20
27.3908  9.41924e+20
27.5081  9.33534e+20
27.6254  9.26704e+20
27.7427  9.20967e+20
27.86  9.1559e+20
27.9773  9.1006e+20
28.0946  9.03833e+20
28.212  8.96617e+20
28.3293  8.88332e+20
28.4466  8.79112e+20
28.5639  8.69529e+20
28.6812  8.60096e+20
28.7985  8.51634e+20
28.9158  8.44576e+20
29.0331  8.39073e+20
29.1504  8.35028e+20
29.2677  8.3188e+20
29.385  8.28657e+20
29.5023  8.24296e+20
29.6196  8.17629e+20
29.7369  8.07903e+20
29.8542  7.94594e+20
29.9715  7.77608e+20
30.0888  7.57346e+20
30.2061  7.34553e+20
30.3234  7.10423e+20
30.4407  6.8608e+20
30.558  6.6265e+20
30.6754  6.41229e+20
30.7927  6.22445e+20
30.91  6.06819e+20
31.0273  5.94196e+20
31.1446  5.84027e+20
31.2619  5.7558e+20
31.3792  5.67527e+20
31.4965  5.58787e+20
31.6138  5.48303e+20
31.7311  5.35216e+20
31.8484  5.19557e+20
31.9657  5.01894e+20
32.083  4.83433e+20
32.2003  4.65892e+20
32.3176  4.51335e+20
32.4349  4.41816e+20
32.5522  4.38973e+20
32.6695  4.43904e+20
32.7868  4.57089e+20
32.9042  4.78108e+20
33.0215  5.05785e+20
33.1388  5.38571e+20
33.2561  5.74142e+20
33.3734  6.10384e+20
33.4907  6.44778e+20
33.608  6.75105e+20
33.7253  6.99313e+20
33.8426  7.15621e+20
33.9599  7.2311e+20
34.0772  7.21109e+20
34.1945  7.09956e+20
34.3118  6.90608e+20
34.4291  6.6472e+20
34.5464  6.34301e+20
34.6637  6.01341e+20
34.781  5.68038e+20
34.8983  5.3581e+20
35.0156  5.05765e+20
35.1329  4.78287e+20
35.2503  4.53067e+20
35.3676  4.29764e+20
35.4849  4.07398e+20
35.6022  3.85639e+20
35.7195  3.64082e+20
35.8368  3.42754e+20
35.9541  3.21777e+20
36.0714  3.01713e+20
36.1887  2.83139e+20
36.306  2.66574e+20
36.4233  2.5257e+20
36.5406  2.4181e+20
36.6579  2.34942e+20
36.7752  2.32537e+20
36.8925  2.35196e+20
37.0098  2.43455e+20
37.1271  2.57272e+20
37.2444  2.76356e+20
37.3617  2.99596e+20
37.479  3.25355e+20
37.5964  3.51534e+20
37.7137  3.75808e+20
37.831  3.96113e+20
37.9483  4.10653e+20
38.0656  4.18739e+20
38.1829  4.20458e+20
38.3002  4.16831e+20
38.4175  4.09822e+20
38.5348  4.01532e+20
38.6521  3.94272e+20
38.7694  3.89924e+20
38.8867  3.89733e+20
39.004  3.94271e+20
39.1213  4.03102e+20
39.2386  4.15288e+20
39.3559  4.29271e+20
39.4732  4.4332e+20
39.5905  4.55677e+20
39.7078  4.64789e+20
39.8251  4.69466e+20
39.9425  4.69123e+20
40.0598  4.63814e+20
40.1771  4.53811e+20
40.2944  4.4011e+20
40.4117  4.23984e+20
40.529  4.06872e+20
40.6463  3.90013e+20
40.7636  3.74702e+20
40.8809  3.61569e+20
40.9982  3.50919e+20
41.1155  3.42639e+20
41.2328  3.36135e+20
41.3501  3.30615e+20
41.4674  3.25209e+20
41.5847  3.19188e+20
41.702  3.1209e+20
41.8193  3.03719e+20
41.9366  2.94336e+20
42.0539  2.84326e+20
42.1712  2.74246e+20
42.2885  2.6477e+20
42.4059  2.56566e+20
42.5232  2.50012e+20
42.6405  2.45493e+20
42.7578  2.43005e+20
42.8751  2.4255e+20
42.9924  2.43748e+20
43.1097  2.46176e+20
43.227  2.49184e+20
43.3443  2.51954e+20
43.4616  2.53681e+20
43.5789  2.53524e+20
43.6962  2.50825e+20
43.8135  2.45117e+20
43.9308  2.36328e+20
44.0481  2.24798e+20
44.1654  2.11159e+20
44.2827  1.96324e+20
44.4  1.81317e+20
44.5173  1.67199e+20
44.6347  1.54929e+20
44.752  1.45212e+20
44.8693  1.38524e+20
44.9866  1.35065e+20
45.1039  1.3496e+20
45.2212  1.38148e+20
45.3385  1.44489e+20
45.4558  1.53793e+20
45.5731  1.65632e+20
45.6904  1.79512e+20
45.8077  1.94696e+20
45.925  2.10202e+20
46.0423  2.2493e+20
46.1596  2.37848e+20
46.2769  2.48011e+20
46.3942  2.54816e+20
46.5115  2.58186e+20
46.6288  2.58417e+20
46.7461  2.56276e+20
46.8634  2.52691e+20
46.9808  2.4874e+20
47.0981  2.45385e+20
47.2154  2.43166e+20
47.3327  2.42445e+20
47.45  2.42897e+20
47.5673  2.44262e+20
47.6846  2.45886e+20
47.8019  2.47246e+20
47.9192  2.47927e+20
48.0365  2.47691e+20
48.1538  2.46668e+20
48.2711  2.45042e+20
48.3884  2.43201e+20
48.5057  2.41503e+20
48.623  2.40226e+20
48.7403  2.39572e+20
48.8576  2.39469e+20
48.9749  2.39795e+20
49.0922  2.40146e+20
49.2095  2.40023e+20
49.3269  2.39022e+20
49.4442  2.3665e+20
49.5615  2.32649e+20
49.6788  2.26816e+20
49.7961  2.19215e+20
49.9134  2.10104e+20
50.0307  1.99981e+20
50.148  1.89375e+20
50.2653  1.78818e+20
50.3826  1.68864e+20
50.4999  1.59917e+20
50.6172  1.5224e+20
50.7345  1.45941e+20
50.8518  1.41094e+20
