#S 1 spectral density
#N 2
#UFWHM 24.986
#L  abscissas [um]  spectral density
-58.5938  6.37356e+19
-58.4764  7.08939e+19
-58.3591  8.00522e+19
-58.2418  9.07802e+19
-58.1245  1.02559e+20
-58.0072  1.14866e+20
-57.8899  1.27185e+20
-57.7726  1.39006e+20
-57.6553  1.49794e+20
-57.538  1.5904e+20
-57.4207  1.66184e+20
-57.3034  1.70744e+20
-57.1861  1.7242e+20
-57.0688  1.71183e+20
-56.9515  1.67337e+20
-56.8342  1.61472e+20
-56.7169  1.54487e+20
-56.5996  1.47189e+20
-56.4823  1.40416e+20
-56.365  1.34627e+20
-56.2477  1.29921e+20
-56.1303  1.26033e+20
-56.013  1.22559e+20
-55.8957  1.18895e+20
-55.7784  1.14692e+20
-55.6611  1.0972e+20
-55.5438  1.04129e+20
-55.4265  9.83684e+19
-55.3092  9.29239e+19
-55.1919  8.82653e+19
-55.0746  8.47478e+19
-54.9573  8.24222e+19
-54.84  8.11759e+19
-54.7227  8.06528e+19
-54.6054  8.05741e+19
-54.4881  8.0754e+19
-54.3708  8.12209e+19
-54.2535  8.21393e+19
-54.1362  8.38191e+19
-54.0189  8.67061e+19
-53.9016  9.10788e+19
-53.7842  9.70416e+19
-53.6669  1.04589e+20
-53.5496  1.1345e+20
-53.4323  1.23308e+20
-53.315  1.33735e+20
-53.1977  1.44307e+20
-53.0804  1.54706e+20
-52.9631  1.64553e+20
-52.8458  1.73452e+20
-52.7285  1.81061e+20
-52.6112  1.86938e+20
-52.4939  1.90713e+20
-52.3766  1.92059e+20
-52.2593  1.90862e+20
-52.142  1.87296e+20
-52.0247  1.81698e+20
-51.9074  1.74738e+20
-51.7901  1.67098e+20
-51.6728  1.59591e+20
-51.5555  1.52821e+20
-51.4381  1.47328e+20
-51.3208  1.43329e+20
-51.2035  1.40861e+20
-51.0862  1.39861e+20
-50.9689  1.40205e+20
-50.8516  1.41805e+20
-50.7343  1.44571e+20
-50.617  1.48504e+20
-50.4997  1.53629e+20
-50.3824  1.59859e+20
-50.2651  1.67117e+20
-50.1478  1.75043e+20
-50.0305  1.83368e+20
-49.9132  1.91562e+20
-49.7959  1.99249e+20
-49.6786  2.06051e+20
-49.5613  2.11791e+20
-49.444  2.16436e+20
-49.3267  2.20122e+20
-49.2094  2.23171e+20
-49.092  2.25916e+20
-48.9747  2.28772e+20
-48.8574  2.32045e+20
-48.7401  2.35955e+20
-48.6228  2.40511e+20
-48.5055  2.45574e+20
-48.3882  2.50733e+20
-48.2709  2.55508e+20
-48.1536  2.59355e+20
-48.0363  2.61718e+20
-47.919  2.62279e+20
-47.8017  2.60925e+20
-47.6844  2.57919e+20
-47.5671  2.53746e+20
-47.4498  2.49129e+20
-47.3325  2.44948e+20
-47.2152  2.41836e+20
-47.0979  2.40343e+20
-46.9806  2.40431e+20
-46.8633  2.41744e+20
-46.7459  2.43638e+20
-46.6286  2.45118e+20
-46.5113  2.45312e+20
-46.394  2.43367e+20
-46.2767  2.38869e+20
-46.1594  2.31749e+20
-46.0421  2.22287e+20
-45.9248  2.111e+20
-45.8075  1.98962e+20
-45.6902  1.86636e+20
-45.5729  1.74846e+20
-45.4556  1.64128e+20
-45.3383  1.54957e+20
-45.221  1.47645e+20
-45.1037  1.4256e+20
-44.9864  1.3993e+20
-44.8691  1.40098e+20
-44.7518  1.43257e+20
-44.6345  1.4951e+20
-44.5172  1.58668e+20
-44.3998  1.70291e+20
-44.2825  1.83717e+20
-44.1652  1.98062e+20
-44.0479  2.12275e+20
-43.9306  2.25476e+20
-43.8133  2.36897e+20
-43.696  2.45961e+20
-43.5787  2.52536e+20
-43.4614  2.56767e+20
-43.3441  2.5899e+20
-43.2268  2.59778e+20
-43.1095  2.59698e+20
-42.9922  2.59439e+20
-42.8749  2.59614e+20
-42.7576  2.60685e+20
-42.6403  2.63161e+20
-42.523  2.67219e+20
-42.4057  2.73017e+20
-42.2884  2.80449e+20
-42.171  2.89125e+20
-42.0537  2.98581e+20
-41.9364  3.08101e+20
-41.8191  3.17087e+20
-41.7018  3.24967e+20
-41.5845  3.31417e+20
-41.4672  3.3651e+20
-41.3499  3.40591e+20
-41.2326  3.44391e+20
-41.1153  3.48848e+20
-40.998  3.54892e+20
-40.8807  3.63232e+20
-40.7634  3.74353e+20
-40.6461  3.88191e+20
-40.5288  4.04273e+20
-40.4115  4.21595e+20
-40.2942  4.38736e+20
-40.1769  4.54311e+20
-40.0596  4.66891e+20
-39.9423  4.75277e+20
-39.825  4.7856e+20
-39.7076  4.76454e+20
-39.5903  4.69223e+20
-39.473  4.57823e+20
-39.3557  4.43425e+20
-39.2384  4.27833e+20
-39.1211  4.12956e+20
-39.0038  4.00422e+20
-38.8865  3.91618e+20
-38.7692  3.87337e+20
-38.6519  3.87379e+20
-38.5346  3.9097e+20
-38.4173  3.96381e+20
-38.3  4.01729e+20
-38.1827  4.0474e+20
-38.0654  4.03611e+20
-37.9481  3.97111e+20
-37.8308  3.8478e+20
-37.7135  3.67119e+20
-37.5962  3.4548e+20
-37.4789  3.21687e+20
-37.3615  2.97708e+20
-37.2442  2.75488e+20
-37.1269  2.56596e+20
-37.0096  2.42187e+20
-36.8923  2.32746e+20
-36.775  2.28489e+20
-36.6577  2.29214e+20
-36.5404  2.34732e+20
-36.4231  2.44658e+20
-36.3058  2.58455e+20
-36.1885  2.75698e+20
-36.0712  2.95769e+20
-35.9539  3.17923e+20
-35.8366  3.41388e+20
-35.7193  3.6529e+20
-35.602  3.8906e+20
-35.4847  4.12361e+20
-35.3674  4.35261e+20
-35.2501  4.58191e+20
-35.1328  4.81747e+20
-35.0154  5.06682e+20
-34.8981  5.33261e+20
-34.7808  5.61613e+20
-34.6635  5.9118e+20
-34.5462  6.20725e+20
-34.4289  6.48846e+20
-34.3116  6.73682e+20
-34.1943  6.93448e+20
-34.077  7.06508e+20
-33.9597  7.11785e+20
-33.8424  7.08679e+20
-33.7251  6.97299e+20
-33.6078  6.78106e+20
-33.4905  6.52252e+20
-33.3732  6.21285e+20
-33.2559  5.87108e+20
-33.1386  5.51866e+20
-33.0213  5.17839e+20
-32.904  4.87347e+20
-32.7867  4.62386e+20
-32.6693  4.44505e+20
-32.552  4.34672e+20
-32.4347  4.32827e+20
-32.3174  4.38446e+20
-32.2001  4.50081e+20
-32.0828  4.6591e+20
-31.9655  4.83951e+20
-31.8482  5.02392e+20
-31.7309  5.19793e+20
-31.6136  5.3536e+20
-31.4963  5.489e+20
-31.379  5.60832e+20
-31.2617  5.72081e+20
-31.1444  5.83654e+20
-31.0271  5.96543e+20
-30.9098  6.11901e+20
-30.7925  6.29945e+20
-30.6752  6.50842e+20
-30.5579  6.7433e+20
-30.4406  6.99617e+20
-30.3232  7.25728e+20
-30.2059  7.51193e+20
-30.0886  7.74737e+20
-29.9713  7.95374e+20
-29.854  8.11979e+20
-29.7367  8.24055e+20
-29.6194  8.31755e+20
-29.5021  8.35594e+20
-29.3848  8.36487e+20
-29.2675  8.35788e+20
-29.1502  8.34799e+20
-29.0329  8.34768e+20
-28.9156  8.3652e+20
-28.7983  8.40436e+20
-28.681  8.46512e+20
-28.5637  8.54339e+20
-28.4464  8.63285e+20
-28.3291  8.72685e+20
-28.2118  8.81848e+20
-28.0944  8.90454e+20
-27.9771  8.98434e+20
-27.8598  9.05928e+20
-27.7425  9.13308e+20
-27.6252  9.20972e+20
-27.5079  9.29593e+20
-27.3906  9.39685e+20
-27.2733  9.51969e+20
-27.156  9.6675e+20
-27.0387  9.84615e+20
-26.9214  1.00582e+21
-26.8041  1.03058e+21
-26.6868  1.05878e+21
-26.5695  1.0902e+21
-26.4522  1.12429e+21
-26.3349  1.16061e+21
-26.2176  1.19848e+21
-26.1003  1.23716e+21
-25.983  1.27613e+21
-25.8657  1.31488e+21
-25.7483  1.35292e+21
-25.631  1.38997e+21
-25.5137  1.4255e+21
-25.3964  1.45916e+21
-25.2791  1.49022e+21
-25.1618  1.51814e+21
-25.0445  1.54204e+21
-24.9272  1.56138e+21
-24.8099  1.57559e+21
-24.6926  1.58458e+21
-24.5753  1.58836e+21
-24.458  1.58757e+21
-24.3407  1.58305e+21
-24.2234  1.57648e+21
-24.1061  1.56961e+21
-23.9888  1.56482e+21
-23.8715  1.56476e+21
-23.7542  1.57242e+21
-23.6369  1.59048e+21
-23.5196  1.6216e+21
-23.4023  1.66767e+21
-23.2849  1.72973e+21
-23.1676  1.80765e+21
-23.0503  1.89994e+21
-22.933  2.00396e+21
-22.8157  2.11583e+21
-22.6984  2.23103e+21
-22.5811  2.34459e+21
-22.4638  2.45189e+21
-22.3465  2.54911e+21
-22.2292  2.63333e+21
-22.1119  2.70315e+21
-21.9946  2.75883e+21
-21.8773  2.80186e+21
-21.76  2.8351e+21
-21.6427  2.86216e+21
-21.5254  2.8871e+21
-21.4081  2.9142e+21
-21.2908  2.94697e+21
-21.1735  2.98844e+21
-21.0561  3.04027e+21
-20.9388  3.1029e+21
-20.8215  3.17511e+21
-20.7042  3.25493e+21
-20.5869  3.33876e+21
-20.4696  3.42295e+21
-20.3523  3.50342e+21
-20.235  3.57665e+21
-20.1177  3.63952e+21
-20.0004  3.69073e+21
-19.8831  3.72988e+21
-19.7658  3.75834e+21
-19.6485  3.7782e+21
-19.5312  3.79315e+21
-19.4139  3.80665e+21
-19.2966  3.82276e+21
-19.1793  3.8449e+21
-19.062  3.87599e+21
-18.9447  3.91755e+21
-18.8274  3.97022e+21
-18.71  4.03399e+21
-18.5927  4.10736e+21
-18.4754  4.18842e+21
-18.3581  4.27479e+21
-18.2408  4.36422e+21
-18.1235  4.45446e+21
-18.0062  4.54397e+21
-17.8889  4.63162e+21
-17.7716  4.71773e+21
-17.6543  4.80292e+21
-17.537  4.88876e+21
-17.4197  4.97735e+21
-17.3024  5.07128e+21
-17.1851  5.17272e+21
-17.0678  5.2834e+21
-16.9505  5.4046e+21
-16.8332  5.53665e+21
-16.7159  5.67865e+21
-16.5986  5.82858e+21
-16.4813  5.98404e+21
-16.364  6.14183e+21
-16.2466  6.29894e+21
-16.1293  6.45178e+21
-16.012  6.59797e+21
-15.8947  6.7355e+21
-15.7774  6.8637e+21
-15.6601  6.98287e+21
-15.5428  7.09437e+21
-15.4255  7.20016e+21
-15.3082  7.30329e+21
-15.1909  7.40744e+21
-15.0736  7.5151e+21
-14.9563  7.62916e+21
-14.839  7.75134e+21
-14.7217  7.8815e+21
-14.6044  8.01837e+21
-14.4871  8.15952e+21
-14.3698  8.30076e+21
-14.2525  8.43702e+21
-14.1352  8.56276e+21
-14.0178  8.67403e+21
-13.9005  8.76633e+21
-13.7832  8.83751e+21
-13.6659  8.88723e+21
-13.5486  8.91692e+21
-13.4313  8.9298e+21
-13.314  8.93037e+21
-13.1967  8.92412e+21
-13.0794  8.91756e+21
-12.9621  8.91532e+21
-12.8448  8.92321e+21
-12.7275  8.94409e+21
-12.6102  8.98066e+21
-12.4929  9.03355e+21
-12.3756  9.10156e+21
-12.2583  9.18287e+21
-12.141  9.27422e+21
-12.0237  9.37136e+21
-11.9064  9.46985e+21
-11.7891  9.56562e+21
-11.6718  9.65513e+21
-11.5544  9.73639e+21
-11.4371  9.80903e+21
-11.3198  9.8734e+21
-11.2025  9.93261e+21
-11.0852  9.991e+21
-10.9679  1.00539e+22
-10.8506  1.01276e+22
-10.7333  1.02179e+22
-10.616  1.03306e+22
-10.4987  1.04714e+22
-10.3814  1.06427e+22
-10.2641  1.08465e+22
-10.1468  1.10828e+22
-10.0295  1.13492e+22
-9.91217  1.1641e+22
-9.79487  1.19526e+22
-9.67756  1.22759e+22
-9.56026  1.26022e+22
-9.44295  1.29219e+22
-9.32565  1.32264e+22
-9.20834  1.35068e+22
-9.09104  1.37558e+22
-8.97373  1.39687e+22
-8.85643  1.41421e+22
-8.73913  1.42753e+22
-8.62182  1.43699e+22
-8.50452  1.44298e+22
-8.38721  1.44606e+22
-8.26991  1.44678e+22
-8.1526  1.44598e+22
-8.03529  1.44428e+22
-7.91799  1.4424e+22
-7.80069  1.44094e+22
-7.68338  1.44036e+22
-7.56608  1.44111e+22
-7.44877  1.44344e+22
-7.33146  1.44744e+22
-7.21416  1.45313e+22
-7.09685  1.46041e+22
-6.97955  1.46908e+22
-6.86224  1.4789e+22
-6.74494  1.48969e+22
-6.62763  1.50098e+22
-6.51033  1.51257e+22
-6.39302  1.52415e+22
-6.27572  1.53546e+22
-6.15842  1.54629e+22
-6.04111  1.55649e+22
-5.92381  1.56596e+22
-5.8065  1.57482e+22
-5.68919  1.58303e+22
-5.57189  1.59084e+22
-5.45458  1.59845e+22
-5.33728  1.6062e+22
-5.21997  1.61431e+22
-5.10267  1.62308e+22
-4.98536  1.63271e+22
-4.86806  1.64332e+22
-4.75075  1.65494e+22
-4.63345  1.66752e+22
-4.51614  1.68085e+22
-4.39884  1.69466e+22
-4.28154  1.70869e+22
-4.16423  1.72253e+22
-4.04692  1.73579e+22
-3.92962  1.74813e+22
-3.81231  1.75925e+22
-3.69501  1.76892e+22
-3.5777  1.77693e+22
-3.4604  1.78324e+22
-3.34309  1.7879e+22
-3.22579  1.79099e+22
-3.10849  1.79275e+22
-2.99118  1.79342e+22
-2.87387  1.79338e+22
-2.75657  1.79291e+22
-2.63926  1.79232e+22
-2.52196  1.79186e+22
-2.40465  1.79165e+22
-2.28735  1.7917e+22
-2.17005  1.7919e+22
-2.05274  1.79213e+22
-1.93544  1.79191e+22
-1.81813  1.79095e+22
-1.70083  1.78878e+22
-1.58352  1.785e+22
-1.46622  1.77926e+22
-1.34891  1.77139e+22
-1.2316  1.76127e+22
-1.1143  1.74915e+22
-0.996995  1.73527e+22
-0.87969  1.7202e+22
-0.762385  1.70452e+22
-0.64508  1.6891e+22
-0.527775  1.67468e+22
-0.41047  1.662e+22
-0.293165  1.65181e+22
-0.17586  1.64466e+22
-0.058555  1.64099e+22
0.05875  1.64098e+22
0.176055  1.64462e+22
0.29336  1.65171e+22
0.410665  1.66186e+22
0.52797  1.67447e+22
0.645275  1.68884e+22
0.76258  1.70419e+22
0.879885  1.71975e+22
0.99719  1.73471e+22
1.1145  1.74846e+22
1.2318  1.76047e+22
1.3491  1.77044e+22
1.46641  1.77818e+22
1.58371  1.78379e+22
1.70102  1.78744e+22
1.81832  1.78949e+22
1.93563  1.79031e+22
2.05294  1.79039e+22
2.17024  1.7901e+22
2.28754  1.78977e+22
2.40485  1.78961e+22
2.52216  1.7897e+22
2.63946  1.79008e+22
2.75677  1.79051e+22
2.87407  1.79085e+22
2.99137  1.79075e+22
3.10868  1.7899e+22
3.22599  1.78797e+22
3.34329  1.78473e+22
3.4606  1.77994e+22
3.5779  1.77344e+22
3.69521  1.76522e+22
3.81251  1.75543e+22
3.92982  1.74411e+22
4.04712  1.73159e+22
4.16443  1.7182e+22
4.28173  1.70423e+22
4.39903  1.69008e+22
4.51634  1.67613e+22
4.63364  1.66273e+22
4.75095  1.65006e+22
4.86825  1.63834e+22
4.98556  1.62765e+22
5.10286  1.61794e+22
5.22017  1.6091e+22
5.33748  1.60091e+22
5.45478  1.5931e+22
5.57209  1.58542e+22
5.68939  1.57751e+22
5.8067  1.5692e+22
5.924  1.56029e+22
6.0413  1.55072e+22
6.15861  1.54043e+22
6.27591  1.52952e+22
6.39322  1.51816e+22
6.51052  1.50655e+22
6.62783  1.49488e+22
6.74514  1.48353e+22
6.86244  1.47279e+22
6.97975  1.46293e+22
7.09705  1.45425e+22
7.21436  1.44699e+22
7.33166  1.44131e+22
7.44897  1.43732e+22
7.56627  1.43502e+22
7.68358  1.43426e+22
7.80088  1.43478e+22
7.91819  1.43618e+22
8.03549  1.438e+22
8.1528  1.43964e+22
8.2701  1.44031e+22
8.38741  1.4394e+22
8.50471  1.43617e+22
8.62202  1.42999e+22
8.73932  1.42029e+22
8.85662  1.40679e+22
8.97393  1.38927e+22
9.09123  1.36781e+22
9.20854  1.34276e+22
9.32584  1.31467e+22
9.44315  1.28414e+22
9.56045  1.25213e+22
9.67776  1.21954e+22
9.79506  1.18725e+22
9.91237  1.15619e+22
10.0297  1.12711e+22
10.147  1.10061e+22
10.2643  1.07713e+22
10.3816  1.05685e+22
10.4989  1.03985e+22
10.6162  1.0259e+22
10.7335  1.01469e+22
10.8508  1.0057e+22
10.9681  9.98362e+21
11.0854  9.92101e+21
11.2027  9.86263e+21
11.32  9.80296e+21
11.4373  9.73806e+21
11.5546  9.66523e+21
11.6719  9.5834e+21
11.7893  9.49367e+21
11.9066  9.39792e+21
12.0239  9.29928e+21
12.1412  9.20266e+21
12.2585  9.1119e+21
12.3758  9.03118e+21
12.4931  8.96382e+21
12.6104  8.91175e+21
12.7277  8.87606e+21
12.845  8.85613e+21
12.9623  8.84887e+21
13.0796  8.85155e+21
13.1969  8.85862e+21
13.3142  8.86477e+21
13.4315  8.86396e+21
13.5488  8.85081e+21
13.6661  8.82064e+21
13.7834  8.77011e+21
13.9007  8.69804e+21
14.018  8.60515e+21
14.1354  8.49312e+21
14.2527  8.36642e+21
14.37  8.22986e+21
14.4873  8.08824e+21
14.6046  7.9469e+21
14.7219  7.8097e+21
14.8392  7.67969e+21
14.9565  7.55791e+21
15.0738  7.44386e+21
15.1911  7.33657e+21
15.3084  7.23286e+21
15.4257  7.12988e+21
15.543  7.02442e+21
15.6603  6.91352e+21
15.7776  6.79512e+21
15.8949  6.66751e+21
16.0122  6.5307e+21
16.1295  6.38531e+21
16.2468  6.23326e+21
16.3641  6.07728e+21
16.4815  5.9206e+21
16.5988  5.76632e+21
16.7161  5.61726e+21
16.8334  5.47675e+21
16.9507  5.34587e+21
17.068  5.22575e+21
17.1853  5.11605e+21
17.3026  5.01568e+21
17.4199  4.92271e+21
17.5372  4.83499e+21
17.6545  4.74975e+21
17.7718  4.66554e+21
17.8891  4.58015e+21
18.0064  4.49323e+21
18.1237  4.40449e+21
18.241  4.31497e+21
18.3583  4.22637e+21
18.4756  4.14067e+21
18.5929  4.06035e+21
18.7102  3.98772e+21
18.8275  3.92463e+21
18.9449  3.87236e+21
19.0622  3.8314e+21
19.1795  3.80073e+21
19.2968  3.77873e+21
19.4141  3.76269e+21
19.5314  3.74924e+21
19.6487  3.73429e+21
19.766  3.71421e+21
19.8833  3.68581e+21
20.0006  3.64641e+21
20.1179  3.5952e+21
20.2352  3.53239e+21
20.3525  3.45951e+21
20.4698  3.37957e+21
20.5871  3.29603e+21
20.7044  3.21293e+21
20.8217  3.13406e+21
20.939  3.06273e+21
21.0563  3.00111e+21
21.1736  2.95019e+21
21.291  2.90964e+21
21.4083  2.87741e+21
21.5256  2.85103e+21
21.6429  2.82645e+21
21.7602  2.79981e+21
21.8775  2.76683e+21
21.9948  2.72398e+21
22.1121  2.66851e+21
22.2294  2.59881e+21
22.3467  2.51491e+21
22.464  2.41828e+21
22.5813  2.31151e+21
22.6986  2.19886e+21
22.8159  2.08469e+21
22.9332  1.97397e+21
23.0505  1.87115e+21
23.1678  1.78016e+21
23.2851  1.70357e+21
23.4024  1.6427e+21
23.5198  1.59778e+21
23.6371  1.56772e+21
23.7544  1.55049e+21
23.8717  1.54358e+21
23.989  1.54414e+21
24.1063  1.54936e+21
24.2236  1.55659e+21
24.3409  1.56342e+21
24.4582  1.5681e+21
24.5755  1.56906e+21
24.6928  1.56545e+21
24.8101  1.55667e+21
24.9274  1.54259e+21
25.0447  1.52346e+21
25.162  1.49986e+21
25.2793  1.47237e+21
25.3966  1.44166e+21
25.5139  1.40846e+21
25.6312  1.37331e+21
25.7485  1.33673e+21
25.8658  1.29916e+21
25.9832  1.26087e+21
26.1005  1.22241e+21
26.2178  1.18425e+21
26.3351  1.14693e+21
26.4524  1.11106e+21
26.5697  1.07743e+21
26.687  1.04654e+21
26.8043  1.01879e+21
26.9216  9.94534e+20
27.0389  9.73721e+20
27.1562  9.56276e+20
27.2735  9.41766e+20
27.3908  9.29889e+20
27.5081  9.20047e+20
27.6254  9.11671e+20
27.7427  9.0427e+20
27.86  8.97155e+20
27.9773  8.89916e+20
28.0946  8.82162e+20
28.212  8.73787e+20
28.3293  8.64904e+20
28.4466  8.55815e+20
28.5639  8.47213e+20
28.6812  8.39661e+20
28.7985  8.33946e+20
28.9158  8.30381e+20
29.0331  8.28927e+20
29.1504  8.29233e+20
29.2677  8.30457e+20
29.385  8.31343e+20
29.5023  8.30589e+20
29.6196  8.26829e+20
29.7369  8.19208e+20
29.8542  8.07163e+20
29.9715  7.90648e+20
30.0888  7.70171e+20
30.2061  7.46607e+20
30.3234  7.21305e+20
30.4407  6.95516e+20
30.558  6.70449e+20
30.6754  6.47246e+20
30.7927  6.26517e+20
30.91  6.08755e+20
31.0273  5.93745e+20
31.1446  5.80905e+20
31.2619  5.6952e+20
31.3792  5.58332e+20
31.4965  5.46423e+20
31.6138  5.32958e+20
31.7311  5.1736e+20
31.8484  4.99959e+20
31.9657  4.81595e+20
32.083  4.63679e+20
32.2003  4.48015e+20
32.3176  4.36622e+20
32.4349  4.31343e+20
32.5522  4.33474e+20
32.6695  4.43646e+20
32.7868  4.61813e+20
32.9042  4.87035e+20
33.0215  5.17669e+20
33.1388  5.51838e+20
33.2561  5.87046e+20
33.3734  6.21217e+20
33.4907  6.52055e+20
33.608  6.77739e+20
33.7253  6.96743e+20
33.8426  7.07854e+20
33.9599  7.10721e+20
34.0772  7.05153e+20
34.1945  6.91832e+20
34.3118  6.71886e+20
34.4291  6.46939e+20
34.5464  6.18804e+20
34.6637  5.89117e+20
34.781  5.59634e+20
34.8983  5.31283e+20
35.0156  5.04712e+20
35.1329  4.79919e+20
35.2503  4.56343e+20
35.3676  4.3353e+20
35.4849  4.10543e+20
35.6022  3.87226e+20
35.7195  3.63468e+20
35.8368  3.3964e+20
35.9541  3.16232e+20
36.0714  2.94141e+20
36.1887  2.74194e+20
36.306  2.5706e+20
36.4233  2.43326e+20
36.5406  2.33574e+20
36.6579  2.2825e+20
36.7752  2.27655e+20
36.8925  2.32072e+20
37.0098  2.41726e+20
37.1271  2.56319e+20
37.2444  2.75376e+20
37.3617  2.97723e+20
37.479  3.2177e+20
37.5964  3.45591e+20
37.7137  3.67138e+20
37.831  3.84679e+20
37.9483  3.96796e+20
38.0656  4.03146e+20
38.1829  4.04107e+20
38.3002  4.00889e+20
38.4175  3.95517e+20
38.5348  3.90012e+20
38.6521  3.86469e+20
38.7694  3.86448e+20
38.8867  3.90791e+20
39.004  3.99632e+20
39.1213  4.12132e+20
39.2386  4.27004e+20
39.3559  4.42471e+20
39.4732  4.56714e+20
39.5905  4.6803e+20
39.7078  4.75066e+20
39.8251  4.76936e+20
39.9425  4.73442e+20
40.0598  4.6503e+20
40.1771  4.52345e+20
40.2944  4.36679e+20
40.4117  4.19492e+20
40.529  4.02287e+20
40.6463  3.86249e+20
40.7636  3.72497e+20
40.8809  3.61434e+20
40.9982  3.53093e+20
41.1155  3.47102e+20
41.2328  3.42656e+20
41.3501  3.38822e+20
41.4674  3.34683e+20
41.5847  3.2954e+20
41.702  3.23028e+20
41.8193  3.15093e+20
41.9366  3.06132e+20
42.0539  2.96651e+20
42.1712  2.87257e+20
42.2885  2.78622e+20
42.4059  2.71317e+20
42.5232  2.65581e+20
42.6405  2.61604e+20
42.7578  2.59189e+20
42.8751  2.58159e+20
42.9924  2.58011e+20
43.1097  2.58278e+20
43.227  2.58359e+20
43.3443  2.57574e+20
43.4616  2.55342e+20
43.5789  2.511e+20
43.6962  2.445e+20
43.8135  2.3539e+20
43.9308  2.23971e+20
44.0481  2.10793e+20
44.1654  1.96611e+20
44.2827  1.82369e+20
44.4  1.6902e+20
44.5173  1.57461e+20
44.6347  1.48408e+20
44.752  1.42272e+20
44.8693  1.39207e+20
44.9866  1.39096e+20
45.1039  1.41764e+20
45.2212  1.46911e+20
45.3385  1.54236e+20
45.4558  1.63461e+20
45.5731  1.74165e+20
45.6904  1.85958e+20
45.8077  1.98285e+20
45.925  2.1041e+20
46.0423  2.21533e+20
46.1596  2.30937e+20
46.2769  2.37998e+20
46.3942  2.42383e+20
46.5115  2.44244e+20
46.6288  2.44019e+20
46.7461  2.42523e+20
46.8634  2.40646e+20
46.9808  2.39327e+20
47.0981  2.39306e+20
47.2154  2.40851e+20
47.3327  2.44013e+20
47.45  2.48154e+20
47.5673  2.52724e+20
47.6846  2.56835e+20
47.8019  2.59779e+20
47.9192  2.61051e+20
48.0365  2.6039e+20
48.1538  2.5798e+20
48.2711  2.54124e+20
48.3884  2.49361e+20
48.5057  2.44243e+20
48.623  2.39239e+20
48.7403  2.34753e+20
48.8576  2.30896e+20
48.9749  2.27715e+20
49.0922  2.24949e+20
49.2095  2.2222e+20
49.3269  2.19214e+20
49.4442  2.15505e+20
49.5615  2.10871e+20
49.6788  2.0512e+20
49.7961  1.98279e+20
49.9134  1.90551e+20
50.0307  1.82336e+20
50.148  1.74042e+20
50.2653  1.66071e+20
50.3826  1.58829e+20
50.4999  1.52588e+20
50.6172  1.47494e+20
50.7345  1.43565e+20
50.8518  1.40818e+20
