#S 1 spectral density
#N 2
#UFWHM 22.5226
#L  abscissas [um]  spectral density
-58.5938  1.802e+20
-58.4764  1.83462e+20
-58.3591  1.85803e+20
-58.2418  1.86866e+20
-58.1245  1.86397e+20
-58.0072  1.84433e+20
-57.8899  1.812e+20
-57.7726  1.7712e+20
-57.6553  1.72604e+20
-57.538  1.68075e+20
-57.4207  1.63802e+20
-57.3034  1.59894e+20
-57.1861  1.56353e+20
-57.0688  1.53119e+20
-56.9515  1.50279e+20
-56.8342  1.47893e+20
-56.7169  1.46197e+20
-56.5996  1.45495e+20
-56.4823  1.45993e+20
-56.365  1.47885e+20
-56.2477  1.51197e+20
-56.1303  1.55663e+20
-56.013  1.61014e+20
-55.8957  1.66816e+20
-55.7784  1.72777e+20
-55.6611  1.78536e+20
-55.5438  1.83923e+20
-55.4265  1.88901e+20
-55.3092  1.93367e+20
-55.1919  1.97245e+20
-55.0746  2.00375e+20
-54.9573  2.02438e+20
-54.84  2.03317e+20
-54.7227  2.02622e+20
-54.6054  2.00474e+20
-54.4881  1.96862e+20
-54.3708  1.92075e+20
-54.2535  1.86708e+20
-54.1362  1.81392e+20
-54.0189  1.76571e+20
-53.9016  1.72847e+20
-53.7842  1.70572e+20
-53.6669  1.69907e+20
-53.5496  1.71001e+20
-53.4323  1.73817e+20
-53.315  1.78392e+20
-53.1977  1.84629e+20
-53.0804  1.92441e+20
-52.9631  2.01573e+20
-52.8458  2.11655e+20
-52.7285  2.22113e+20
-52.6112  2.32196e+20
-52.4939  2.41093e+20
-52.3766  2.4804e+20
-52.2593  2.52509e+20
-52.142  2.54139e+20
-52.0247  2.52956e+20
-51.9074  2.49359e+20
-51.7901  2.43916e+20
-51.6728  2.37391e+20
-51.5555  2.30662e+20
-51.4381  2.24175e+20
-51.3208  2.1854e+20
-51.2035  2.13967e+20
-51.0862  2.10683e+20
-50.9689  2.08575e+20
-50.8516  2.07572e+20
-50.7343  2.07645e+20
-50.617  2.08592e+20
-50.4997  2.10249e+20
-50.3824  2.12434e+20
-50.2651  2.14779e+20
-50.1478  2.17113e+20
-50.0305  2.19035e+20
-49.9132  2.20464e+20
-49.7959  2.21195e+20
-49.6786  2.2119e+20
-49.5613  2.20787e+20
-49.444  2.20401e+20
-49.3267  2.20385e+20
-49.2094  2.21246e+20
-49.092  2.23442e+20
-48.9747  2.2715e+20
-48.8574  2.32626e+20
-48.7401  2.39645e+20
-48.6228  2.48015e+20
-48.5055  2.5715e+20
-48.3882  2.66343e+20
-48.2709  2.74817e+20
-48.1536  2.81716e+20
-48.0363  2.86188e+20
-47.919  2.87548e+20
-47.8017  2.85326e+20
-47.6844  2.79423e+20
-47.5671  2.70057e+20
-47.4498  2.57775e+20
-47.3325  2.434e+20
-47.2152  2.28028e+20
-47.0979  2.12761e+20
-46.9806  1.98678e+20
-46.8633  1.86853e+20
-46.7459  1.77851e+20
-46.6286  1.72317e+20
-46.5113  1.70514e+20
-46.394  1.7263e+20
-46.2767  1.78551e+20
-46.1594  1.88008e+20
-46.0421  2.00658e+20
-45.9248  2.15777e+20
-45.8075  2.32509e+20
-45.6902  2.49802e+20
-45.5729  2.66401e+20
-45.4556  2.81124e+20
-45.3383  2.92885e+20
-45.221  3.00867e+20
-45.1037  3.04631e+20
-44.9864  3.04121e+20
-44.8691  2.99854e+20
-44.7518  2.92713e+20
-44.6345  2.83776e+20
-44.5172  2.74128e+20
-44.3998  2.64978e+20
-44.2825  2.57158e+20
-44.1652  2.51568e+20
-44.0479  2.48599e+20
-43.9306  2.48614e+20
-43.8133  2.51592e+20
-43.696  2.5738e+20
-43.5787  2.65669e+20
-43.4614  2.75922e+20
-43.3441  2.87363e+20
-43.2268  2.99142e+20
-43.1095  3.10247e+20
-42.9922  3.19772e+20
-42.8749  3.26801e+20
-42.7576  3.3077e+20
-42.6403  3.31351e+20
-42.523  3.28723e+20
-42.4057  3.23375e+20
-42.2884  3.16081e+20
-42.171  3.07954e+20
-42.0537  2.99932e+20
-41.9364  2.93055e+20
-41.8191  2.88059e+20
-41.7018  2.85482e+20
-41.5845  2.85534e+20
-41.4672  2.88104e+20
-41.3499  2.92934e+20
-41.2326  2.99403e+20
-41.1153  3.06885e+20
-40.998  3.14568e+20
-40.8807  3.21668e+20
-40.7634  3.27419e+20
-40.6461  3.31296e+20
-40.5288  3.32837e+20
-40.4115  3.31968e+20
-40.2942  3.28894e+20
-40.1769  3.2403e+20
-40.0596  3.18115e+20
-39.9423  3.12048e+20
-39.825  3.06571e+20
-39.7076  3.02648e+20
-39.5903  3.00763e+20
-39.473  3.01559e+20
-39.3557  3.05349e+20
-39.2384  3.12279e+20
-39.1211  3.22307e+20
-39.0038  3.35304e+20
-38.8865  3.50954e+20
-38.7692  3.68658e+20
-38.6519  3.876e+20
-38.5346  4.06816e+20
-38.4173  4.25158e+20
-38.3  4.41429e+20
-38.1827  4.54508e+20
-38.0654  4.63724e+20
-37.9481  4.68658e+20
-37.8308  4.69624e+20
-37.7135  4.67289e+20
-37.5962  4.62784e+20
-37.4789  4.57469e+20
-37.3615  4.5265e+20
-37.2442  4.49536e+20
-37.1269  4.4879e+20
-37.0096  4.50931e+20
-36.8923  4.55997e+20
-36.775  4.63804e+20
-36.6577  4.74087e+20
-36.5404  4.86388e+20
-36.4231  5.00452e+20
-36.3058  5.1574e+20
-36.1885  5.31811e+20
-36.0712  5.47986e+20
-35.9539  5.63537e+20
-35.8366  5.77428e+20
-35.7193  5.88642e+20
-35.602  5.96491e+20
-35.4847  6.00173e+20
-35.3674  5.99583e+20
-35.2501  5.95073e+20
-35.1328  5.8719e+20
-35.0154  5.77172e+20
-34.8981  5.65804e+20
-34.7808  5.54451e+20
-34.6635  5.44067e+20
-34.5462  5.35289e+20
-34.4289  5.28552e+20
-34.3116  5.24141e+20
-34.1943  5.22189e+20
-34.077  5.22605e+20
-33.9597  5.25303e+20
-33.8424  5.30255e+20
-33.7251  5.3733e+20
-33.6078  5.46167e+20
-33.4905  5.56355e+20
-33.3732  5.67508e+20
-33.2559  5.78972e+20
-33.1386  5.90379e+20
-33.0213  6.01174e+20
-32.904  6.1118e+20
-32.7867  6.20239e+20
-32.6693  6.28283e+20
-32.552  6.35503e+20
-32.4347  6.4158e+20
-32.3174  6.46738e+20
-32.2001  6.50658e+20
-32.0828  6.5318e+20
-31.9655  6.54129e+20
-31.8482  6.5325e+20
-31.7309  6.506e+20
-31.6136  6.46052e+20
-31.4963  6.39828e+20
-31.379  6.32133e+20
-31.2617  6.23304e+20
-31.1444  6.13615e+20
-31.0271  6.03281e+20
-30.9098  5.92901e+20
-30.7925  5.82643e+20
-30.6752  5.7314e+20
-30.5579  5.64985e+20
-30.4406  5.5868e+20
-30.3232  5.5496e+20
-30.2059  5.53948e+20
-30.0886  5.56175e+20
-29.9713  5.61764e+20
-29.854  5.7054e+20
-29.7367  5.82311e+20
-29.6194  5.96762e+20
-29.5021  6.13551e+20
-29.3848  6.32123e+20
-29.2675  6.51895e+20
-29.1502  6.72387e+20
-29.0329  6.92942e+20
-28.9156  7.12628e+20
-28.7983  7.30605e+20
-28.681  7.46111e+20
-28.5637  7.58322e+20
-28.4464  7.66831e+20
-28.3291  7.71355e+20
-28.2118  7.72221e+20
-28.0944  7.6988e+20
-27.9771  7.65138e+20
-27.8598  7.59037e+20
-27.7425  7.52191e+20
-27.6252  7.45738e+20
-27.5079  7.40058e+20
-27.3906  7.3565e+20
-27.2733  7.32674e+20
-27.156  7.31166e+20
-27.0387  7.31211e+20
-26.9214  7.32489e+20
-26.8041  7.34957e+20
-26.6868  7.38382e+20
-26.5695  7.42614e+20
-26.4522  7.47401e+20
-26.3349  7.52346e+20
-26.2176  7.57453e+20
-26.1003  7.62415e+20
-25.983  7.67349e+20
-25.8657  7.7249e+20
-25.7483  7.78088e+20
-25.631  7.84732e+20
-25.5137  7.92746e+20
-25.3964  8.0282e+20
-25.2791  8.15427e+20
-25.1618  8.30868e+20
-25.0445  8.49429e+20
-24.9272  8.71191e+20
-24.8099  8.96206e+20
-24.6926  9.24218e+20
-24.5753  9.54897e+20
-24.458  9.87798e+20
-24.3407  1.02238e+21
-24.2234  1.05778e+21
-24.1061  1.09324e+21
-23.9888  1.12792e+21
-23.8715  1.16107e+21
-23.7542  1.19212e+21
-23.6369  1.22059e+21
-23.5196  1.24648e+21
-23.4023  1.26987e+21
-23.2849  1.29096e+21
-23.1676  1.31019e+21
-23.0503  1.32785e+21
-22.933  1.34454e+21
-22.8157  1.36038e+21
-22.6984  1.37581e+21
-22.5811  1.39106e+21
-22.4638  1.40658e+21
-22.3465  1.42274e+21
-22.2292  1.43998e+21
-22.1119  1.45876e+21
-21.9946  1.47962e+21
-21.8773  1.50302e+21
-21.76  1.52928e+21
-21.6427  1.55869e+21
-21.5254  1.59158e+21
-21.4081  1.62805e+21
-21.2908  1.66829e+21
-21.1735  1.71251e+21
-21.0561  1.76079e+21
-20.9388  1.81325e+21
-20.8215  1.86993e+21
-20.7042  1.93035e+21
-20.5869  1.99422e+21
-20.4696  2.06062e+21
-20.3523  2.12868e+21
-20.235  2.19714e+21
-20.1177  2.26487e+21
-20.0004  2.33063e+21
-19.8831  2.3937e+21
-19.7658  2.45303e+21
-19.6485  2.50851e+21
-19.5312  2.55993e+21
-19.4139  2.60777e+21
-19.2966  2.6524e+21
-19.1793  2.69489e+21
-19.062  2.73626e+21
-18.9447  2.77765e+21
-18.8274  2.82044e+21
-18.71  2.86629e+21
-18.5927  2.91619e+21
-18.4754  2.97138e+21
-18.3581  3.03286e+21
-18.2408  3.10119e+21
-18.1235  3.17643e+21
-18.0062  3.25847e+21
-17.8889  3.34676e+21
-17.7716  3.44078e+21
-17.6543  3.53927e+21
-17.537  3.64169e+21
-17.4197  3.74692e+21
-17.3024  3.85446e+21
-17.1851  3.96387e+21
-17.0678  4.07477e+21
-16.9505  4.18742e+21
-16.8332  4.30208e+21
-16.7159  4.4191e+21
-16.5986  4.53885e+21
-16.4813  4.66171e+21
-16.364  4.78785e+21
-16.2466  4.91733e+21
-16.1293  5.05026e+21
-16.012  5.18521e+21
-15.8947  5.32151e+21
-15.7774  5.45735e+21
-15.6601  5.59097e+21
-15.5428  5.72018e+21
-15.4255  5.84288e+21
-15.3082  5.95711e+21
-15.1909  6.06228e+21
-15.0736  6.15698e+21
-14.9563  6.2421e+21
-14.839  6.31869e+21
-14.7217  6.38918e+21
-14.6044  6.45601e+21
-14.4871  6.52299e+21
-14.3698  6.59354e+21
-14.2525  6.67124e+21
-14.1352  6.75924e+21
-14.0178  6.86114e+21
-13.9005  6.97839e+21
-13.7832  7.1124e+21
-13.6659  7.26374e+21
-13.5486  7.4314e+21
-13.4313  7.61341e+21
-13.314  7.80678e+21
-13.1967  8.00767e+21
-13.0794  8.21216e+21
-12.9621  8.41475e+21
-12.8448  8.61169e+21
-12.7275  8.79842e+21
-12.6102  8.97224e+21
-12.4929  9.13122e+21
-12.3756  9.27459e+21
-12.2583  9.40356e+21
-12.141  9.52026e+21
-12.0237  9.62777e+21
-11.9064  9.72977e+21
-11.7891  9.83025e+21
-11.6718  9.93308e+21
-11.5544  1.00418e+22
-11.4371  1.016e+22
-11.3198  1.02884e+22
-11.2025  1.04284e+22
-11.0852  1.05794e+22
-10.9679  1.07402e+22
-10.8506  1.09082e+22
-10.7333  1.10801e+22
-10.616  1.12521e+22
-10.4987  1.14216e+22
-10.3814  1.15842e+22
-10.2641  1.17381e+22
-10.1468  1.18818e+22
-10.0295  1.20153e+22
-9.91217  1.21392e+22
-9.79487  1.22562e+22
-9.67756  1.23691e+22
-9.56026  1.24815e+22
-9.44295  1.2597e+22
-9.32565  1.27201e+22
-9.20834  1.28534e+22
-9.09104  1.29993e+22
-8.97373  1.31597e+22
-8.85643  1.33345e+22
-8.73913  1.35232e+22
-8.62182  1.37234e+22
-8.50452  1.39323e+22
-8.38721  1.41469e+22
-8.26991  1.4362e+22
-8.1526  1.45744e+22
-8.03529  1.47795e+22
-7.91799  1.49744e+22
-7.80069  1.51564e+22
-7.68338  1.5324e+22
-7.56608  1.54774e+22
-7.44877  1.56172e+22
-7.33146  1.57456e+22
-7.21416  1.5865e+22
-7.09685  1.59786e+22
-6.97955  1.60897e+22
-6.86224  1.62014e+22
-6.74494  1.63171e+22
-6.62763  1.64377e+22
-6.51033  1.65647e+22
-6.39302  1.66979e+22
-6.27572  1.68364e+22
-6.15842  1.69783e+22
-6.04111  1.71206e+22
-5.92381  1.72605e+22
-5.8065  1.73961e+22
-5.68919  1.75238e+22
-5.57189  1.76421e+22
-5.45458  1.77506e+22
-5.33728  1.78492e+22
-5.21997  1.79388e+22
-5.10267  1.80214e+22
-4.98536  1.80993e+22
-4.86806  1.8175e+22
-4.75075  1.82509e+22
-4.63345  1.83301e+22
-4.51614  1.84137e+22
-4.39884  1.85035e+22
-4.28154  1.86004e+22
-4.16423  1.87042e+22
-4.04692  1.88144e+22
-3.92962  1.89294e+22
-3.81231  1.90479e+22
-3.69501  1.91682e+22
-3.5777  1.92875e+22
-3.4604  1.94044e+22
-3.34309  1.95164e+22
-3.22579  1.96228e+22
-3.10849  1.97221e+22
-2.99118  1.98142e+22
-2.87387  1.98995e+22
-2.75657  1.99783e+22
-2.63926  2.0052e+22
-2.52196  2.01214e+22
-2.40465  2.01878e+22
-2.28735  2.02517e+22
-2.17005  2.03134e+22
-2.05274  2.03731e+22
-1.93544  2.04295e+22
-1.81813  2.04815e+22
-1.70083  2.05276e+22
-1.58352  2.0566e+22
-1.46622  2.05953e+22
-1.34891  2.06141e+22
-1.2316  2.0622e+22
-1.1143  2.06195e+22
-0.996995  2.06071e+22
-0.87969  2.05865e+22
-0.762385  2.05602e+22
-0.64508  2.05308e+22
-0.527775  2.0501e+22
-0.41047  2.04735e+22
-0.293165  2.04508e+22
-0.17586  2.0435e+22
-0.058555  2.04273e+22
0.05875  2.04284e+22
0.176055  2.04382e+22
0.29336  2.04562e+22
0.410665  2.04809e+22
0.52797  2.05103e+22
0.645275  2.05421e+22
0.76258  2.05733e+22
0.879885  2.06015e+22
0.99719  2.06237e+22
1.1145  2.06377e+22
1.2318  2.06418e+22
1.3491  2.06352e+22
1.46641  2.06176e+22
1.58371  2.05895e+22
1.70102  2.05522e+22
1.81832  2.05073e+22
1.93563  2.04562e+22
2.05294  2.04007e+22
2.17024  2.03421e+22
2.28754  2.02812e+22
2.40485  2.02183e+22
2.52216  2.0153e+22
2.63946  2.00845e+22
2.75677  2.00122e+22
2.87407  1.99345e+22
2.99137  1.98508e+22
3.10868  1.97601e+22
3.22599  1.96623e+22
3.34329  1.95579e+22
3.4606  1.94477e+22
3.5779  1.93328e+22
3.69521  1.92154e+22
3.81251  1.90974e+22
3.92982  1.89808e+22
4.04712  1.88675e+22
4.16443  1.87595e+22
4.28173  1.86576e+22
4.39903  1.85625e+22
4.51634  1.84742e+22
4.63364  1.83921e+22
4.75095  1.83143e+22
4.86825  1.82393e+22
4.98556  1.81646e+22
5.10286  1.80875e+22
5.22017  1.80057e+22
5.33748  1.79167e+22
5.45478  1.78188e+22
5.57209  1.77111e+22
5.68939  1.75931e+22
5.8067  1.74663e+22
5.924  1.73317e+22
6.0413  1.71925e+22
6.15861  1.7051e+22
6.27591  1.69102e+22
6.39322  1.67729e+22
6.51052  1.66408e+22
6.62783  1.65147e+22
6.74514  1.63948e+22
6.86244  1.62803e+22
6.97975  1.6169e+22
7.09705  1.60585e+22
7.21436  1.59454e+22
7.33166  1.58262e+22
7.44897  1.56983e+22
7.56627  1.55586e+22
7.68358  1.54054e+22
7.80088  1.52377e+22
7.91819  1.50557e+22
8.03549  1.48612e+22
8.1528  1.46565e+22
8.2701  1.44444e+22
8.38741  1.42296e+22
8.50471  1.40159e+22
8.62202  1.38073e+22
8.73932  1.36075e+22
8.85662  1.34197e+22
8.97393  1.32455e+22
9.09123  1.30856e+22
9.20854  1.29399e+22
9.32584  1.28072e+22
9.44315  1.26842e+22
9.56045  1.25683e+22
9.67776  1.24559e+22
9.79506  1.23425e+22
9.91237  1.22252e+22
10.0297  1.21006e+22
10.147  1.19667e+22
10.2643  1.18227e+22
10.3816  1.16682e+22
10.4989  1.15054e+22
10.6162  1.13359e+22
10.7335  1.11637e+22
10.8508  1.09919e+22
10.9681  1.08242e+22
11.0854  1.0664e+22
11.2027  1.05135e+22
11.32  1.03737e+22
11.4373  1.02455e+22
11.5546  1.0128e+22
11.6719  1.00191e+22
11.7893  9.91624e+21
11.9066  9.81562e+21
12.0239  9.7131e+21
12.1412  9.60502e+21
12.2585  9.48751e+21
12.3758  9.35746e+21
12.4931  9.21275e+21
12.6104  9.05247e+21
12.7277  8.87768e+21
12.845  8.68995e+21
12.9623  8.49183e+21
13.0796  8.28812e+21
13.1969  8.08313e+21
13.3142  7.88137e+21
13.4315  7.68741e+21
13.5488  7.50525e+21
13.6661  7.33743e+21
13.7834  7.18594e+21
13.9007  7.0517e+21
14.018  6.93459e+21
14.1354  6.83266e+21
14.2527  6.74413e+21
14.37  6.6663e+21
14.4873  6.59531e+21
14.6046  6.52792e+21
14.7219  6.46029e+21
14.8392  6.38917e+21
14.9565  6.31181e+21
15.0738  6.22556e+21
15.1911  6.12983e+21
15.3084  6.02371e+21
15.4257  5.90821e+21
15.543  5.78437e+21
15.6603  5.65402e+21
15.7776  5.51954e+21
15.8949  5.38268e+21
16.0122  5.24531e+21
16.1295  5.1092e+21
16.2468  4.97556e+21
16.3641  4.84497e+21
16.4815  4.71789e+21
16.5988  4.59417e+21
16.7161  4.47338e+21
16.8334  4.35543e+21
16.9507  4.23985e+21
17.068  4.12614e+21
17.1853  4.01409e+21
17.3026  3.90364e+21
17.4199  3.79526e+21
17.5372  3.68919e+21
17.6545  3.58582e+21
17.7718  3.48634e+21
17.8891  3.39168e+21
18.0064  3.30252e+21
18.1237  3.21972e+21
18.241  3.14395e+21
18.3583  3.07504e+21
18.4756  3.01296e+21
18.5929  2.9571e+21
18.7102  2.90671e+21
18.8275  2.86029e+21
18.9449  2.81668e+21
19.0622  2.77465e+21
19.1795  2.73253e+21
19.2968  2.68933e+21
19.4141  2.64383e+21
19.5314  2.59519e+21
19.6487  2.54289e+21
19.766  2.48644e+21
19.8833  2.42613e+21
20.0006  2.36214e+21
20.1179  2.29537e+21
20.2352  2.22669e+21
20.3525  2.15727e+21
20.4698  2.08843e+21
20.5871  2.02116e+21
20.7044  1.95652e+21
20.8217  1.89528e+21
20.939  1.83795e+21
21.0563  1.78483e+21
21.1736  1.73593e+21
21.291  1.69125e+21
21.4083  1.65038e+21
21.5256  1.61339e+21
21.6429  1.58011e+21
21.7602  1.5502e+21
21.8775  1.52348e+21
21.9948  1.49963e+21
22.1121  1.47838e+21
22.2294  1.45917e+21
22.3467  1.44143e+21
22.464  1.42478e+21
22.5813  1.40879e+21
22.6986  1.39297e+21
22.8159  1.37697e+21
22.9332  1.36064e+21
23.0505  1.34341e+21
23.1678  1.32513e+21
23.2851  1.30527e+21
23.4024  1.28355e+21
23.5198  1.25955e+21
23.6371  1.23297e+21
23.7544  1.20389e+21
23.8717  1.17219e+21
23.989  1.1385e+21
24.1063  1.10327e+21
24.2236  1.06731e+21
24.3409  1.03144e+21
24.4582  9.96452e+20
24.5755  9.63159e+20
24.6928  9.32061e+20
24.8101  9.0371e+20
24.9274  8.78411e+20
25.0447  8.56354e+20
25.162  8.37547e+20
25.2793  8.21803e+20
25.3966  8.09042e+20
25.5139  7.98716e+20
25.6312  7.90413e+20
25.7485  7.83664e+20
25.8658  7.77793e+20
25.9832  7.72571e+20
26.1005  7.67339e+20
26.2178  7.62119e+20
26.3351  7.56914e+20
26.4524  7.5173e+20
26.5697  7.46825e+20
26.687  7.42422e+20
26.8043  7.38834e+20
26.9216  7.36201e+20
27.0389  7.34726e+20
27.1562  7.34554e+20
27.2735  7.35905e+20
27.3908  7.38745e+20
27.5081  7.42983e+20
27.6254  7.48537e+20
27.7427  7.54884e+20
27.86  7.61502e+20
27.9773  7.67462e+20
28.0946  7.71943e+20
28.212  7.74095e+20
28.3293  7.73004e+20
28.4466  7.68297e+20
28.5639  7.59587e+20
28.6812  7.47214e+20
28.7985  7.31608e+20
28.9158  7.1353e+20
29.0331  6.93749e+20
29.1504  6.732e+20
29.2677  6.52694e+20
29.385  6.32843e+20
29.5023  6.143e+20
29.6196  5.97578e+20
29.7369  5.8315e+20
29.8542  5.7145e+20
29.9715  5.62679e+20
30.0888  5.57248e+20
30.2061  5.55042e+20
30.3234  5.56059e+20
30.4407  5.60012e+20
30.558  5.66323e+20
30.6754  5.7465e+20
30.7927  5.84115e+20
30.91  5.94371e+20
31.0273  6.04895e+20
31.1446  6.15203e+20
31.2619  6.24958e+20
31.3792  6.33794e+20
31.4965  6.41479e+20
31.6138  6.47677e+20
31.7311  6.52145e+20
31.8484  6.54781e+20
31.9657  6.55604e+20
32.083  6.54637e+20
32.2003  6.52055e+20
32.3176  6.48085e+20
32.4349  6.42943e+20
32.5522  6.36768e+20
32.6695  6.29554e+20
32.7868  6.21413e+20
32.9042  6.12348e+20
33.0215  6.02306e+20
33.1388  5.91518e+20
33.2561  5.80143e+20
33.3734  5.68705e+20
33.4907  5.57647e+20
33.608  5.4755e+20
33.7253  5.38814e+20
33.8426  5.31883e+20
33.9599  5.27072e+20
34.0772  5.24459e+20
34.1945  5.24191e+20
34.3118  5.26321e+20
34.4291  5.30838e+20
34.5464  5.37732e+20
34.6637  5.46597e+20
34.781  5.57145e+20
34.8983  5.685e+20
35.0156  5.7984e+20
35.1329  5.89974e+20
35.2503  5.97749e+20
35.3676  6.0223e+20
35.4849  6.02633e+20
35.6022  5.98807e+20
35.7195  5.90941e+20
35.8368  5.7958e+20
35.9541  5.65657e+20
36.0714  5.50098e+20
36.1887  5.33883e+20
36.306  5.1785e+20
36.4233  5.02567e+20
36.5406  4.88577e+20
36.6579  4.76325e+20
36.7752  4.66153e+20
36.8925  4.58428e+20
37.0098  4.53452e+20
37.1271  4.51441e+20
37.2444  4.52263e+20
37.3617  4.5547e+20
37.479  4.60303e+20
37.5964  4.65608e+20
37.7137  4.70045e+20
37.831  4.7227e+20
37.9483  4.71171e+20
38.0656  4.66043e+20
38.1829  4.56667e+20
38.3002  4.43421e+20
38.4175  4.27018e+20
38.5348  4.08573e+20
38.6521  3.89313e+20
38.7694  3.70333e+20
38.8867  3.52655e+20
39.004  3.37081e+20
39.1213  3.24102e+20
39.2386  3.14177e+20
39.3559  3.07323e+20
39.4732  3.03638e+20
39.5905  3.02892e+20
39.7078  3.04813e+20
39.8251  3.08809e+20
39.9425  3.14266e+20
40.0598  3.2034e+20
40.1771  3.26177e+20
40.2944  3.30928e+20
40.4117  3.33926e+20
40.529  3.34641e+20
40.6463  3.3295e+20
40.7636  3.29017e+20
40.8809  3.23136e+20
40.9982  3.15975e+20
41.1155  3.08265e+20
41.2328  3.00805e+20
41.3501  2.94365e+20
41.4674  2.896e+20
41.5847  2.87113e+20
41.702  2.87165e+20
41.8193  2.89857e+20
41.9366  2.94926e+20
42.0539  3.01871e+20
42.1712  3.09916e+20
42.2885  3.18044e+20
42.4059  3.25244e+20
42.5232  3.30475e+20
42.6405  3.32962e+20
42.7578  3.32204e+20
42.8751  3.28069e+20
42.9924  3.20842e+20
43.1097  3.11186e+20
43.227  2.99929e+20
43.3443  2.88071e+20
43.4616  2.766e+20
43.5789  2.6633e+20
43.6962  2.58085e+20
43.8135  2.52272e+20
43.9308  2.49411e+20
44.0481  2.49498e+20
44.1654  2.52523e+20
44.2827  2.58224e+20
44.4  2.66079e+20
44.5173  2.75239e+20
44.6347  2.84873e+20
44.752  2.93818e+20
44.8693  3.00885e+20
44.9866  3.04975e+20
45.1039  3.05342e+20
45.2212  3.01405e+20
45.3385  2.93231e+20
45.4558  2.81376e+20
45.5731  2.66517e+20
45.6904  2.49795e+20
45.8077  2.32505e+20
45.925  2.15781e+20
46.0423  2.0069e+20
46.1596  1.88098e+20
46.2769  1.78705e+20
46.3942  1.72914e+20
46.5115  1.7092e+20
46.6288  1.7283e+20
46.7461  1.7849e+20
46.8634  1.87565e+20
46.9808  1.9955e+20
47.0981  2.13641e+20
47.2154  2.2893e+20
47.3327  2.44257e+20
47.45  2.58597e+20
47.5673  2.70802e+20
47.6846  2.79983e+20
47.8019  2.85761e+20
47.9192  2.8783e+20
48.0365  2.86334e+20
48.1538  2.8179e+20
48.2711  2.7478e+20
48.3884  2.66275e+20
48.5057  2.56996e+20
48.623  2.47935e+20
48.7403  2.39649e+20
48.8576  2.32621e+20
48.9749  2.27244e+20
49.0922  2.23564e+20
49.2095  2.21403e+20
49.3269  2.2055e+20
49.4442  2.2064e+20
49.5615  2.2106e+20
49.6788  2.21407e+20
49.7961  2.21366e+20
49.9134  2.2063e+20
50.0307  2.19186e+20
50.148  2.17254e+20
50.2653  2.14952e+20
50.3826  2.12557e+20
50.4999  2.10446e+20
50.6172  2.0883e+20
50.7345  2.07918e+20
50.8518  2.07884e+20
