#S 1 spectral density
#N 2
#UFWHM 24.1648
#L  abscissas [um]  spectral density
-58.5938  6.0573e+19
-58.4764  6.47394e+19
-58.3591  7.0865e+19
-58.2418  7.87149e+19
-58.1245  8.7948e+19
-58.0072  9.81995e+19
-57.8899  1.09078e+20
-57.7726  1.20141e+20
-57.6553  1.30839e+20
-57.538  1.40577e+20
-57.4207  1.48656e+20
-57.3034  1.54411e+20
-57.1861  1.5735e+20
-57.0688  1.57259e+20
-56.9515  1.54286e+20
-56.8342  1.48915e+20
-56.7169  1.41977e+20
-56.5996  1.34294e+20
-56.4823  1.26745e+20
-56.365  1.19875e+20
-56.2477  1.13892e+20
-56.1303  1.08654e+20
-56.013  1.03886e+20
-55.8957  9.91127e+19
-55.7784  9.41025e+19
-55.6611  8.87461e+19
-55.5438  8.32695e+19
-55.4265  7.82129e+19
-55.3092  7.4064e+19
-55.1919  7.12848e+19
-55.0746  7.01389e+19
-54.9573  7.05335e+19
-54.84  7.2164e+19
-54.7227  7.44196e+19
-54.6054  7.67611e+19
-54.4881  7.87063e+19
-54.3708  8.00551e+19
-54.2535  8.08071e+19
-54.1362  8.12119e+19
-54.0189  8.17293e+19
-53.9016  8.2807e+19
-53.7842  8.48307e+19
-53.6669  8.81523e+19
-53.5496  9.28842e+19
-53.4323  9.91367e+19
-53.315  1.06846e+20
-53.1977  1.15875e+20
-53.0804  1.2609e+20
-52.9631  1.3714e+20
-52.8458  1.48561e+20
-52.7285  1.59816e+20
-52.6112  1.70186e+20
-52.4939  1.78979e+20
-52.3766  1.8554e+20
-52.2593  1.89459e+20
-52.142  1.90674e+20
-52.0247  1.89326e+20
-51.9074  1.85976e+20
-51.7901  1.81232e+20
-51.6728  1.75876e+20
-51.5555  1.70458e+20
-51.4381  1.65458e+20
-51.3208  1.61016e+20
-51.2035  1.57043e+20
-51.0862  1.53381e+20
-50.9689  1.49791e+20
-50.8516  1.46132e+20
-50.7343  1.42385e+20
-50.617  1.38689e+20
-50.4997  1.35342e+20
-50.3824  1.32673e+20
-50.2651  1.31074e+20
-50.1478  1.30756e+20
-50.0305  1.31984e+20
-49.9132  1.34767e+20
-49.7959  1.3913e+20
-49.6786  1.45022e+20
-49.5613  1.52405e+20
-49.444  1.61235e+20
-49.3267  1.71523e+20
-49.2094  1.8333e+20
-49.092  1.96607e+20
-48.9747  2.11343e+20
-48.8574  2.2734e+20
-48.7401  2.44289e+20
-48.6228  2.61621e+20
-48.5055  2.78604e+20
-48.3882  2.94241e+20
-48.2709  3.07468e+20
-48.1536  3.17188e+20
-48.0363  3.22369e+20
-47.919  3.22379e+20
-47.8017  3.16916e+20
-47.6844  3.06297e+20
-47.5671  2.91298e+20
-47.4498  2.73189e+20
-47.3325  2.53608e+20
-47.2152  2.34178e+20
-47.0979  2.16528e+20
-46.9806  2.01753e+20
-46.8633  1.90577e+20
-46.7459  1.83273e+20
-46.6286  1.79556e+20
-46.5113  1.78931e+20
-46.394  1.80619e+20
-46.2767  1.83926e+20
-46.1594  1.88167e+20
-46.0421  1.92774e+20
-45.9248  1.9727e+20
-45.8075  2.01261e+20
-45.6902  2.04309e+20
-45.5729  2.06006e+20
-45.4556  2.0592e+20
-45.3383  2.03805e+20
-45.221  1.99512e+20
-45.1037  1.93298e+20
-44.9864  1.85591e+20
-44.8691  1.77264e+20
-44.7518  1.693e+20
-44.6345  1.62826e+20
-44.5172  1.58831e+20
-44.3998  1.58087e+20
-44.2825  1.61092e+20
-44.1652  1.67963e+20
-44.0479  1.78445e+20
-43.9306  1.92089e+20
-43.8133  2.08203e+20
-43.696  2.25926e+20
-43.5787  2.44439e+20
-43.4614  2.62929e+20
-43.3441  2.8055e+20
-43.2268  2.96619e+20
-43.1095  3.10482e+20
-42.9922  3.21784e+20
-42.8749  3.30389e+20
-42.7576  3.36359e+20
-42.6403  3.40205e+20
-42.523  3.42435e+20
-42.4057  3.43893e+20
-42.2884  3.45295e+20
-42.171  3.47126e+20
-42.0537  3.49739e+20
-41.9364  3.53017e+20
-41.8191  3.56688e+20
-41.7018  3.60175e+20
-41.5845  3.629e+20
-41.4672  3.64464e+20
-41.3499  3.64664e+20
-41.2326  3.63701e+20
-41.1153  3.62197e+20
-40.998  3.61015e+20
-40.8807  3.61137e+20
-40.7634  3.63624e+20
-40.6461  3.69253e+20
-40.5288  3.78516e+20
-40.4115  3.91381e+20
-40.2942  4.07219e+20
-40.1769  4.25088e+20
-40.0596  4.43595e+20
-39.9423  4.61096e+20
-39.825  4.75786e+20
-39.7076  4.86074e+20
-39.5903  4.90741e+20
-39.473  4.89194e+20
-39.3557  4.81208e+20
-39.2384  4.67545e+20
-39.1211  4.49577e+20
-39.0038  4.28931e+20
-38.8865  4.07611e+20
-38.7692  3.87563e+20
-38.6519  3.70102e+20
-38.5346  3.56231e+20
-38.4173  3.45942e+20
-38.3  3.38917e+20
-38.1827  3.34041e+20
-38.0654  3.30142e+20
-37.9481  3.2605e+20
-37.8308  3.20779e+20
-37.7135  3.13815e+20
-37.5962  3.05132e+20
-37.4789  2.94993e+20
-37.3615  2.8386e+20
-37.2442  2.72343e+20
-37.1269  2.61087e+20
-37.0096  2.50744e+20
-36.8923  2.41868e+20
-36.775  2.35182e+20
-36.6577  2.31387e+20
-36.5404  2.31442e+20
-36.4231  2.36189e+20
-36.3058  2.46193e+20
-36.1885  2.61838e+20
-36.0712  2.82907e+20
-35.9539  3.08598e+20
-35.8366  3.37582e+20
-35.7193  3.68021e+20
-35.602  3.98056e+20
-35.4847  4.25984e+20
-35.3674  4.50587e+20
-35.2501  4.71252e+20
-35.1328  4.88012e+20
-35.0154  5.0159e+20
-34.8981  5.12881e+20
-34.7808  5.23208e+20
-34.6635  5.33647e+20
-34.5462  5.44958e+20
-34.4289  5.57754e+20
-34.3116  5.7202e+20
-34.1943  5.87413e+20
-34.077  6.0313e+20
-33.9597  6.18151e+20
-33.8424  6.312e+20
-33.7251  6.40955e+20
-33.6078  6.45918e+20
-33.4905  6.44898e+20
-33.3732  6.37028e+20
-33.2559  6.21986e+20
-33.1386  6.00153e+20
-33.0213  5.7269e+20
-32.904  5.41562e+20
-32.7867  5.0918e+20
-32.6693  4.78203e+20
-32.552  4.51291e+20
-32.4347  4.30382e+20
-32.3174  4.17068e+20
-32.2001  4.11819e+20
-32.0828  4.14418e+20
-31.9655  4.2393e+20
-31.8482  4.39049e+20
-31.7309  4.58266e+20
-31.6136  4.80158e+20
-31.4963  5.03572e+20
-31.379  5.27729e+20
-31.2617  5.52295e+20
-31.1444  5.77119e+20
-31.0271  6.022e+20
-30.9098  6.28029e+20
-30.7925  6.54402e+20
-30.6752  6.81374e+20
-30.5579  7.08751e+20
-30.4406  7.35914e+20
-30.3232  7.62165e+20
-30.2059  7.86215e+20
-30.0886  8.06927e+20
-29.9713  8.23348e+20
-29.854  8.34321e+20
-29.7367  8.39201e+20
-29.6194  8.38089e+20
-29.5021  8.3145e+20
-29.3848  8.20283e+20
-29.2675  8.06192e+20
-29.1502  7.90866e+20
-29.0329  7.76118e+20
-28.9156  7.63436e+20
-28.7983  7.539e+20
-28.681  7.48231e+20
-28.5637  7.46607e+20
-28.4464  7.48845e+20
-28.3291  7.54561e+20
-28.2118  7.63121e+20
-28.0944  7.74056e+20
-27.9771  7.8696e+20
-27.8598  8.01539e+20
-27.7425  8.17652e+20
-27.6252  8.35186e+20
-27.5079  8.54378e+20
-27.3906  8.75398e+20
-27.2733  8.98732e+20
-27.156  9.24584e+20
-27.0387  9.53507e+20
-26.9214  9.85794e+20
-26.8041  1.02162e+21
-26.6868  1.0608e+21
-26.5695  1.10283e+21
-26.4522  1.14677e+21
-26.3349  1.19151e+21
-26.2176  1.23561e+21
-26.1003  1.27739e+21
-25.983  1.31546e+21
-25.8657  1.34845e+21
-25.7483  1.37537e+21
-25.631  1.3958e+21
-25.5137  1.40953e+21
-25.3964  1.41704e+21
-25.2791  1.41907e+21
-25.1618  1.41689e+21
-25.0445  1.41182e+21
-24.9272  1.40558e+21
-24.8099  1.39971e+21
-24.6926  1.39583e+21
-24.5753  1.39505e+21
-24.458  1.39823e+21
-24.3407  1.40559e+21
-24.2234  1.41728e+21
-24.1061  1.43275e+21
-23.9888  1.45157e+21
-23.8715  1.47338e+21
-23.7542  1.49828e+21
-23.6369  1.52658e+21
-23.5196  1.55935e+21
-23.4023  1.59791e+21
-23.2849  1.64383e+21
-23.1676  1.69857e+21
-23.0503  1.76313e+21
-22.933  1.83791e+21
-22.8157  1.92235e+21
-22.6984  2.01505e+21
-22.5811  2.11362e+21
-22.4638  2.21513e+21
-22.3465  2.31641e+21
-22.2292  2.41408e+21
-22.1119  2.50519e+21
-21.9946  2.5876e+21
-21.8773  2.65986e+21
-21.76  2.72169e+21
-21.6427  2.77374e+21
-21.5254  2.81758e+21
-21.4081  2.85586e+21
-21.2908  2.89138e+21
-21.1735  2.92735e+21
-21.0561  2.96662e+21
-20.9388  3.0114e+21
-20.8215  3.06284e+21
-20.7042  3.12133e+21
-20.5869  3.18556e+21
-20.4696  3.25382e+21
-20.3523  3.32335e+21
-20.235  3.39125e+21
-20.1177  3.45441e+21
-20.0004  3.51091e+21
-19.8831  3.55931e+21
-19.7658  3.59968e+21
-19.6485  3.63283e+21
-19.5312  3.66126e+21
-19.4139  3.68758e+21
-19.2966  3.71544e+21
-19.1793  3.74827e+21
-19.062  3.78931e+21
-18.9447  3.8408e+21
-18.8274  3.90414e+21
-18.71  3.98004e+21
-18.5927  4.06749e+21
-18.4754  4.1647e+21
-18.3581  4.26896e+21
-18.2408  4.37714e+21
-18.1235  4.48564e+21
-18.0062  4.59118e+21
-17.8889  4.69074e+21
-17.7716  4.78274e+21
-17.6543  4.86623e+21
-17.537  4.94167e+21
-17.4197  5.01078e+21
-17.3024  5.07653e+21
-17.1851  5.14253e+21
-17.0678  5.21265e+21
-16.9505  5.29101e+21
-16.8332  5.38118e+21
-16.7159  5.48566e+21
-16.5986  5.60566e+21
-16.4813  5.74129e+21
-16.364  5.89121e+21
-16.2466  6.053e+21
-16.1293  6.22268e+21
-16.012  6.39622e+21
-15.8947  6.56906e+21
-15.7774  6.73722e+21
-15.6601  6.89734e+21
-15.5428  7.04705e+21
-15.4255  7.18504e+21
-15.3082  7.3118e+21
-15.1909  7.42938e+21
-15.0736  7.53982e+21
-14.9563  7.6466e+21
-14.839  7.7531e+21
-14.7217  7.86163e+21
-14.6044  7.97377e+21
-14.4871  8.09014e+21
-14.3698  8.20933e+21
-14.2525  8.32851e+21
-14.1352  8.4437e+21
-14.0178  8.55151e+21
-13.9005  8.64722e+21
-13.7832  8.72756e+21
-13.6659  8.79046e+21
-13.5486  8.8353e+21
-13.4313  8.86312e+21
-13.314  8.87654e+21
-13.1967  8.87948e+21
-13.0794  8.87768e+21
-12.9621  8.87571e+21
-12.8448  8.87999e+21
-12.7275  8.89478e+21
-12.6102  8.92469e+21
-12.4929  8.9725e+21
-12.3756  9.03914e+21
-12.2583  9.12471e+21
-12.141  9.22735e+21
-12.0237  9.34344e+21
-11.9064  9.46834e+21
-11.7891  9.59691e+21
-11.6718  9.72366e+21
-11.5544  9.84398e+21
-11.4371  9.9544e+21
-11.3198  1.0052e+22
-11.2025  1.01368e+22
-11.0852  1.02105e+22
-10.9679  1.02765e+22
-10.8506  1.034e+22
-10.7333  1.04072e+22
-10.616  1.04851e+22
-10.4987  1.05815e+22
-10.3814  1.07019e+22
-10.2641  1.08522e+22
-10.1468  1.10359e+22
-10.0295  1.12545e+22
-9.91217  1.15063e+22
-9.79487  1.17884e+22
-9.67756  1.2094e+22
-9.56026  1.24152e+22
-9.44295  1.27417e+22
-9.32565  1.30641e+22
-9.20834  1.33715e+22
-9.09104  1.36544e+22
-8.97373  1.39061e+22
-8.85643  1.41213e+22
-8.73913  1.42975e+22
-8.62182  1.44352e+22
-8.50452  1.45374e+22
-8.38721  1.46096e+22
-8.26991  1.46571e+22
-8.1526  1.4688e+22
-8.03529  1.47083e+22
-7.91799  1.47245e+22
-7.80069  1.47415e+22
-7.68338  1.47623e+22
-7.56608  1.47894e+22
-7.44877  1.48227e+22
-7.33146  1.48614e+22
-7.21416  1.49033e+22
-7.09685  1.49461e+22
-6.97955  1.49873e+22
-6.86224  1.5025e+22
-6.74494  1.5059e+22
-6.62763  1.50879e+22
-6.51033  1.51135e+22
-6.39302  1.51377e+22
-6.27572  1.51633e+22
-6.15842  1.51938e+22
-6.04111  1.52329e+22
-5.92381  1.52836e+22
-5.8065  1.53505e+22
-5.68919  1.54348e+22
-5.57189  1.55388e+22
-5.45458  1.56627e+22
-5.33728  1.58065e+22
-5.21997  1.59676e+22
-5.10267  1.61436e+22
-4.98536  1.63301e+22
-4.86806  1.65226e+22
-4.75075  1.6716e+22
-4.63345  1.69057e+22
-4.51614  1.70869e+22
-4.39884  1.7256e+22
-4.28154  1.7411e+22
-4.16423  1.75501e+22
-4.04692  1.76733e+22
-3.92962  1.77815e+22
-3.81231  1.78762e+22
-3.69501  1.79599e+22
-3.5777  1.80339e+22
-3.4604  1.81001e+22
-3.34309  1.81598e+22
-3.22579  1.82128e+22
-3.10849  1.82591e+22
-2.99118  1.82971e+22
-2.87387  1.83259e+22
-2.75657  1.83436e+22
-2.63926  1.83485e+22
-2.52196  1.83396e+22
-2.40465  1.83159e+22
-2.28735  1.82774e+22
-2.17005  1.82246e+22
-2.05274  1.81601e+22
-1.93544  1.80843e+22
-1.81813  1.80009e+22
-1.70083  1.79124e+22
-1.58352  1.78217e+22
-1.46622  1.77316e+22
-1.34891  1.7645e+22
-1.2316  1.75635e+22
-1.1143  1.74897e+22
-0.996995  1.74242e+22
-0.87969  1.73684e+22
-0.762385  1.73214e+22
-0.64508  1.72844e+22
-0.527775  1.72558e+22
-0.41047  1.72346e+22
-0.293165  1.72199e+22
-0.17586  1.72104e+22
-0.058555  1.72059e+22
0.05875  1.72054e+22
0.176055  1.72088e+22
0.29336  1.72168e+22
0.410665  1.72306e+22
0.52797  1.72506e+22
0.645275  1.72783e+22
0.76258  1.73145e+22
0.879885  1.73603e+22
0.99719  1.74153e+22
1.1145  1.74798e+22
1.2318  1.75528e+22
1.3491  1.76334e+22
1.46641  1.77193e+22
1.58371  1.78085e+22
1.70102  1.78983e+22
1.81832  1.79859e+22
1.93563  1.80681e+22
2.05294  1.81426e+22
2.17024  1.82067e+22
2.28754  1.82582e+22
2.40485  1.82955e+22
2.52216  1.83179e+22
2.63946  1.83258e+22
2.75677  1.83192e+22
2.87407  1.83002e+22
2.99137  1.82697e+22
3.10868  1.82299e+22
3.22599  1.81819e+22
3.34329  1.81272e+22
3.4606  1.8066e+22
3.5779  1.79977e+22
3.69521  1.79214e+22
3.81251  1.78361e+22
3.92982  1.77388e+22
4.04712  1.76284e+22
4.16443  1.75035e+22
4.28173  1.73624e+22
4.39903  1.72057e+22
4.51634  1.70349e+22
4.63364  1.68527e+22
4.75095  1.6662e+22
4.86825  1.64677e+22
4.98556  1.62747e+22
5.10286  1.60879e+22
5.22017  1.5912e+22
5.33748  1.57509e+22
5.45478  1.56074e+22
5.57209  1.54838e+22
5.68939  1.53799e+22
5.8067  1.52955e+22
5.924  1.5229e+22
6.0413  1.51778e+22
6.15861  1.51385e+22
6.27591  1.51075e+22
6.39322  1.50814e+22
6.51052  1.50566e+22
6.62783  1.50299e+22
6.74514  1.5e+22
6.86244  1.49657e+22
6.97975  1.49269e+22
7.09705  1.4885e+22
7.21436  1.48416e+22
7.33166  1.47991e+22
7.44897  1.476e+22
7.56627  1.47263e+22
7.68358  1.46988e+22
7.80088  1.46772e+22
7.91819  1.46594e+22
8.03549  1.46426e+22
8.1528  1.46217e+22
8.2701  1.45897e+22
8.38741  1.45406e+22
8.50471  1.44672e+22
8.62202  1.43633e+22
8.73932  1.42236e+22
8.85662  1.40459e+22
8.97393  1.38294e+22
9.09123  1.35763e+22
9.20854  1.32922e+22
9.32584  1.29845e+22
9.44315  1.26617e+22
9.56045  1.23349e+22
9.67776  1.20142e+22
9.79506  1.1709e+22
9.91237  1.14279e+22
10.0297  1.11769e+22
10.147  1.09595e+22
10.2643  1.0777e+22
10.3816  1.06274e+22
10.4989  1.05077e+22
10.6162  1.04121e+22
10.7335  1.03344e+22
10.8508  1.02672e+22
10.9681  1.02036e+22
11.0854  1.01377e+22
11.2027  1.00639e+22
11.32  9.97865e+21
11.4373  9.88059e+21
11.5546  9.77015e+21
11.6719  9.6495e+21
11.7893  9.52281e+21
11.9066  9.39459e+21
12.0239  9.26982e+21
12.1412  9.15447e+21
12.2585  9.0526e+21
12.3758  8.96773e+21
12.4931  8.90176e+21
12.6104  8.85472e+21
12.7277  8.82558e+21
12.845  8.81156e+21
12.9623  8.80775e+21
13.0796  8.81005e+21
13.1969  8.81222e+21
13.3142  8.80916e+21
13.4315  8.79554e+21
13.5488  8.76752e+21
13.6661  8.7224e+21
13.7834  8.65897e+21
13.9007  8.57809e+21
14.018  8.48215e+21
14.1354  8.37393e+21
14.2527  8.25817e+21
14.37  8.13899e+21
14.4873  8.01965e+21
14.6046  7.90329e+21
14.7219  7.79087e+21
14.8392  7.68251e+21
14.9565  7.57629e+21
15.0738  7.46939e+21
15.1911  7.35918e+21
15.3084  7.24187e+21
15.4257  7.11514e+21
15.543  6.97741e+21
15.6603  6.82829e+21
15.7776  6.66902e+21
15.8949  6.50157e+21
16.0122  6.32963e+21
16.1295  6.15709e+21
16.2468  5.98844e+21
16.3641  5.82798e+21
16.4815  5.67931e+21
16.5988  5.54491e+21
16.7161  5.42578e+21
16.8334  5.32261e+21
16.9507  5.23338e+21
17.068  5.15583e+21
17.1853  5.08632e+21
17.3026  5.021e+21
17.4199  4.95579e+21
17.5372  4.88719e+21
17.6545  4.81203e+21
17.7718  4.72924e+21
17.8891  4.63777e+21
18.0064  4.53882e+21
18.1237  4.43404e+21
18.241  4.32631e+21
18.3583  4.21909e+21
18.4756  4.11566e+21
18.5929  4.01936e+21
18.7102  3.93285e+21
18.8275  3.85785e+21
18.9449  3.79515e+21
19.0622  3.74446e+21
19.1795  3.70403e+21
19.2968  3.67156e+21
19.4141  3.64397e+21
19.5314  3.61789e+21
19.6487  3.58968e+21
19.766  3.55654e+21
19.8833  3.51644e+21
20.0006  3.46803e+21
20.1179  3.41173e+21
20.2352  3.34881e+21
20.3525  3.2814e+21
20.4698  3.2125e+21
20.5871  3.1449e+21
20.7044  3.08132e+21
20.8217  3.02365e+21
20.939  2.97291e+21
21.0563  2.92886e+21
21.1736  2.89022e+21
21.291  2.85489e+21
21.4083  2.81969e+21
21.5256  2.78194e+21
21.6429  2.73833e+21
21.7602  2.68671e+21
21.8775  2.62525e+21
21.9948  2.55338e+21
22.1121  2.47148e+21
22.2294  2.38085e+21
22.3467  2.28389e+21
22.464  2.18356e+21
22.5813  2.08289e+21
22.6986  1.98545e+21
22.8159  1.89388e+21
22.9332  1.81054e+21
23.0505  1.73681e+21
23.1678  1.6733e+21
23.2851  1.61954e+21
23.4024  1.57443e+21
23.5198  1.53664e+21
23.6371  1.5046e+21
23.7544  1.47686e+21
23.8717  1.45257e+21
23.989  1.43123e+21
24.1063  1.41296e+21
24.2236  1.39805e+21
24.3409  1.38693e+21
24.4582  1.38007e+21
24.5755  1.37743e+21
24.6928  1.37872e+21
24.8101  1.38308e+21
24.9274  1.38929e+21
25.0447  1.39583e+21
25.162  1.4012e+21
25.2793  1.4037e+21
25.3966  1.40184e+21
25.5139  1.39451e+21
25.6312  1.3809e+21
25.7485  1.36063e+21
25.8658  1.33388e+21
25.9832  1.30106e+21
26.1005  1.26328e+21
26.2178  1.22185e+21
26.3351  1.17818e+21
26.4524  1.13379e+21
26.5697  1.09029e+21
26.687  1.04879e+21
26.8043  1.01009e+21
26.9216  9.74818e+20
27.0389  9.42986e+20
27.1562  9.14548e+20
27.2735  8.89039e+20
27.3908  8.66182e+20
27.5081  8.45486e+20
27.6254  8.26612e+20
27.7427  8.09407e+20
27.86  7.93624e+20
27.9773  7.79372e+20
28.0946  7.6676e+20
28.212  7.56122e+20
28.3293  7.47892e+20
28.4466  7.42535e+20
28.5639  7.40658e+20
28.6812  7.42584e+20
28.7985  7.48615e+20
28.9158  7.58468e+20
29.0331  7.71423e+20
29.1504  7.86401e+20
29.2677  8.0191e+20
29.385  8.16127e+20
29.5023  8.27373e+20
29.6196  8.34023e+20
29.7369  8.35172e+20
29.8542  8.30261e+20
29.9715  8.19344e+20
30.0888  8.03039e+20
30.2061  7.82244e+20
30.3234  7.58283e+20
30.4407  7.3229e+20
30.558  7.05243e+20
30.6754  6.78055e+20
30.7927  6.5113e+20
30.91  6.24926e+20
31.0273  5.99344e+20
31.1446  5.74223e+20
31.2619  5.49555e+20
31.3792  5.25043e+20
31.4965  5.00951e+20
31.6138  4.77694e+20
31.7311  4.559e+20
31.8484  4.3686e+20
31.9657  4.21982e+20
32.083  4.12759e+20
32.2003  4.10467e+20
32.3176  4.16051e+20
32.4349  4.29732e+20
32.5522  4.50881e+20
32.6695  4.78015e+20
32.7868  5.09087e+20
32.9042  5.41516e+20
33.0215  5.7253e+20
33.1388  5.99888e+20
33.2561  6.21456e+20
33.3734  6.36329e+20
33.4907  6.43975e+20
33.608  6.44802e+20
33.7253  6.39728e+20
33.8426  6.2984e+20
33.9599  6.16751e+20
34.0772  6.01669e+20
34.1945  5.8594e+20
34.3118  5.70599e+20
34.4291  5.56405e+20
34.5464  5.43724e+20
34.6637  5.32336e+20
34.781  5.21977e+20
34.8983  5.11611e+20
35.0156  5.00224e+20
35.1329  4.86625e+20
35.2503  4.69702e+20
35.3676  4.49007e+20
35.4849  4.24204e+20
35.6022  3.96156e+20
35.7195  3.66082e+20
35.8368  3.35715e+20
35.9541  3.06806e+20
36.0714  2.81232e+20
36.1887  2.60335e+20
36.306  2.44849e+20
36.4233  2.34956e+20
36.5406  2.30394e+20
36.6579  2.30496e+20
36.7752  2.3436e+20
36.8925  2.41122e+20
37.0098  2.50102e+20
37.1271  2.60508e+20
37.2444  2.71833e+20
37.3617  2.83398e+20
37.479  2.94559e+20
37.5964  3.04716e+20
37.7137  3.13361e+20
37.831  3.20291e+20
37.9483  3.25476e+20
38.0656  3.29561e+20
38.1829  3.33439e+20
38.3002  3.38258e+20
38.4175  3.45369e+20
38.5348  3.5564e+20
38.6521  3.69583e+20
38.7694  3.87038e+20
38.8867  4.07087e+20
39.004  4.28332e+20
39.1213  4.48829e+20
39.2386  4.66666e+20
39.3559  4.80081e+20
39.4732  4.87824e+20
39.5905  4.89239e+20
39.7078  4.84372e+20
39.8251  4.73865e+20
39.9425  4.59049e+20
40.0598  4.41601e+20
40.1771  4.23091e+20
40.2944  4.05234e+20
40.4117  3.8944e+20
40.529  3.76752e+20
40.6463  3.67567e+20
40.7636  3.62029e+20
40.8809  3.59579e+20
40.9982  3.59426e+20
41.1155  3.60619e+20
41.2328  3.62107e+20
41.3501  3.62994e+20
41.4674  3.62733e+20
41.5847  3.61123e+20
41.702  3.58345e+20
41.8193  3.54818e+20
41.9366  3.51184e+20
42.0539  3.47939e+20
42.1712  3.45354e+20
42.2885  3.43506e+20
42.4059  3.42146e+20
42.5232  3.40645e+20
42.6405  3.3836e+20
42.7578  3.3445e+20
42.8751  3.28404e+20
42.9924  3.19738e+20
43.1097  3.08374e+20
43.227  2.94495e+20
43.3443  2.78462e+20
43.4616  2.60906e+20
43.5789  2.42524e+20
43.6962  2.24123e+20
43.8135  2.06517e+20
43.9308  1.90567e+20
44.0481  1.77095e+20
44.1654  1.66766e+20
44.2827  1.60076e+20
44.4  1.57195e+20
44.5173  1.58014e+20
44.6347  1.62079e+20
44.752  1.68581e+20
44.8693  1.76536e+20
44.9866  1.8481e+20
45.1039  1.92421e+20
45.2212  1.98562e+20
45.3385  2.02753e+20
45.4558  2.04836e+20
45.5731  2.04837e+20
45.6904  2.03119e+20
45.8077  2.00095e+20
45.925  1.9614e+20
46.0423  1.91664e+20
46.1596  1.87121e+20
46.2769  1.82965e+20
46.3942  1.79714e+20
46.5115  1.78111e+20
46.6288  1.78859e+20
46.7461  1.82695e+20
46.8634  1.90123e+20
46.9808  2.01376e+20
47.0981  2.16254e+20
47.2154  2.3395e+20
47.3327  2.53381e+20
47.45  2.72835e+20
47.5673  2.90781e+20
47.6846  3.056e+20
47.8019  3.1601e+20
47.9192  3.21248e+20
48.0365  3.21003e+20
48.1538  3.15641e+20
48.2711  3.05821e+20
48.3884  2.92526e+20
48.5057  2.76877e+20
48.623  2.59904e+20
48.7403  2.42624e+20
48.8576  2.25736e+20
48.9749  2.09854e+20
49.0922  1.95252e+20
49.2095  1.82058e+20
49.3269  1.70376e+20
49.4442  1.60142e+20
49.5615  1.51404e+20
49.6788  1.44115e+20
49.7961  1.38279e+20
49.9134  1.33953e+20
50.0307  1.31221e+20
50.148  1.30057e+20
50.2653  1.30368e+20
50.3826  1.31988e+20
50.4999  1.34646e+20
50.6172  1.37989e+20
50.7345  1.41663e+20
50.8518  1.4539e+20
