#S 1 spectral density
#N 2
#UFWHM 8.09405
#L  abscissas [um]  spectral density
-58.5938  9.95789e+19
-58.4764  1.0153e+20
-58.3591  1.0027e+20
-58.2418  9.5561e+19
-58.1245  8.76836e+19
-58.0072  7.76451e+19
-57.8899  6.7003e+19
-57.7726  5.77139e+19
-57.6553  5.16686e+19
-57.538  5.04101e+19
-57.4207  5.48558e+19
-57.3034  6.49852e+19
-57.1861  7.99696e+19
-57.0688  9.82456e+19
-56.9515  1.17918e+20
-56.8342  1.36942e+20
-56.7169  1.53614e+20
-56.5996  1.66625e+20
-56.4823  1.75385e+20
-56.365  1.79818e+20
-56.2477  1.80316e+20
-56.1303  1.77551e+20
-56.013  1.72356e+20
-55.8957  1.65382e+20
-55.7784  1.57224e+20
-55.6611  1.48216e+20
-55.5438  1.38646e+20
-55.4265  1.28813e+20
-55.3092  1.18822e+20
-55.1919  1.09039e+20
-55.0746  9.97507e+19
-54.9573  9.12995e+19
-54.84  8.40464e+19
-54.7227  7.81586e+19
-54.6054  7.38351e+19
-54.4881  7.10343e+19
-54.3708  6.96577e+19
-54.2535  6.94822e+19
-54.1362  7.02607e+19
-54.0189  7.17837e+19
-53.9016  7.38421e+19
-53.7842  7.63529e+19
-53.6669  7.92062e+19
-53.5496  8.24558e+19
-53.4323  8.60866e+19
-53.315  9.00719e+19
-53.1977  9.43271e+19
-53.0804  9.86549e+19
-52.9631  1.02895e+20
-52.8458  1.06762e+20
-52.7285  1.09998e+20
-52.6112  1.12395e+20
-52.4939  1.13977e+20
-52.3766  1.14713e+20
-52.2593  1.14712e+20
-52.142  1.14086e+20
-52.0247  1.12963e+20
-51.9074  1.11358e+20
-51.7901  1.09197e+20
-51.6728  1.06246e+20
-51.5555  1.0228e+20
-51.4381  9.72106e+19
-51.3208  9.09804e+19
-51.2035  8.3825e+19
-51.0862  7.61146e+19
-50.9689  6.85154e+19
-50.8516  6.16658e+19
-50.7343  5.60388e+19
-50.617  5.20013e+19
-50.4997  4.95113e+19
-50.3824  4.81832e+19
-50.2651  4.74935e+19
-50.1478  4.67077e+19
-50.0305  4.52559e+19
-49.9132  4.2883e+19
-49.7959  3.96012e+19
-49.6786  3.58101e+19
-49.5613  3.21552e+19
-49.444  2.93613e+19
-49.3267  2.79683e+19
-49.2094  2.82154e+19
-49.092  2.99702e+19
-48.9747  3.27499e+19
-48.8574  3.58328e+19
-48.7401  3.85003e+19
-48.6228  4.02277e+19
-48.5055  4.09237e+19
-48.3882  4.09398e+19
-48.2709  4.10048e+19
-48.1536  4.21426e+19
-48.0363  4.53376e+19
-47.919  5.13096e+19
-47.8017  6.0323e+19
-47.6844  7.19911e+19
-47.5671  8.53808e+19
-47.4498  9.91127e+19
-47.3325  1.11581e+20
-47.2152  1.21221e+20
-47.0979  1.26905e+20
-46.9806  1.27925e+20
-46.8633  1.24291e+20
-46.7459  1.16545e+20
-46.6286  1.05876e+20
-46.5113  9.36661e+19
-46.394  8.1425e+19
-46.2767  7.03973e+19
-46.1594  6.16224e+19
-46.0421  5.55813e+19
-45.9248  5.23138e+19
-45.8075  5.1502e+19
-45.6902  5.25427e+19
-45.5729  5.47742e+19
-45.4556  5.76527e+19
-45.3383  6.0871e+19
-45.221  6.44711e+19
-45.1037  6.87884e+19
-44.9864  7.43714e+19
-44.8691  8.19129e+19
-44.7518  9.18987e+19
-44.6345  1.04517e+20
-44.5172  1.19533e+20
-44.3998  1.36194e+20
-44.2825  1.53237e+20
-44.1652  1.69082e+20
-44.0479  1.82024e+20
-43.9306  1.90583e+20
-43.8133  1.93622e+20
-43.696  1.90715e+20
-43.5787  1.8204e+20
-43.4614  1.68549e+20
-43.3441  1.51736e+20
-43.2268  1.33616e+20
-43.1095  1.16133e+20
-42.9922  1.01117e+20
-42.8749  8.99824e+19
-42.7576  8.34808e+19
-42.6403  8.1645e+19
-42.523  8.39223e+19
-42.4057  8.91822e+19
-42.2884  9.59699e+19
-42.171  1.02753e+20
-42.0537  1.08317e+20
-41.9364  1.11595e+20
-41.8191  1.12226e+20
-41.7018  1.10276e+20
-41.5845  1.06375e+20
-41.4672  1.01427e+20
-41.3499  9.65773e+19
-41.2326  9.28683e+19
-41.1153  9.11159e+19
-40.998  9.17928e+19
-40.8807  9.49532e+19
-40.7634  1.00128e+20
-40.6461  1.0671e+20
-40.5288  1.13822e+20
-40.4115  1.20647e+20
-40.2942  1.2642e+20
-40.1769  1.30541e+20
-40.0596  1.32836e+20
-39.9423  1.33141e+20
-39.825  1.31557e+20
-39.7076  1.28292e+20
-39.5903  1.23568e+20
-39.473  1.17571e+20
-39.3557  1.10516e+20
-39.2384  1.02529e+20
-39.1211  9.37729e+19
-39.0038  8.45031e+19
-38.8865  7.50341e+19
-38.7692  6.56728e+19
-38.6519  5.68759e+19
-38.5346  4.9053e+19
-38.4173  4.26585e+19
-38.3  3.80548e+19
-38.1827  3.5594e+19
-38.0654  3.54957e+19
-37.9481  3.78573e+19
-37.8308  4.26252e+19
-37.7135  4.95098e+19
-37.5962  5.80335e+19
-37.4789  6.74464e+19
-37.3615  7.67595e+19
-37.2442  8.50201e+19
-37.1269  9.11422e+19
-37.0096  9.44092e+19
-36.8923  9.43154e+19
-36.775  9.09312e+19
-36.6577  8.47444e+19
-36.5404  7.68273e+19
-36.4231  6.83846e+19
-36.3058  6.07803e+19
-36.1885  5.52419e+19
-36.0712  5.26357e+19
-35.9539  5.34367e+19
-35.8366  5.76168e+19
-35.7193  6.47955e+19
-35.602  7.43275e+19
-35.4847  8.55649e+19
-35.3674  9.77958e+19
-35.2501  1.10493e+20
-35.1328  1.23216e+20
-35.0154  1.35574e+20
-34.8981  1.47287e+20
-34.7808  1.57868e+20
-34.6635  1.66785e+20
-34.5462  1.73574e+20
-34.4289  1.77846e+20
-34.3116  1.79247e+20
-34.1943  1.77723e+20
-34.077  1.73578e+20
-33.9597  1.67235e+20
-33.8424  1.5924e+20
-33.7251  1.5018e+20
-33.6078  1.40542e+20
-33.4905  1.3061e+20
-33.3732  1.20604e+20
-33.2559  1.10663e+20
-33.1386  1.00956e+20
-33.0213  9.18391e+19
-32.904  8.38717e+19
-32.7867  7.77574e+19
-32.6693  7.43249e+19
-32.552  7.42002e+19
-32.4347  7.77274e+19
-32.3174  8.48683e+19
-32.2001  9.50086e+19
-32.0828  1.0717e+20
-31.9655  1.20061e+20
-31.8482  1.32376e+20
-31.7309  1.42929e+20
-31.6136  1.5097e+20
-31.4963  1.56148e+20
-31.379  1.58634e+20
-31.2617  1.58931e+20
-31.1444  1.57796e+20
-31.0271  1.55958e+20
-30.9098  1.54144e+20
-30.7925  1.5271e+20
-30.6752  1.51929e+20
-30.5579  1.51773e+20
-30.4406  1.52176e+20
-30.3232  1.53063e+20
-30.2059  1.54194e+20
-30.0886  1.55534e+20
-29.9713  1.57095e+20
-29.854  1.589e+20
-29.7367  1.60789e+20
-29.6194  1.6277e+20
-29.5021  1.64655e+20
-29.3848  1.66166e+20
-29.2675  1.67065e+20
-29.1502  1.67112e+20
-29.0329  1.66151e+20
-28.9156  1.64161e+20
-28.7983  1.61187e+20
-28.681  1.57475e+20
-28.5637  1.533e+20
-28.4464  1.48982e+20
-28.3291  1.44873e+20
-28.2118  1.41179e+20
-28.0944  1.3808e+20
-27.9771  1.35544e+20
-27.8598  1.33501e+20
-27.7425  1.31692e+20
-27.6252  1.29752e+20
-27.5079  1.27372e+20
-27.3906  1.24138e+20
-27.2733  1.19707e+20
-27.156  1.13875e+20
-27.0387  1.06441e+20
-26.9214  9.75083e+19
-26.8041  8.73335e+19
-26.6868  7.65269e+19
-26.5695  6.59072e+19
-26.4522  5.65838e+19
-26.3349  4.98838e+19
-26.2176  4.71118e+19
-26.1003  4.94795e+19
-25.983  5.77536e+19
-25.8657  7.21634e+19
-25.7483  9.21865e+19
-25.631  1.16467e+20
-25.5137  1.43059e+20
-25.3964  1.69464e+20
-25.2791  1.93038e+20
-25.1618  2.11432e+20
-25.0445  2.22891e+20
-24.9272  2.26408e+20
-24.8099  2.22201e+20
-24.6926  2.11237e+20
-24.5753  1.95201e+20
-24.458  1.76352e+20
-24.3407  1.56832e+20
-24.2234  1.38609e+20
-24.1061  1.23129e+20
-23.9888  1.11312e+20
-23.8715  1.0356e+20
-23.7542  9.97722e+19
-23.6369  9.98166e+19
-23.5196  1.03391e+20
-23.4023  1.10114e+20
-23.2849  1.19809e+20
-23.1676  1.32091e+20
-23.0503  1.46448e+20
-22.933  1.62234e+20
-22.8157  1.78207e+20
-22.6984  1.93194e+20
-22.5811  2.05787e+20
-22.4638  2.146e+20
-22.3465  2.1864e+20
-22.2292  2.17336e+20
-22.1119  2.10597e+20
-21.9946  1.99122e+20
-21.8773  1.83967e+20
-21.76  1.66719e+20
-21.6427  1.48997e+20
-21.5254  1.32521e+20
-21.4081  1.1885e+20
-21.2908  1.09237e+20
-21.1735  1.04686e+20
-21.0561  1.0582e+20
-20.9388  1.12928e+20
-20.8215  1.26065e+20
-20.7042  1.4503e+20
-20.5869  1.69365e+20
-20.4696  1.98547e+20
-20.3523  2.3185e+20
-20.235  2.68505e+20
-20.1177  3.07587e+20
-20.0004  3.48285e+20
-19.8831  3.89652e+20
-19.7658  4.30793e+20
-19.6485  4.70624e+20
-19.5312  5.08054e+20
-19.4139  5.41881e+20
-19.2966  5.70888e+20
-19.1793  5.93726e+20
-19.062  6.09357e+20
-18.9447  6.17009e+20
-18.8274  6.16435e+20
-18.71  6.08033e+20
-18.5927  5.93153e+20
-18.4754  5.73503e+20
-18.3581  5.51711e+20
-18.2408  5.30557e+20
-18.1235  5.12965e+20
-18.0062  5.01192e+20
-17.8889  4.9688e+20
-17.7716  5.00625e+20
-17.6543  5.11688e+20
-17.537  5.28537e+20
-17.4197  5.48529e+20
-17.3024  5.68805e+20
-17.1851  5.86247e+20
-17.0678  5.98397e+20
-16.9505  6.03409e+20
-16.8332  6.0069e+20
-16.7159  5.9063e+20
-16.5986  5.74741e+20
-16.4813  5.55405e+20
-16.364  5.35404e+20
-16.2466  5.17741e+20
-16.1293  5.05216e+20
-16.012  4.99655e+20
-15.8947  5.02322e+20
-15.7774  5.13457e+20
-15.6601  5.32239e+20
-15.5428  5.57117e+20
-15.4255  5.86057e+20
-15.3082  6.16462e+20
-15.1909  6.46318e+20
-15.0736  6.73132e+20
-14.9563  6.9543e+20
-14.839  7.12194e+20
-14.7217  7.23187e+20
-14.6044  7.28451e+20
-14.4871  7.28812e+20
-14.3698  7.25348e+20
-14.2525  7.19531e+20
-14.1352  7.1281e+20
-14.0178  7.06742e+20
-13.9005  7.02568e+20
-13.7832  7.01537e+20
-13.6659  7.04653e+20
-13.5486  7.12453e+20
-13.4313  7.254e+20
-13.314  7.4343e+20
-13.1967  7.66486e+20
-13.0794  7.9392e+20
-12.9621  8.25161e+20
-12.8448  8.59355e+20
-12.7275  8.95807e+20
-12.6102  9.3331e+20
-12.4929  9.71176e+20
-12.3756  1.00852e+21
-12.2583  1.0445e+21
-12.141  1.07844e+21
-12.0237  1.10996e+21
-11.9064  1.1388e+21
-11.7891  1.16471e+21
-11.6718  1.18796e+21
-11.5544  1.2089e+21
-11.4371  1.22807e+21
-11.3198  1.24626e+21
-11.2025  1.26442e+21
-11.0852  1.28326e+21
-10.9679  1.30385e+21
-10.8506  1.32695e+21
-10.7333  1.35365e+21
-10.616  1.38499e+21
-10.4987  1.4219e+21
-10.3814  1.46584e+21
-10.2641  1.51841e+21
-10.1468  1.58125e+21
-10.0295  1.65621e+21
-9.91217  1.74544e+21
-9.79487  1.85051e+21
-9.67756  1.97307e+21
-9.56026  2.11431e+21
-9.44295  2.27477e+21
-9.32565  2.4545e+21
-9.20834  2.65301e+21
-9.09104  2.86881e+21
-8.97373  3.09999e+21
-8.85643  3.34396e+21
-8.73913  3.59779e+21
-8.62182  3.85793e+21
-8.50452  4.12085e+21
-8.38721  4.38309e+21
-8.26991  4.6419e+21
-8.1526  4.89503e+21
-8.03529  5.14158e+21
-7.91799  5.38146e+21
-7.80069  5.61602e+21
-7.68338  5.84763e+21
-7.56608  6.07936e+21
-7.44877  6.31504e+21
-7.33146  6.5582e+21
-7.21416  6.81279e+21
-7.09685  7.08173e+21
-6.97955  7.36777e+21
-6.86224  7.67253e+21
-6.74494  7.99727e+21
-6.62763  8.34283e+21
-6.51033  8.70913e+21
-6.39302  9.09655e+21
-6.27572  9.50474e+21
-6.15842  9.93361e+21
-6.04111  1.03827e+22
-5.92381  1.08514e+22
-5.8065  1.13394e+22
-5.68919  1.18455e+22
-5.57189  1.23695e+22
-5.45458  1.29108e+22
-5.33728  1.34683e+22
-5.21997  1.4042e+22
-5.10267  1.46311e+22
-4.98536  1.52358e+22
-4.86806  1.58552e+22
-4.75075  1.649e+22
-4.63345  1.714e+22
-4.51614  1.78055e+22
-4.39884  1.84868e+22
-4.28154  1.91853e+22
-4.16423  1.99025e+22
-4.04692  2.06394e+22
-3.92962  2.13983e+22
-3.81231  2.21819e+22
-3.69501  2.29924e+22
-3.5777  2.38324e+22
-3.4604  2.4704e+22
-3.34309  2.56075e+22
-3.22579  2.65435e+22
-3.10849  2.75115e+22
-2.99118  2.85076e+22
-2.87387  2.95278e+22
-2.75657  3.05661e+22
-2.63926  3.16143e+22
-2.52196  3.26616e+22
-2.40465  3.36972e+22
-2.28735  3.47081e+22
-2.17005  3.568e+22
-2.05274  3.65991e+22
-1.93544  3.74507e+22
-1.81813  3.82231e+22
-1.70083  3.89055e+22
-1.58352  3.94911e+22
-1.46622  3.99755e+22
-1.34891  4.03583e+22
-1.2316  4.06454e+22
-1.1143  4.08433e+22
-0.996995  4.09641e+22
-0.87969  4.10211e+22
-0.762385  4.10285e+22
-0.64508  4.10028e+22
-0.527775  4.09573e+22
-0.41047  4.09055e+22
-0.293165  4.08582e+22
-0.17586  4.08239e+22
-0.058555  4.08083e+22
0.05875  4.08144e+22
0.176055  4.08411e+22
0.29336  4.08874e+22
0.410665  4.09457e+22
0.52797  4.10081e+22
0.645275  4.10636e+22
0.76258  4.10995e+22
0.879885  4.11001e+22
0.99719  4.10514e+22
1.1145  4.09377e+22
1.2318  4.07461e+22
1.3491  4.04641e+22
1.46641  4.00854e+22
1.58371  3.96048e+22
1.70102  3.90226e+22
1.81832  3.83429e+22
1.93563  3.75727e+22
2.05294  3.67232e+22
2.17024  3.58067e+22
2.28754  3.48372e+22
2.40485  3.38284e+22
2.52216  3.27946e+22
2.63946  3.17491e+22
2.75677  3.07034e+22
2.87407  2.96672e+22
2.99137  2.86485e+22
3.10868  2.76538e+22
3.22599  2.66874e+22
3.34329  2.57523e+22
3.4606  2.48489e+22
3.5779  2.39774e+22
3.69521  2.31372e+22
3.81251  2.23251e+22
3.92982  2.15399e+22
4.04712  2.07785e+22
4.16443  2.00387e+22
4.28173  1.93185e+22
4.39903  1.8616e+22
4.51634  1.79305e+22
4.63364  1.72607e+22
4.75095  1.66064e+22
4.86825  1.59675e+22
4.98556  1.53434e+22
5.10286  1.47349e+22
5.22017  1.41414e+22
5.33748  1.35642e+22
5.45478  1.30029e+22
5.57209  1.24584e+22
5.68939  1.19315e+22
5.8067  1.14224e+22
5.924  1.09319e+22
6.0413  1.04611e+22
6.15861  1.00102e+22
6.27591  9.57955e+21
6.39322  9.16991e+21
6.51052  8.78102e+21
6.62783  8.41348e+21
6.74514  8.06679e+21
6.86244  7.74114e+21
6.97975  7.43532e+21
7.09705  7.14852e+21
7.21436  6.87877e+21
7.33166  6.62311e+21
7.44897  6.37887e+21
7.56627  6.14196e+21
7.68358  5.90883e+21
7.80088  5.67546e+21
7.91819  5.43882e+21
8.03549  5.19679e+21
8.1528  4.94776e+21
8.2701  4.69192e+21
8.38741  4.43041e+21
8.50471  4.16523e+21
8.62202  3.89974e+21
8.73932  3.63693e+21
8.85662  3.38047e+21
8.97393  3.13387e+21
9.09123  2.90044e+21
9.20854  2.68241e+21
9.32584  2.48191e+21
9.44315  2.30031e+21
9.56045  2.13817e+21
9.67776  1.99536e+21
9.79506  1.87146e+21
9.91237  1.7651e+21
10.0297  1.67472e+21
10.147  1.59852e+21
10.2643  1.53462e+21
10.3816  1.48115e+21
10.4989  1.43619e+21
10.6162  1.39839e+21
10.7335  1.36639e+21
10.8508  1.33891e+21
10.9681  1.315e+21
11.0854  1.29378e+21
11.2027  1.27428e+21
11.32  1.25553e+21
11.4373  1.23671e+21
11.5546  1.21688e+21
11.6719  1.19546e+21
11.7893  1.17165e+21
11.9066  1.14508e+21
12.0239  1.11594e+21
12.1412  1.08389e+21
12.2585  1.04954e+21
12.3758  1.01321e+21
12.4931  9.75634e+20
12.6104  9.37623e+20
12.7277  8.99949e+20
12.845  8.63489e+20
12.9623  8.29309e+20
13.0796  7.98048e+20
13.1969  7.7066e+20
13.3142  7.47756e+20
13.4315  7.29798e+20
13.5488  7.16969e+20
13.6661  7.09202e+20
13.7834  7.06197e+20
13.9007  7.07148e+20
14.018  7.1126e+20
14.1354  7.17287e+20
14.2527  7.23818e+20
14.37  7.29351e+20
14.4873  7.32528e+20
14.6046  7.31983e+20
14.7219  7.26443e+20
14.8392  7.15264e+20
14.9565  6.98284e+20
15.0738  6.75723e+20
15.1911  6.48762e+20
15.3084  6.18951e+20
15.4257  5.88561e+20
15.543  5.59738e+20
15.6603  5.34968e+20
15.7776  5.16378e+20
15.8949  5.05453e+20
16.0122  5.02798e+20
16.1295  5.08353e+20
16.2468  5.2087e+20
16.3641  5.38279e+20
16.4815  5.57921e+20
16.5988  5.76846e+20
16.7161  5.92163e+20
16.8334  6.0167e+20
16.9507  6.0378e+20
17.068  5.98248e+20
17.1853  5.85584e+20
17.3026  5.67774e+20
17.4199  5.47321e+20
17.5372  5.27343e+20
17.6545  5.10549e+20
17.7718  4.99706e+20
17.8891  4.96373e+20
18.0064  5.00988e+20
18.1237  5.12933e+20
18.241  5.30818e+20
18.3583  5.52028e+20
18.4756  5.73819e+20
18.5929  5.93431e+20
18.7102  6.08297e+20
18.8275  6.16521e+20
18.9449  6.16994e+20
19.0622  6.09204e+20
19.1795  5.93524e+20
19.2968  5.7057e+20
19.4141  5.41591e+20
19.5314  5.07788e+20
19.6487  4.70392e+20
19.766  4.30587e+20
19.8833  3.89538e+20
20.0006  3.48144e+20
20.1179  3.07436e+20
20.2352  2.68277e+20
20.3525  2.31624e+20
20.4698  1.98345e+20
20.5871  1.69181e+20
20.7044  1.44846e+20
20.8217  1.25928e+20
20.939  1.12831e+20
21.0563  1.05755e+20
21.1736  1.04656e+20
21.291  1.09205e+20
21.4083  1.18785e+20
21.5256  1.3239e+20
21.6429  1.48729e+20
21.7602  1.66284e+20
21.8775  1.83364e+20
21.9948  1.98213e+20
22.1121  2.09446e+20
22.2294  2.15895e+20
22.3467  2.17098e+20
22.464  2.12863e+20
22.5813  2.03998e+20
22.6986  1.91425e+20
22.8159  1.76472e+20
22.9332  1.6063e+20
23.0505  1.45104e+20
23.1678  1.3089e+20
23.2851  1.18872e+20
23.4024  1.09363e+20
23.5198  1.02848e+20
23.6371  9.95239e+19
23.7544  9.97196e+19
23.8717  1.03738e+20
23.989  1.11771e+20
24.1063  1.23891e+20
24.2236  1.396e+20
24.3409  1.58001e+20
24.4582  1.77707e+20
24.5755  1.96545e+20
24.6928  2.12495e+20
24.8101  2.23303e+20
24.9274  2.2729e+20
25.0447  2.23403e+20
25.162  2.11626e+20
25.2793  1.92943e+20
25.3966  1.69098e+20
25.5139  1.42603e+20
25.6312  1.16003e+20
25.7485  9.17316e+19
25.8658  7.18282e+19
25.9832  5.75677e+19
26.1005  4.94642e+19
26.2178  4.72567e+19
26.3351  5.01236e+19
26.4524  5.68837e+19
26.5697  6.62399e+19
26.687  7.68511e+19
26.8043  8.76105e+19
26.9216  9.77061e+19
27.0389  1.0658e+20
27.1562  1.13967e+20
27.2735  1.19814e+20
27.3908  1.24187e+20
27.5081  1.27432e+20
27.6254  1.29838e+20
27.7427  1.31795e+20
27.86  1.33667e+20
27.9773  1.3581e+20
28.0946  1.38429e+20
28.212  1.41615e+20
28.3293  1.45406e+20
28.4466  1.4954e+20
28.5639  1.53888e+20
28.6812  1.58116e+20
28.7985  1.61851e+20
28.9158  1.64794e+20
29.0331  1.66738e+20
29.1504  1.67686e+20
29.2677  1.67595e+20
29.385  1.66715e+20
29.5023  1.65174e+20
29.6196  1.63307e+20
29.7369  1.61333e+20
29.8542  1.5945e+20
29.9715  1.57699e+20
30.0888  1.56163e+20
30.2061  1.54815e+20
30.3234  1.53688e+20
30.4407  1.5288e+20
30.558  1.52455e+20
30.6754  1.52619e+20
30.7927  1.53421e+20
30.91  1.54825e+20
31.0273  1.56654e+20
31.1446  1.58397e+20
31.2619  1.59438e+20
31.3792  1.5895e+20
31.4965  1.56334e+20
31.6138  1.50994e+20
31.7311  1.42801e+20
31.8484  1.32096e+20
31.9657  1.19735e+20
32.083  1.06861e+20
32.2003  9.47507e+19
32.3176  8.47109e+19
32.4349  7.7727e+19
32.5522  7.43037e+19
32.6695  7.4542e+19
32.7868  7.80468e+19
32.9042  8.41355e+19
33.0215  9.20758e+19
33.1388  1.01122e+20
33.2561  1.10761e+20
33.3734  1.20636e+20
33.4907  1.30543e+20
33.608  1.4042e+20
33.7253  1.50068e+20
33.8426  1.59092e+20
33.9599  1.67087e+20
34.0772  1.73414e+20
34.1945  1.77528e+20
34.3118  1.79007e+20
34.4291  1.77593e+20
34.5464  1.73294e+20
34.6637  1.66436e+20
34.781  1.57489e+20
34.8983  1.46927e+20
35.0156  1.35195e+20
35.1329  1.22792e+20
35.2503  1.10042e+20
35.3676  9.73337e+19
35.4849  8.51394e+19
35.6022  7.39572e+19
35.7195  6.44656e+19
35.8368  5.74116e+19
35.9541  5.33649e+19
36.0714  5.27242e+19
36.1887  5.54745e+19
36.306  6.1131e+19
36.4233  6.88009e+19
36.5406  7.7248e+19
36.6579  8.51761e+19
36.7752  9.11977e+19
36.8925  9.44597e+19
37.0098  9.4402e+19
37.1271  9.09813e+19
37.2444  8.46859e+19
37.3617  7.63022e+19
37.479  6.68904e+19
37.5964  5.74684e+19
37.7137  4.89376e+19
37.831  4.20841e+19
37.9483  3.73623e+19
38.0656  3.50636e+19
38.1829  3.52364e+19
38.3002  3.77879e+19
38.4175  4.24333e+19
38.5348  4.88885e+19
38.6521  5.67323e+19
38.7694  6.55701e+19
38.8867  7.49339e+19
39.004  8.44285e+19
39.1213  9.36919e+19
39.2386  1.02415e+20
39.3559  1.10413e+20
39.4732  1.1749e+20
39.5905  1.23484e+20
39.7078  1.28208e+20
39.8251  1.31453e+20
39.9425  1.32998e+20
40.0598  1.32681e+20
40.1771  1.30423e+20
40.2944  1.26249e+20
40.4117  1.20551e+20
40.529  1.13798e+20
40.6463  1.0675e+20
40.7636  1.00281e+20
40.8809  9.51982e+19
40.9982  9.22378e+19
41.1155  9.1694e+19
41.2328  9.35553e+19
41.3501  9.7314e+19
41.4674  1.02187e+20
41.5847  1.07062e+20
41.702  1.10857e+20
41.8193  1.12658e+20
41.9366  1.11872e+20
42.0539  1.08413e+20
42.1712  1.02748e+20
42.2885  9.58363e+19
42.4059  8.906e+19
42.5232  8.38491e+19
42.6405  8.16972e+19
42.7578  8.37026e+19
42.8751  9.03915e+19
42.9924  1.01696e+20
43.1097  1.16818e+20
43.227  1.3437e+20
43.3443  1.52508e+20
43.4616  1.6922e+20
43.5789  1.82524e+20
43.6962  1.91023e+20
43.8135  1.93729e+20
43.9308  1.90479e+20
44.0481  1.81738e+20
44.1654  1.686e+20
44.2827  1.52725e+20
44.4  1.35727e+20
44.5173  1.19131e+20
44.6347  1.04205e+20
44.752  9.16838e+19
44.8693  8.17988e+19
44.9866  7.43478e+19
45.1039  6.8755e+19
45.2212  6.44414e+19
45.3385  6.08332e+19
45.4558  5.76118e+19
45.5731  5.47277e+19
45.6904  5.25211e+19
45.8077  5.15747e+19
45.925  5.25077e+19
46.0423  5.59241e+19
46.1596  6.21169e+19
46.2769  7.10559e+19
46.3942  8.21848e+19
46.5115  9.4513e+19
46.6288  1.06692e+20
46.7461  1.17264e+20
46.8634  1.24838e+20
46.9808  1.28275e+20
47.0981  1.27033e+20
47.2154  1.21161e+20
47.3327  1.1132e+20
47.45  9.87364e+19
47.5673  8.49758e+19
47.6846  7.16133e+19
47.8019  5.99922e+19
47.9192  5.10923e+19
48.0365  4.51955e+19
48.1538  4.20498e+19
48.2711  4.09419e+19
48.3884  4.08341e+19
48.5057  4.07959e+19
48.623  4.00219e+19
48.7403  3.82177e+19
48.8576  3.55382e+19
48.9749  3.24571e+19
49.0922  2.9701e+19
49.2095  2.80171e+19
49.3269  2.78366e+19
49.4442  2.93014e+19
49.5615  3.2133e+19
49.6788  3.57712e+19
49.7961  3.95202e+19
49.9134  4.27544e+19
50.0307  4.50486e+19
50.148  4.64044e+19
50.2653  4.71408e+19
50.3826  4.78506e+19
50.4999  4.91896e+19
50.6172  5.17591e+19
50.7345  5.59042e+19
50.8518  6.16376e+19
