#S 1 spectral density
#N 2
#UFWHM 31.555
#L  abscissas [um]  spectral density
-58.5938  2.41778e+20
-58.4764  2.49463e+20
-58.3591  2.57325e+20
-58.2418  2.64141e+20
-58.1245  2.68789e+20
-58.0072  2.70366e+20
-57.8899  2.68393e+20
-57.7726  2.62778e+20
-57.6553  2.53792e+20
-57.538  2.41983e+20
-57.4207  2.28084e+20
-57.3034  2.12913e+20
-57.1861  1.97312e+20
-57.0688  1.82219e+20
-56.9515  1.68544e+20
-56.8342  1.57218e+20
-56.7169  1.49047e+20
-56.5996  1.44672e+20
-56.4823  1.4439e+20
-56.365  1.48071e+20
-56.2477  1.55176e+20
-56.1303  1.64796e+20
-56.013  1.75646e+20
-55.8957  1.86522e+20
-55.7784  1.9618e+20
-55.6611  2.03824e+20
-55.5438  2.08952e+20
-55.4265  2.11375e+20
-55.3092  2.11334e+20
-55.1919  2.09329e+20
-55.0746  2.05955e+20
-54.9573  2.01884e+20
-54.84  1.97761e+20
-54.7227  1.94395e+20
-54.6054  1.92441e+20
-54.4881  1.92564e+20
-54.3708  1.95324e+20
-54.2535  2.01073e+20
-54.1362  2.09864e+20
-54.0189  2.21317e+20
-53.9016  2.34773e+20
-53.7842  2.49032e+20
-53.6669  2.6305e+20
-53.5496  2.75626e+20
-53.4323  2.85852e+20
-53.315  2.93344e+20
-53.1977  2.98166e+20
-53.0804  3.00806e+20
-52.9631  3.02102e+20
-52.8458  3.03099e+20
-52.7285  3.0454e+20
-52.6112  3.07033e+20
-52.4939  3.10707e+20
-52.3766  3.15484e+20
-52.2593  3.20815e+20
-52.142  3.26116e+20
-52.0247  3.30949e+20
-51.9074  3.34856e+20
-51.7901  3.37749e+20
-51.6728  3.39798e+20
-51.5555  3.4141e+20
-51.4381  3.43219e+20
-51.3208  3.45825e+20
-51.2035  3.50099e+20
-51.0862  3.56631e+20
-50.9689  3.66005e+20
-50.8516  3.78449e+20
-50.7343  3.93874e+20
-50.617  4.118e+20
-50.4997  4.31403e+20
-50.3824  4.51311e+20
-50.2651  4.70057e+20
-50.1478  4.85952e+20
-50.0305  4.9761e+20
-49.9132  5.03744e+20
-49.7959  5.03818e+20
-49.6786  4.97727e+20
-49.5613  4.86128e+20
-49.444  4.7028e+20
-49.3267  4.51792e+20
-49.2094  4.32218e+20
-49.092  4.13311e+20
-48.9747  3.96331e+20
-48.8574  3.82333e+20
-48.7401  3.71588e+20
-48.6228  3.64048e+20
-48.5055  3.59219e+20
-48.3882  3.56024e+20
-48.2709  3.53536e+20
-48.1536  3.50722e+20
-48.0363  3.4665e+20
-47.919  3.40849e+20
-47.8017  3.33265e+20
-47.6844  3.24359e+20
-47.5671  3.15015e+20
-47.4498  3.06498e+20
-47.3325  3.00229e+20
-47.2152  2.97589e+20
-47.0979  2.99741e+20
-46.9806  3.07451e+20
-46.8633  3.21012e+20
-46.7459  3.39902e+20
-46.6286  3.63474e+20
-46.5113  3.90357e+20
-46.394  4.19275e+20
-46.2767  4.48512e+20
-46.1594  4.76518e+20
-46.0421  5.0194e+20
-45.9248  5.23483e+20
-45.8075  5.401e+20
-45.6902  5.5108e+20
-45.5729  5.55895e+20
-45.4556  5.54758e+20
-45.3383  5.48066e+20
-45.221  5.36955e+20
-45.1037  5.22803e+20
-44.9864  5.0736e+20
-44.8691  4.92581e+20
-44.7518  4.80341e+20
-44.6345  4.7195e+20
-44.5172  4.68066e+20
-44.3998  4.68892e+20
-44.2825  4.73559e+20
-44.1652  4.8095e+20
-44.0479  4.89406e+20
-43.9306  4.97383e+20
-43.8133  5.03509e+20
-43.696  5.07048e+20
-43.5787  5.07786e+20
-43.4614  5.06156e+20
-43.3441  5.03194e+20
-43.2268  5.00128e+20
-43.1095  4.98374e+20
-42.9922  4.99133e+20
-42.8749  5.03326e+20
-42.7576  5.11336e+20
-42.6403  5.22937e+20
-42.523  5.37526e+20
-42.4057  5.53769e+20
-42.2884  5.70326e+20
-42.171  5.85552e+20
-42.0537  5.97695e+20
-41.9364  6.05617e+20
-41.8191  6.08124e+20
-41.7018  6.05079e+20
-41.5845  5.96538e+20
-41.4672  5.83437e+20
-41.3499  5.671e+20
-41.2326  5.49202e+20
-41.1153  5.31426e+20
-40.998  5.15275e+20
-40.8807  5.0182e+20
-40.7634  4.91859e+20
-40.6461  4.85248e+20
-40.5288  4.81757e+20
-40.4115  4.80317e+20
-40.2942  4.80114e+20
-40.1769  4.7988e+20
-40.0596  4.78703e+20
-39.9423  4.75855e+20
-39.825  4.70949e+20
-39.7076  4.64021e+20
-39.5903  4.55337e+20
-39.473  4.45547e+20
-39.3557  4.35731e+20
-39.2384  4.27034e+20
-39.1211  4.20757e+20
-39.0038  4.18279e+20
-38.8865  4.20535e+20
-38.7692  4.28107e+20
-38.6519  4.41038e+20
-38.5346  4.58787e+20
-38.4173  4.80036e+20
-38.3  5.03088e+20
-38.1827  5.25959e+20
-38.0654  5.46797e+20
-37.9481  5.63945e+20
-37.8308  5.76523e+20
-37.7135  5.84066e+20
-37.5962  5.87023e+20
-37.4789  5.86228e+20
-37.3615  5.83112e+20
-37.2442  5.79047e+20
-37.1269  5.75406e+20
-37.0096  5.73486e+20
-36.8923  5.74282e+20
-36.775  5.78577e+20
-36.6577  5.86848e+20
-36.5404  5.99318e+20
-36.4231  6.15943e+20
-36.3058  6.36111e+20
-36.1885  6.59046e+20
-36.0712  6.83328e+20
-35.9539  7.07385e+20
-35.8366  7.29329e+20
-35.7193  7.47509e+20
-35.602  7.60928e+20
-35.4847  7.68771e+20
-35.3674  7.71359e+20
-35.2501  7.69809e+20
-35.1328  7.65891e+20
-35.0154  7.61635e+20
-34.8981  7.59009e+20
-34.7808  7.59625e+20
-34.6635  7.64482e+20
-34.5462  7.73666e+20
-34.4289  7.86619e+20
-34.3116  8.02212e+20
-34.1943  8.19002e+20
-34.077  8.3554e+20
-33.9597  8.5058e+20
-33.8424  8.63387e+20
-33.7251  8.7366e+20
-33.6078  8.81545e+20
-33.4905  8.87552e+20
-33.3732  8.92488e+20
-33.2559  8.97419e+20
-33.1386  9.0338e+20
-33.0213  9.11445e+20
-32.904  9.2235e+20
-32.7867  9.36765e+20
-32.6693  9.55022e+20
-32.552  9.76921e+20
-32.4347  1.00191e+21
-32.3174  1.02918e+21
-32.2001  1.05759e+21
-32.0828  1.08604e+21
-31.9655  1.1134e+21
-31.8482  1.13887e+21
-31.7309  1.16204e+21
-31.6136  1.18282e+21
-31.4963  1.2014e+21
-31.379  1.21811e+21
-31.2617  1.23367e+21
-31.1444  1.2483e+21
-31.0271  1.26243e+21
-30.9098  1.27645e+21
-30.7925  1.29034e+21
-30.6752  1.30418e+21
-30.5579  1.31812e+21
-30.4406  1.33215e+21
-30.3232  1.34635e+21
-30.2059  1.36051e+21
-30.0886  1.37468e+21
-29.9713  1.38867e+21
-29.854  1.40236e+21
-29.7367  1.41555e+21
-29.6194  1.42823e+21
-29.5021  1.4405e+21
-29.3848  1.4527e+21
-29.2675  1.46512e+21
-29.1502  1.47823e+21
-29.0329  1.49234e+21
-28.9156  1.5078e+21
-28.7983  1.52445e+21
-28.681  1.54223e+21
-28.5637  1.56093e+21
-28.4464  1.58017e+21
-28.3291  1.59966e+21
-28.2118  1.61935e+21
-28.0944  1.63933e+21
-27.9771  1.6599e+21
-27.8598  1.68158e+21
-27.7425  1.70492e+21
-27.6252  1.73078e+21
-27.5079  1.75991e+21
-27.3906  1.79309e+21
-27.2733  1.83109e+21
-27.156  1.87447e+21
-27.0387  1.92361e+21
-26.9214  1.9786e+21
-26.8041  2.03868e+21
-26.6868  2.10308e+21
-26.5695  2.17008e+21
-26.4522  2.23761e+21
-26.3349  2.30327e+21
-26.2176  2.3648e+21
-26.1003  2.41983e+21
-25.983  2.46701e+21
-25.8657  2.50557e+21
-25.7483  2.5357e+21
-25.631  2.55892e+21
-25.5137  2.5769e+21
-25.3964  2.59267e+21
-25.2791  2.60908e+21
-25.1618  2.62929e+21
-25.0445  2.65567e+21
-24.9272  2.69038e+21
-24.8099  2.73413e+21
-24.6926  2.78708e+21
-24.5753  2.84786e+21
-24.458  2.91437e+21
-24.3407  2.98335e+21
-24.2234  3.05129e+21
-24.1061  3.1141e+21
-23.9888  3.16822e+21
-23.8715  3.21067e+21
-23.7542  3.23942e+21
-23.6369  3.25372e+21
-23.5196  3.25409e+21
-23.4023  3.2428e+21
-23.2849  3.22297e+21
-23.1676  3.19865e+21
-23.0503  3.17441e+21
-22.933  3.15508e+21
-22.8157  3.14513e+21
-22.6984  3.14855e+21
-22.5811  3.16843e+21
-22.4638  3.20699e+21
-22.3465  3.26493e+21
-22.2292  3.34206e+21
-22.1119  3.43668e+21
-21.9946  3.54641e+21
-21.8773  3.66748e+21
-21.76  3.79589e+21
-21.6427  3.92733e+21
-21.5254  4.058e+21
-21.4081  4.18411e+21
-21.2908  4.30339e+21
-21.1735  4.41455e+21
-21.0561  4.51755e+21
-20.9388  4.61393e+21
-20.8215  4.70541e+21
-20.7042  4.79488e+21
-20.5869  4.88494e+21
-20.4696  4.97822e+21
-20.3523  5.07612e+21
-20.235  5.17973e+21
-20.1177  5.28834e+21
-20.0004  5.40071e+21
-19.8831  5.51485e+21
-19.7658  5.62763e+21
-19.6485  5.73581e+21
-19.5312  5.8367e+21
-19.4139  5.92716e+21
-19.2966  6.0054e+21
-19.1793  6.07035e+21
-19.062  6.12219e+21
-18.9447  6.1617e+21
-18.8274  6.1905e+21
-18.71  6.21169e+21
-18.5927  6.22789e+21
-18.4754  6.24194e+21
-18.3581  6.25651e+21
-18.2408  6.27329e+21
-18.1235  6.29367e+21
-18.0062  6.31777e+21
-17.8889  6.34501e+21
-17.7716  6.37488e+21
-17.6543  6.40526e+21
-17.537  6.43524e+21
-17.4197  6.46346e+21
-17.3024  6.48951e+21
-17.1851  6.51337e+21
-17.0678  6.53581e+21
-16.9505  6.55867e+21
-16.8332  6.58446e+21
-16.7159  6.61591e+21
-16.5986  6.65597e+21
-16.4813  6.70763e+21
-16.364  6.77382e+21
-16.2466  6.85654e+21
-16.1293  6.95702e+21
-16.012  7.0748e+21
-15.8947  7.2086e+21
-15.7774  7.35578e+21
-15.6601  7.51226e+21
-15.5428  7.67336e+21
-15.4255  7.83323e+21
-15.3082  7.98662e+21
-15.1909  8.1295e+21
-15.0736  8.25712e+21
-14.9563  8.3672e+21
-14.839  8.45936e+21
-14.7217  8.53386e+21
-14.6044  8.59293e+21
-14.4871  8.64022e+21
-14.3698  8.68007e+21
-14.2525  8.71676e+21
-14.1352  8.75445e+21
-14.0178  8.79773e+21
-13.9005  8.84914e+21
-13.7832  8.91019e+21
-13.6659  8.98173e+21
-13.5486  9.06199e+21
-13.4313  9.1491e+21
-13.314  9.23927e+21
-13.1967  9.32828e+21
-13.0794  9.41225e+21
-12.9621  9.48638e+21
-12.8448  9.54803e+21
-12.7275  9.59493e+21
-12.6102  9.62718e+21
-12.4929  9.64605e+21
-12.3756  9.65408e+21
-12.2583  9.65614e+21
-12.141  9.65763e+21
-12.0237  9.66377e+21
-11.9064  9.67969e+21
-11.7891  9.70979e+21
-11.6718  9.75746e+21
-11.5544  9.8244e+21
-11.4371  9.91158e+21
-11.3198  1.00168e+22
-11.2025  1.0138e+22
-11.0852  1.02714e+22
-10.9679  1.04123e+22
-10.8506  1.05552e+22
-10.7333  1.06946e+22
-10.616  1.0825e+22
-10.4987  1.09429e+22
-10.3814  1.10434e+22
-10.2641  1.1125e+22
-10.1468  1.11868e+22
-10.0295  1.12302e+22
-9.91217  1.12572e+22
-9.79487  1.12724e+22
-9.67756  1.12804e+22
-9.56026  1.12869e+22
-9.44295  1.12973e+22
-9.32565  1.13176e+22
-9.20834  1.1352e+22
-9.09104  1.14043e+22
-8.97373  1.14773e+22
-8.85643  1.15715e+22
-8.73913  1.16866e+22
-8.62182  1.18203e+22
-8.50452  1.19696e+22
-8.38721  1.21302e+22
-8.26991  1.2296e+22
-8.1526  1.24624e+22
-8.03529  1.26227e+22
-7.91799  1.2772e+22
-7.80069  1.29052e+22
-7.68338  1.30178e+22
-7.56608  1.31077e+22
-7.44877  1.31732e+22
-7.33146  1.3214e+22
-7.21416  1.32312e+22
-7.09685  1.32265e+22
-6.97955  1.32031e+22
-6.86224  1.31648e+22
-6.74494  1.31173e+22
-6.62763  1.30639e+22
-6.51033  1.30105e+22
-6.39302  1.29616e+22
-6.27572  1.29213e+22
-6.15842  1.28933e+22
-6.04111  1.28801e+22
-5.92381  1.2883e+22
-5.8065  1.29035e+22
-5.68919  1.29402e+22
-5.57189  1.29925e+22
-5.45458  1.30575e+22
-5.33728  1.31337e+22
-5.21997  1.3217e+22
-5.10267  1.33048e+22
-4.98536  1.33936e+22
-4.86806  1.34807e+22
-4.75075  1.35635e+22
-4.63345  1.36408e+22
-4.51614  1.37113e+22
-4.39884  1.37752e+22
-4.28154  1.38341e+22
-4.16423  1.38888e+22
-4.04692  1.39418e+22
-3.92962  1.39947e+22
-3.81231  1.40497e+22
-3.69501  1.41082e+22
-3.5777  1.41699e+22
-3.4604  1.42351e+22
-3.34309  1.43018e+22
-3.22579  1.43681e+22
-3.10849  1.44306e+22
-2.99118  1.44862e+22
-2.87387  1.45319e+22
-2.75657  1.45645e+22
-2.63926  1.45821e+22
-2.52196  1.4583e+22
-2.40465  1.4567e+22
-2.28735  1.45346e+22
-2.17005  1.44879e+22
-2.05274  1.44306e+22
-1.93544  1.43656e+22
-1.81813  1.42983e+22
-1.70083  1.4233e+22
-1.58352  1.41752e+22
-1.46622  1.41289e+22
-1.34891  1.40983e+22
-1.2316  1.40857e+22
-1.1143  1.40928e+22
-0.996995  1.41186e+22
-0.87969  1.41616e+22
-0.762385  1.42179e+22
-0.64508  1.4283e+22
-0.527775  1.43507e+22
-0.41047  1.44148e+22
-0.293165  1.44691e+22
-0.17586  1.45083e+22
-0.058555  1.45287e+22
0.05875  1.45282e+22
0.176055  1.45066e+22
0.29336  1.44661e+22
0.410665  1.44109e+22
0.52797  1.4346e+22
0.645275  1.42776e+22
0.76258  1.42118e+22
0.879885  1.41549e+22
0.99719  1.41113e+22
1.1145  1.40849e+22
1.2318  1.40776e+22
1.3491  1.40897e+22
1.46641  1.41199e+22
1.58371  1.41653e+22
1.70102  1.42224e+22
1.81832  1.42869e+22
1.93563  1.4353e+22
2.05294  1.44168e+22
2.17024  1.44735e+22
2.28754  1.45187e+22
2.40485  1.45498e+22
2.52216  1.45646e+22
2.63946  1.45627e+22
2.75677  1.45439e+22
2.87407  1.45101e+22
2.99137  1.44633e+22
3.10868  1.44066e+22
3.22599  1.43431e+22
3.34329  1.42764e+22
3.4606  1.42093e+22
3.5779  1.41437e+22
3.69521  1.40812e+22
3.81251  1.40226e+22
3.92982  1.39669e+22
4.04712  1.39134e+22
4.16443  1.38603e+22
4.28173  1.38051e+22
4.39903  1.37459e+22
4.51634  1.36812e+22
4.63364  1.36103e+22
4.75095  1.35326e+22
4.86825  1.34491e+22
4.98556  1.33615e+22
5.10286  1.32721e+22
5.22017  1.31841e+22
5.33748  1.31003e+22
5.45478  1.3024e+22
5.57209  1.29586e+22
5.68939  1.29062e+22
5.8067  1.28693e+22
5.924  1.28488e+22
6.0413  1.28457e+22
6.15861  1.28586e+22
6.27591  1.28862e+22
6.39322  1.29262e+22
6.51052  1.29748e+22
6.62783  1.30273e+22
6.74514  1.30796e+22
6.86244  1.31266e+22
6.97975  1.31633e+22
7.09705  1.31856e+22
7.21436  1.31888e+22
7.33166  1.31704e+22
7.44897  1.31281e+22
7.56627  1.30613e+22
7.68358  1.29698e+22
7.80088  1.28557e+22
7.91819  1.27216e+22
8.03549  1.25717e+22
8.1528  1.24109e+22
8.2701  1.22442e+22
8.38741  1.20779e+22
8.50471  1.19178e+22
8.62202  1.17685e+22
8.73932  1.1635e+22
8.85662  1.15205e+22
8.97393  1.14268e+22
9.09123  1.13541e+22
9.20854  1.13018e+22
9.32584  1.12677e+22
9.44315  1.12473e+22
9.56045  1.12361e+22
9.67776  1.12291e+22
9.79506  1.122e+22
9.91237  1.1204e+22
10.0297  1.11756e+22
10.147  1.11312e+22
10.2643  1.10683e+22
10.3816  1.09855e+22
10.4989  1.08841e+22
10.6162  1.07658e+22
10.7335  1.06348e+22
10.8508  1.04951e+22
10.9681  1.03523e+22
11.0854  1.02121e+22
11.2027  1.00795e+22
11.32  9.95884e+21
11.4373  9.85424e+21
11.5546  9.76819e+21
11.6719  9.70191e+21
11.7893  9.65522e+21
11.9066  9.62569e+21
12.0239  9.61005e+21
12.1412  9.60432e+21
12.2585  9.60289e+21
12.3758  9.60019e+21
12.4931  9.59141e+21
12.6104  9.57185e+21
12.7277  9.53896e+21
12.845  9.49132e+21
12.9623  9.42863e+21
13.0796  9.35377e+21
13.1969  9.26944e+21
13.3142  9.17986e+21
13.4315  9.08939e+21
13.5488  9.0023e+21
13.6661  8.92206e+21
13.7834  8.85077e+21
13.9007  8.78987e+21
14.018  8.7392e+21
14.1354  8.69608e+21
14.2527  8.65837e+21
14.37  8.62199e+21
14.4873  8.58215e+21
14.6046  8.53475e+21
14.7219  8.47533e+21
14.8392  8.40077e+21
14.9565  8.30864e+21
15.0738  8.19789e+21
15.1911  8.07022e+21
15.3084  7.92725e+21
15.4257  7.77344e+21
15.543  7.61324e+21
15.6603  7.4524e+21
15.7776  7.29629e+21
15.8949  7.14945e+21
16.0122  7.01583e+21
16.1295  6.89825e+21
16.2468  6.79815e+21
16.3641  6.71571e+21
16.4815  6.64994e+21
16.5988  6.59845e+21
16.7161  6.55839e+21
16.8334  6.52743e+21
16.9507  6.50178e+21
17.068  6.47889e+21
17.1853  6.45641e+21
17.3026  6.43248e+21
17.4199  6.4065e+21
17.5372  6.37852e+21
17.6545  6.34834e+21
17.7718  6.31808e+21
17.8891  6.28856e+21
18.0064  6.26137e+21
18.1237  6.23738e+21
18.241  6.21729e+21
18.3583  6.20065e+21
18.4756  6.18625e+21
18.5929  6.17237e+21
18.7102  6.15653e+21
18.8275  6.13529e+21
18.9449  6.10654e+21
19.0622  6.06729e+21
19.1795  6.0156e+21
19.2968  5.95078e+21
19.4141  5.87265e+21
19.5314  5.78258e+21
19.6487  5.68222e+21
19.766  5.57426e+21
19.8833  5.46211e+21
20.0006  5.34846e+21
20.1179  5.23641e+21
20.2352  5.12814e+21
20.3525  5.02502e+21
20.4698  4.92753e+21
20.5871  4.83464e+21
20.7044  4.74479e+21
20.8217  4.65541e+21
20.939  4.56395e+21
21.0563  4.46781e+21
21.1736  4.36494e+21
21.291  4.2541e+21
21.4083  4.13505e+21
21.5256  4.00962e+21
21.6429  3.87977e+21
21.7602  3.74916e+21
21.8775  3.62177e+21
21.9948  3.50175e+21
22.1121  3.39333e+21
22.2294  3.29998e+21
22.3467  3.22397e+21
22.464  3.16724e+21
22.5813  3.12973e+21
22.6986  3.11079e+21
22.8159  3.10801e+21
22.9332  3.11849e+21
23.0505  3.1382e+21
23.1678  3.16261e+21
23.2851  3.18702e+21
23.4024  3.20684e+21
23.5198  3.21798e+21
23.6371  3.21738e+21
23.7544  3.20304e+21
23.8717  3.1742e+21
23.989  3.13176e+21
24.1063  3.07781e+21
24.2236  3.01532e+21
24.3409  2.9478e+21
24.4582  2.87932e+21
24.5755  2.81353e+21
24.6928  2.75328e+21
24.8101  2.70098e+21
24.9274  2.65776e+21
25.0447  2.62355e+21
25.162  2.59764e+21
25.2793  2.57783e+21
25.3966  2.56168e+21
25.5139  2.546e+21
25.6312  2.52792e+21
25.7485  2.50481e+21
25.8658  2.47456e+21
25.9832  2.43609e+21
26.1005  2.38884e+21
26.2178  2.33395e+21
26.3351  2.27276e+21
26.4524  2.20741e+21
26.5697  2.14038e+21
26.687  2.07394e+21
26.8043  2.01022e+21
26.9216  1.95074e+21
27.0389  1.89654e+21
27.1562  1.84814e+21
27.2735  1.80535e+21
27.3908  1.76809e+21
27.5081  1.7355e+21
27.6254  1.70693e+21
27.7427  1.68156e+21
27.86  1.65865e+21
27.9773  1.63744e+21
28.0946  1.6172e+21
28.212  1.59757e+21
28.3293  1.57816e+21
28.4466  1.55894e+21
28.5639  1.53998e+21
28.6812  1.52153e+21
28.7985  1.504e+21
28.9158  1.48755e+21
29.0331  1.47242e+21
29.1504  1.45852e+21
29.2677  1.44571e+21
29.385  1.43352e+21
29.5023  1.42161e+21
29.6196  1.40957e+21
29.7369  1.39719e+21
29.8542  1.38433e+21
29.9715  1.37097e+21
30.0888  1.35738e+21
30.2061  1.34354e+21
30.3234  1.32964e+21
30.4407  1.3158e+21
30.558  1.30207e+21
30.6754  1.28841e+21
30.7927  1.27471e+21
30.91  1.26109e+21
31.0273  1.24734e+21
31.1446  1.2333e+21
31.2619  1.21883e+21
31.3792  1.20354e+21
31.4965  1.18687e+21
31.6138  1.16851e+21
31.7311  1.1479e+21
31.8484  1.12495e+21
31.9657  1.09965e+21
32.083  1.07264e+21
32.2003  1.04456e+21
32.3176  1.01649e+21
32.4349  9.89679e+20
32.5522  9.65091e+20
32.6695  9.43671e+20
32.7868  9.25877e+20
32.9042  9.11826e+20
33.0215  9.01298e+20
33.1388  8.93587e+20
33.2561  8.87933e+20
33.3734  8.8318e+20
33.4907  8.78344e+20
33.608  8.72512e+20
33.7253  8.64738e+20
33.8426  8.54553e+20
33.9599  8.41828e+20
34.0772  8.2689e+20
34.1945  8.10578e+20
34.3118  7.94043e+20
34.4291  7.78797e+20
34.5464  7.66182e+20
34.6637  7.57335e+20
34.781  7.52917e+20
34.8983  7.52638e+20
35.0156  7.55566e+20
35.1329  7.60104e+20
35.2503  7.64188e+20
35.3676  7.6575e+20
35.4849  7.63092e+20
35.6022  7.55278e+20
35.7195  7.41916e+20
35.8368  7.23643e+20
35.9541  7.018e+20
36.0714  6.77832e+20
36.1887  6.53711e+20
36.306  6.31108e+20
36.4233  6.11101e+20
36.5406  5.94814e+20
36.6579  5.82619e+20
36.7752  5.74681e+20
36.8925  5.70604e+20
37.0098  5.70018e+20
37.1271  5.72143e+20
37.2444  5.75859e+20
37.3617  5.79968e+20
37.479  5.83118e+20
37.5964  5.83801e+20
37.7137  5.80753e+20
37.831  5.73061e+20
37.9483  5.60395e+20
38.0656  5.43123e+20
38.1829  5.22245e+20
38.3002  4.99482e+20
38.4175  4.76499e+20
38.5348  4.55452e+20
38.6521  4.38004e+20
38.7694  4.25293e+20
38.8867  4.18031e+20
39.004  4.16075e+20
39.1213  4.18884e+20
39.2386  4.25369e+20
39.3559  4.34226e+20
39.4732  4.44197e+20
39.5905  4.53983e+20
39.7078  4.62694e+20
39.8251  4.69742e+20
39.9425  4.74591e+20
40.0598  4.77486e+20
40.1771  4.78586e+20
40.2944  4.78881e+20
40.4117  4.79158e+20
40.529  4.80657e+20
40.6463  4.84357e+20
40.7636  4.90966e+20
40.8809  5.01144e+20
40.9982  5.14694e+20
41.1155  5.30911e+20
41.2328  5.48733e+20
41.3501  5.66617e+20
41.4674  5.82874e+20
41.5847  5.95819e+20
41.702  6.04236e+20
41.8193  6.07116e+20
41.9366  6.04379e+20
42.0539  5.96302e+20
42.1712  5.83937e+20
42.2885  5.68731e+20
42.4059  5.5206e+20
42.5232  5.35835e+20
42.6405  5.21251e+20
42.7578  5.09774e+20
42.8751  5.01907e+20
42.9924  4.97812e+20
43.1097  4.97126e+20
43.227  4.98963e+20
43.3443  5.02121e+20
43.4616  5.05103e+20
43.5789  5.06654e+20
43.6962  5.05865e+20
43.8135  5.0227e+20
43.9308  4.96152e+20
44.0481  4.8818e+20
44.1654  4.79746e+20
44.2827  4.72405e+20
44.4  4.67799e+20
44.5173  4.67094e+20
44.6347  4.71003e+20
44.752  4.79607e+20
44.8693  4.91845e+20
44.9866  5.06513e+20
45.1039  5.21859e+20
45.2212  5.35929e+20
45.3385  5.46868e+20
45.4558  5.53389e+20
45.5731  5.54387e+20
45.6904  5.49327e+20
45.8077  5.38242e+20
45.925  5.21514e+20
46.0423  4.99956e+20
46.1596  4.74484e+20
46.2769  4.46469e+20
46.3942  4.17362e+20
46.5115  3.88553e+20
46.6288  3.61811e+20
46.7461  3.38406e+20
46.8634  3.19632e+20
46.9808  3.06331e+20
47.0981  2.98743e+20
47.2154  2.96741e+20
47.3327  2.99419e+20
47.45  3.0578e+20
47.5673  3.14299e+20
47.6846  3.23535e+20
47.8019  3.3239e+20
47.9192  3.39852e+20
48.0365  3.45562e+20
48.1538  3.49547e+20
48.2711  3.52319e+20
48.3884  3.54796e+20
48.5057  3.57922e+20
48.623  3.62921e+20
48.7403  3.70484e+20
48.8576  3.81319e+20
48.9749  3.95466e+20
49.0922  4.12476e+20
49.2095  4.31381e+20
49.3269  4.5091e+20
49.4442  4.69452e+20
49.5615  4.85152e+20
49.6788  4.96483e+20
49.7961  5.02421e+20
49.9134  5.02129e+20
50.0307  4.95744e+20
50.148  4.83983e+20
50.2653  4.67952e+20
50.3826  4.49115e+20
50.4999  4.29168e+20
50.6172  4.09616e+20
50.7345  3.91729e+20
50.8518  3.76358e+20
