#S 1 spectral density
#N 2
#UFWHM 45.5143
#L  abscissas [um]  spectral density
-58.5938  3.49026e+20
-58.4764  3.6724e+20
-58.3591  3.83147e+20
-58.2418  3.95588e+20
-58.1245  4.03709e+20
-58.0072  4.07084e+20
-57.8899  4.06037e+20
-57.7726  4.00978e+20
-57.6553  3.92869e+20
-57.538  3.82698e+20
-57.4207  3.71509e+20
-57.3034  3.60184e+20
-57.1861  3.49464e+20
-57.0688  3.4004e+20
-56.9515  3.3247e+20
-56.8342  3.27189e+20
-56.7169  3.24462e+20
-56.5996  3.246e+20
-56.4823  3.27501e+20
-56.365  3.32921e+20
-56.2477  3.4042e+20
-56.1303  3.49194e+20
-56.013  3.58478e+20
-55.8957  3.67459e+20
-55.7784  3.75674e+20
-55.6611  3.82701e+20
-55.5438  3.88417e+20
-55.4265  3.93185e+20
-55.3092  3.9731e+20
-55.1919  4.01154e+20
-55.0746  4.05103e+20
-54.9573  4.09253e+20
-54.84  4.13689e+20
-54.7227  4.18355e+20
-54.6054  4.22984e+20
-54.4881  4.27466e+20
-54.3708  4.31393e+20
-54.2535  4.34846e+20
-54.1362  4.37513e+20
-54.0189  4.39106e+20
-53.9016  4.39285e+20
-53.7842  4.37819e+20
-53.6669  4.34207e+20
-53.5496  4.2842e+20
-53.4323  4.20466e+20
-53.315  4.10609e+20
-53.1977  3.99618e+20
-53.0804  3.88114e+20
-52.9631  3.7714e+20
-52.8458  3.67544e+20
-52.7285  3.60046e+20
-52.6112  3.55201e+20
-52.4939  3.53335e+20
-52.3766  3.54442e+20
-52.2593  3.58589e+20
-52.142  3.65615e+20
-52.0247  3.75383e+20
-51.9074  3.87864e+20
-51.7901  4.02791e+20
-51.6728  4.19984e+20
-51.5555  4.39062e+20
-51.4381  4.5946e+20
-51.3208  4.80386e+20
-51.2035  5.01135e+20
-51.0862  5.20929e+20
-50.9689  5.39063e+20
-50.8516  5.55007e+20
-50.7343  5.6847e+20
-50.617  5.79319e+20
-50.4997  5.87644e+20
-50.3824  5.93513e+20
-50.2651  5.97138e+20
-50.1478  5.98495e+20
-50.0305  5.97822e+20
-49.9132  5.95101e+20
-49.7959  5.90451e+20
-49.6786  5.83972e+20
-49.5613  5.75992e+20
-49.444  5.66873e+20
-49.3267  5.57048e+20
-49.2094  5.47048e+20
-49.092  5.37357e+20
-48.9747  5.2848e+20
-48.8574  5.20997e+20
-48.7401  5.15227e+20
-48.6228  5.116e+20
-48.5055  5.10269e+20
-48.3882  5.11332e+20
-48.2709  5.14809e+20
-48.1536  5.20558e+20
-48.0363  5.28298e+20
-47.919  5.3776e+20
-47.8017  5.48708e+20
-47.6844  5.60778e+20
-47.5671  5.73884e+20
-47.4498  5.87836e+20
-47.3325  6.02598e+20
-47.2152  6.18042e+20
-47.0979  6.34057e+20
-46.9806  6.50466e+20
-46.8633  6.669e+20
-46.7459  6.82931e+20
-46.6286  6.98049e+20
-46.5113  7.11953e+20
-46.394  7.2431e+20
-46.2767  7.34899e+20
-46.1594  7.43803e+20
-46.0421  7.51025e+20
-45.9248  7.56679e+20
-45.8075  7.60943e+20
-45.6902  7.63689e+20
-45.5729  7.64931e+20
-45.4556  7.64446e+20
-45.3383  7.6215e+20
-45.221  7.58112e+20
-45.1037  7.52548e+20
-44.9864  7.45999e+20
-44.8691  7.39165e+20
-44.7518  7.33069e+20
-44.6345  7.28809e+20
-44.5172  7.27368e+20
-44.3998  7.29521e+20
-44.2825  7.36106e+20
-44.1652  7.47465e+20
-44.0479  7.63727e+20
-43.9306  7.84915e+20
-43.8133  8.10582e+20
-43.696  8.40269e+20
-43.5787  8.73301e+20
-43.4614  9.08783e+20
-43.3441  9.45525e+20
-43.2268  9.82307e+20
-43.1095  1.01768e+21
-42.9922  1.05031e+21
-42.8749  1.07894e+21
-42.7576  1.10258e+21
-42.6403  1.12075e+21
-42.523  1.1332e+21
-42.4057  1.14052e+21
-42.2884  1.14346e+21
-42.171  1.14321e+21
-42.0537  1.14098e+21
-41.9364  1.13816e+21
-41.8191  1.13595e+21
-41.7018  1.13534e+21
-41.5845  1.13691e+21
-41.4672  1.1411e+21
-41.3499  1.14793e+21
-41.2326  1.15705e+21
-41.1153  1.16806e+21
-40.998  1.18022e+21
-40.8807  1.19261e+21
-40.7634  1.20445e+21
-40.6461  1.21499e+21
-40.5288  1.2236e+21
-40.4115  1.23008e+21
-40.2942  1.23446e+21
-40.1769  1.23721e+21
-40.0596  1.23915e+21
-39.9423  1.24137e+21
-39.825  1.2449e+21
-39.7076  1.25086e+21
-39.5903  1.26049e+21
-39.473  1.2745e+21
-39.3557  1.29348e+21
-39.2384  1.31777e+21
-39.1211  1.34731e+21
-39.0038  1.3816e+21
-38.8865  1.41997e+21
-38.7692  1.46114e+21
-38.6519  1.50347e+21
-38.5346  1.54495e+21
-38.4173  1.58345e+21
-38.3  1.61686e+21
-38.1827  1.64331e+21
-38.0654  1.6614e+21
-37.9481  1.67065e+21
-37.8308  1.67121e+21
-37.7135  1.66437e+21
-37.5962  1.65214e+21
-37.4789  1.63695e+21
-37.3615  1.62141e+21
-37.2442  1.60828e+21
-37.1269  1.59988e+21
-37.0096  1.59803e+21
-36.8923  1.60407e+21
-36.775  1.61869e+21
-36.6577  1.64211e+21
-36.5404  1.67406e+21
-36.4231  1.71377e+21
-36.3058  1.76019e+21
-36.1885  1.81164e+21
-36.0712  1.86605e+21
-35.9539  1.92128e+21
-35.8366  1.97467e+21
-35.7193  2.02401e+21
-35.602  2.06713e+21
-35.4847  2.10272e+21
-35.3674  2.13016e+21
-35.2501  2.14967e+21
-35.1328  2.1622e+21
-35.0154  2.16945e+21
-34.8981  2.17383e+21
-34.7808  2.17718e+21
-34.6635  2.18175e+21
-34.5462  2.1892e+21
-34.4289  2.20101e+21
-34.3116  2.21768e+21
-34.1943  2.23972e+21
-34.077  2.2669e+21
-33.9597  2.29868e+21
-33.8424  2.33412e+21
-33.7251  2.37218e+21
-33.6078  2.41135e+21
-33.4905  2.45035e+21
-33.3732  2.4875e+21
-33.2559  2.52177e+21
-33.1386  2.55207e+21
-33.0213  2.57801e+21
-32.904  2.59966e+21
-32.7867  2.61742e+21
-32.6693  2.63232e+21
-32.552  2.64534e+21
-32.4347  2.65796e+21
-32.3174  2.67124e+21
-32.2001  2.68607e+21
-32.0828  2.70315e+21
-31.9655  2.72269e+21
-31.8482  2.74482e+21
-31.7309  2.76908e+21
-31.6136  2.79508e+21
-31.4963  2.82208e+21
-31.379  2.84903e+21
-31.2617  2.87523e+21
-31.1444  2.89947e+21
-31.0271  2.92132e+21
-30.9098  2.94004e+21
-30.7925  2.95577e+21
-30.6752  2.96869e+21
-30.5579  2.97961e+21
-30.4406  2.98971e+21
-30.3232  3.00025e+21
-30.2059  3.01332e+21
-30.0886  3.02993e+21
-29.9713  3.05172e+21
-29.854  3.07965e+21
-29.7367  3.11471e+21
-29.6194  3.15687e+21
-29.5021  3.20622e+21
-29.3848  3.26208e+21
-29.2675  3.32365e+21
-29.1502  3.38913e+21
-29.0329  3.45695e+21
-28.9156  3.52476e+21
-28.7983  3.59056e+21
-28.681  3.65177e+21
-28.5637  3.70671e+21
-28.4464  3.75363e+21
-28.3291  3.79179e+21
-28.2118  3.82085e+21
-28.0944  3.84132e+21
-27.9771  3.85444e+21
-27.8598  3.86145e+21
-27.7425  3.86462e+21
-27.6252  3.86559e+21
-27.5079  3.86626e+21
-27.3906  3.86834e+21
-27.2733  3.87317e+21
-27.156  3.88213e+21
-27.0387  3.89584e+21
-26.9214  3.91521e+21
-26.8041  3.94048e+21
-26.6868  3.97156e+21
-26.5695  4.00822e+21
-26.4522  4.04965e+21
-26.3349  4.09545e+21
-26.2176  4.14444e+21
-26.1003  4.19586e+21
-25.983  4.24848e+21
-25.8657  4.30157e+21
-25.7483  4.35447e+21
-25.631  4.40631e+21
-25.5137  4.45734e+21
-25.3964  4.50652e+21
-25.2791  4.55391e+21
-25.1618  4.59914e+21
-25.0445  4.64207e+21
-24.9272  4.68242e+21
-24.8099  4.71998e+21
-24.6926  4.75451e+21
-24.5753  4.78632e+21
-24.458  4.81476e+21
-24.3407  4.84005e+21
-24.2234  4.86199e+21
-24.1061  4.88094e+21
-23.9888  4.89672e+21
-23.8715  4.91002e+21
-23.7542  4.92139e+21
-23.6369  4.93181e+21
-23.5196  4.94225e+21
-23.4023  4.95425e+21
-23.2849  4.96911e+21
-23.1676  4.98797e+21
-23.0503  5.01241e+21
-22.933  5.04259e+21
-22.8157  5.07933e+21
-22.6984  5.12244e+21
-22.5811  5.17152e+21
-22.4638  5.22607e+21
-22.3465  5.28467e+21
-22.2292  5.34644e+21
-22.1119  5.4098e+21
-21.9946  5.47316e+21
-21.8773  5.53466e+21
-21.76  5.59247e+21
-21.6427  5.64534e+21
-21.5254  5.69186e+21
-21.4081  5.73117e+21
-21.2908  5.76255e+21
-21.1735  5.78625e+21
-21.0561  5.80313e+21
-20.9388  5.8143e+21
-20.8215  5.82227e+21
-20.7042  5.8283e+21
-20.5869  5.83512e+21
-20.4696  5.84487e+21
-20.3523  5.8594e+21
-20.235  5.88081e+21
-20.1177  5.90972e+21
-20.0004  5.94704e+21
-19.8831  5.99351e+21
-19.7658  6.04811e+21
-19.6485  6.11015e+21
-19.5312  6.17818e+21
-19.4139  6.25047e+21
-19.2966  6.32462e+21
-19.1793  6.39839e+21
-19.062  6.46956e+21
-18.9447  6.53593e+21
-18.8274  6.59551e+21
-18.71  6.64757e+21
-18.5927  6.69141e+21
-18.4754  6.72704e+21
-18.3581  6.75567e+21
-18.2408  6.77808e+21
-18.1235  6.79624e+21
-18.0062  6.81184e+21
-17.8889  6.82675e+21
-17.7716  6.84296e+21
-17.6543  6.86122e+21
-17.537  6.88301e+21
-17.4197  6.90821e+21
-17.3024  6.93707e+21
-17.1851  6.96822e+21
-17.0678  7.00046e+21
-16.9505  7.0323e+21
-16.8332  7.06195e+21
-16.7159  7.08741e+21
-16.5986  7.10707e+21
-16.4813  7.11977e+21
-16.364  7.12527e+21
-16.2466  7.12408e+21
-16.1293  7.11783e+21
-16.012  7.10805e+21
-15.8947  7.09772e+21
-15.7774  7.0903e+21
-15.6601  7.08862e+21
-15.5428  7.09637e+21
-15.4255  7.11589e+21
-15.3082  7.14942e+21
-15.1909  7.19873e+21
-15.0736  7.26357e+21
-14.9563  7.34345e+21
-14.839  7.43652e+21
-14.7217  7.53977e+21
-14.6044  7.64945e+21
-14.4871  7.7608e+21
-14.3698  7.86903e+21
-14.2525  7.96899e+21
-14.1352  8.05587e+21
-14.0178  8.12626e+21
-13.9005  8.17721e+21
-13.7832  8.20792e+21
-13.6659  8.21884e+21
-13.5486  8.2116e+21
-13.4313  8.18986e+21
-13.314  8.15776e+21
-13.1967  8.12051e+21
-13.0794  8.08326e+21
-12.9621  8.05052e+21
-12.8448  8.02708e+21
-12.7275  8.01592e+21
-12.6102  8.01969e+21
-12.4929  8.03881e+21
-12.3756  8.07316e+21
-12.2583  8.12122e+21
-12.141  8.1805e+21
-12.0237  8.24718e+21
-11.9064  8.31714e+21
-11.7891  8.386e+21
-11.6718  8.44972e+21
-11.5544  8.50522e+21
-11.4371  8.54994e+21
-11.3198  8.58237e+21
-11.2025  8.60298e+21
-11.0852  8.61331e+21
-10.9679  8.61556e+21
-10.8506  8.61355e+21
-10.7333  8.6108e+21
-10.616  8.61135e+21
-10.4987  8.61916e+21
-10.3814  8.63692e+21
-10.2641  8.66697e+21
-10.1468  8.71028e+21
-10.0295  8.76657e+21
-9.91217  8.83446e+21
-9.79487  8.91126e+21
-9.67756  8.9937e+21
-9.56026  9.07716e+21
-9.44295  9.15699e+21
-9.32565  9.22894e+21
-9.20834  9.28872e+21
-9.09104  9.33341e+21
-8.97373  9.36087e+21
-8.85643  9.37037e+21
-8.73913  9.36285e+21
-8.62182  9.34032e+21
-8.50452  9.30616e+21
-8.38721  9.26451e+21
-8.26991  9.21942e+21
-8.1526  9.17579e+21
-8.03529  9.1374e+21
-7.91799  9.10788e+21
-7.80069  9.08952e+21
-7.68338  9.08371e+21
-7.56608  9.09076e+21
-7.44877  9.11007e+21
-7.33146  9.13942e+21
-7.21416  9.17656e+21
-7.09685  9.2185e+21
-6.97955  9.26215e+21
-6.86224  9.30532e+21
-6.74494  9.34506e+21
-6.62763  9.37991e+21
-6.51033  9.40918e+21
-6.39302  9.43258e+21
-6.27572  9.45061e+21
-6.15842  9.46457e+21
-6.04111  9.47585e+21
-5.92381  9.48609e+21
-5.8065  9.49741e+21
-5.68919  9.51124e+21
-5.57189  9.52919e+21
-5.45458  9.55224e+21
-5.33728  9.58043e+21
-5.21997  9.61404e+21
-5.10267  9.65185e+21
-4.98536  9.69269e+21
-4.86806  9.7343e+21
-4.75075  9.77453e+21
-4.63345  9.81124e+21
-4.51614  9.84238e+21
-4.39884  9.86644e+21
-4.28154  9.88225e+21
-4.16423  9.88974e+21
-4.04692  9.88937e+21
-3.92962  9.88233e+21
-3.81231  9.87024e+21
-3.69501  9.85504e+21
-3.5777  9.83865e+21
-3.4604  9.82277e+21
-3.34309  9.80899e+21
-3.22579  9.79828e+21
-3.10849  9.79137e+21
-2.99118  9.78837e+21
-2.87387  9.78886e+21
-2.75657  9.79264e+21
-2.63926  9.79866e+21
-2.52196  9.80636e+21
-2.40465  9.81489e+21
-2.28735  9.82357e+21
-2.17005  9.83265e+21
-2.05274  9.84105e+21
-1.93544  9.84951e+21
-1.81813  9.85828e+21
-1.70083  9.86769e+21
-1.58352  9.87845e+21
-1.46622  9.89132e+21
-1.34891  9.90694e+21
-1.2316  9.92565e+21
-1.1143  9.94786e+21
-0.996995  9.97355e+21
-0.87969  1.00022e+22
-0.762385  1.00329e+22
-0.64508  1.00644e+22
-0.527775  1.00949e+22
-0.41047  1.01225e+22
-0.293165  1.01453e+22
-0.17586  1.01615e+22
-0.058555  1.01699e+22
0.05875  1.017e+22
0.176055  1.01615e+22
0.29336  1.01455e+22
0.410665  1.01227e+22
0.52797  1.00953e+22
0.645275  1.0065e+22
0.76258  1.00339e+22
0.879885  1.00035e+22
0.99719  9.97511e+21
1.1145  9.95004e+21
1.2318  9.92826e+21
1.3491  9.90994e+21
1.46641  9.89486e+21
1.58371  9.88267e+21
1.70102  9.87274e+21
1.81832  9.86393e+21
1.93563  9.85608e+21
2.05294  9.84831e+21
2.17024  9.8405e+21
2.28754  9.83254e+21
2.40485  9.82448e+21
2.52216  9.817e+21
2.63946  9.80981e+21
2.75677  9.80445e+21
2.87407  9.80142e+21
2.99137  9.80133e+21
3.10868  9.80471e+21
3.22599  9.81192e+21
3.34329  9.8228e+21
3.4606  9.83677e+21
3.5779  9.85249e+21
3.69521  9.86883e+21
3.81251  9.88391e+21
3.92982  9.89574e+21
4.04712  9.90262e+21
4.16443  9.90276e+21
4.28173  9.8951e+21
4.39903  9.87917e+21
4.51634  9.85514e+21
4.63364  9.82406e+21
4.75095  9.7876e+21
4.86825  9.74762e+21
4.98556  9.70656e+21
5.10286  9.66615e+21
5.22017  9.62898e+21
5.33748  9.59608e+21
5.45478  9.56826e+21
5.57209  9.54597e+21
5.68939  9.52848e+21
5.8067  9.51519e+21
5.924  9.5043e+21
6.0413  9.49417e+21
6.15861  9.48304e+21
6.27591  9.46932e+21
6.39322  9.45166e+21
6.51052  9.42849e+21
6.62783  9.39939e+21
6.74514  9.36454e+21
6.86244  9.32492e+21
6.97975  9.28239e+21
7.09705  9.23911e+21
7.21436  9.19788e+21
7.33166  9.16114e+21
7.44897  9.13261e+21
7.56627  9.11415e+21
7.68358  9.10767e+21
7.80088  9.1142e+21
7.91819  9.13316e+21
8.03549  9.16334e+21
8.1528  9.20234e+21
8.2701  9.24616e+21
8.38741  9.29143e+21
8.50471  9.33323e+21
8.62202  9.36734e+21
8.73932  9.38962e+21
8.85662  9.39699e+21
8.97393  9.38728e+21
9.09123  9.3597e+21
9.20854  9.31486e+21
9.32584  9.25523e+21
9.44315  9.18355e+21
9.56045  9.10407e+21
9.67776  9.02116e+21
9.79506  8.93939e+21
9.91237  8.86343e+21
10.0297  8.79641e+21
10.147  8.74099e+21
10.2643  8.69856e+21
10.3816  8.66919e+21
10.4989  8.65216e+21
10.6162  8.64484e+21
10.7335  8.64447e+21
10.8508  8.64713e+21
10.9681  8.64914e+21
11.0854  8.64671e+21
11.2027  8.63626e+21
11.32  8.61509e+21
11.4373  8.58198e+21
11.5546  8.53683e+21
11.6719  8.48112e+21
11.7893  8.4172e+21
11.9066  8.3482e+21
12.0239  8.27828e+21
12.1412  8.21221e+21
12.2585  8.15357e+21
12.3758  8.10605e+21
12.4931  8.07254e+21
12.6104  8.05415e+21
12.7277  8.05148e+21
12.845  8.06362e+21
12.9623  8.08775e+21
13.0796  8.12105e+21
13.1969  8.15888e+21
13.3142  8.19644e+21
13.4315  8.2285e+21
13.5488  8.25011e+21
13.6661  8.25704e+21
13.7834  8.24566e+21
13.9007  8.2143e+21
14.018  8.16288e+21
14.1354  8.09201e+21
14.2527  8.00453e+21
14.37  7.90424e+21
14.4873  7.79571e+21
14.6046  7.68426e+21
14.7219  7.57469e+21
14.8392  7.47171e+21
14.9565  7.37901e+21
15.0738  7.29947e+21
15.1911  7.23519e+21
15.3084  7.18655e+21
15.4257  7.15348e+21
15.543  7.13431e+21
15.6603  7.12708e+21
15.7776  7.12915e+21
15.8949  7.13716e+21
16.0122  7.14749e+21
16.1295  7.15734e+21
16.2468  7.16388e+21
16.3641  7.16509e+21
16.4815  7.15973e+21
16.5988  7.14686e+21
16.7161  7.12733e+21
16.8334  7.10229e+21
16.9507  7.07283e+21
17.068  7.04122e+21
17.1853  7.00922e+21
17.3026  6.97827e+21
17.4199  6.94992e+21
17.5372  6.92512e+21
17.6545  6.90361e+21
17.7718  6.88554e+21
17.8891  6.86956e+21
18.0064  6.85469e+21
18.1237  6.83896e+21
18.241  6.82065e+21
18.3583  6.79806e+21
18.4756  6.7691e+21
18.5929  6.73297e+21
18.7102  6.68893e+21
18.8275  6.63642e+21
18.9449  6.57635e+21
19.0622  6.50966e+21
19.1795  6.43834e+21
19.2968  6.3643e+21
19.4141  6.29001e+21
19.5314  6.21793e+21
19.6487  6.15006e+21
19.766  6.08817e+21
19.8833  6.03389e+21
20.0006  5.98797e+21
20.1179  5.9509e+21
20.2352  5.92228e+21
20.3525  5.90152e+21
20.4698  5.88728e+21
20.5871  5.87803e+21
20.7044  5.87131e+21
20.8217  5.86533e+21
20.939  5.85775e+21
21.0563  5.84637e+21
21.1736  5.82954e+21
21.291  5.80543e+21
21.4083  5.77394e+21
21.5256  5.73465e+21
21.6429  5.68779e+21
21.7602  5.63459e+21
21.8775  5.57635e+21
21.9948  5.51443e+21
22.1121  5.45087e+21
22.2294  5.38731e+21
22.3467  5.32523e+21
22.464  5.26624e+21
22.5813  5.21154e+21
22.6986  5.16221e+21
22.8159  5.11894e+21
22.9332  5.08214e+21
23.0505  5.05185e+21
23.1678  5.02745e+21
23.2851  5.00852e+21
23.4024  4.99393e+21
23.5198  4.98193e+21
23.6371  4.97156e+21
23.7544  4.96128e+21
23.8717  4.95018e+21
23.989  4.93702e+21
24.1063  4.9213e+21
24.2236  4.90273e+21
24.3409  4.88097e+21
24.4582  4.85576e+21
24.5755  4.82732e+21
24.6928  4.79567e+21
24.8101  4.76111e+21
24.9274  4.72343e+21
25.0447  4.68298e+21
25.162  4.63986e+21
25.2793  4.59438e+21
25.3966  4.54666e+21
25.5139  4.49715e+21
25.6312  4.44599e+21
25.7485  4.39367e+21
25.8658  4.34063e+21
25.9832  4.28712e+21
26.1005  4.23437e+21
26.2178  4.18286e+21
26.3351  4.13377e+21
26.4524  4.08795e+21
26.5697  4.0464e+21
26.687  4.00974e+21
26.8043  3.97879e+21
26.9216  3.95373e+21
27.0389  3.93445e+21
27.1562  3.92065e+21
27.2735  3.9118e+21
27.3908  3.90684e+21
27.5081  3.90468e+21
27.6254  3.90383e+21
27.7427  3.90266e+21
27.86  3.89923e+21
27.9773  3.89181e+21
28.0946  3.87845e+21
28.212  3.85741e+21
28.3293  3.82788e+21
28.4466  3.78924e+21
28.5639  3.7419e+21
28.6812  3.68654e+21
28.7985  3.62493e+21
28.9158  3.55893e+21
29.0331  3.49088e+21
29.1504  3.42295e+21
29.2677  3.3573e+21
29.385  3.2958e+21
29.5023  3.23997e+21
29.6196  3.1907e+21
29.7369  3.14854e+21
29.8542  3.11356e+21
29.9715  3.08557e+21
30.0888  3.06373e+21
30.2061  3.04712e+21
30.3234  3.03415e+21
30.4407  3.02328e+21
30.558  3.01306e+21
30.6754  3.00183e+21
30.7927  2.98873e+21
30.91  2.97267e+21
31.0273  2.95366e+21
31.1446  2.93153e+21
31.2619  2.90692e+21
31.3792  2.88059e+21
31.4965  2.85341e+21
31.6138  2.82627e+21
31.7311  2.80018e+21
31.8484  2.77571e+21
31.9657  2.7536e+21
32.083  2.73381e+21
32.2003  2.71674e+21
32.3176  2.70184e+21
32.4349  2.68851e+21
32.5522  2.6758e+21
32.6695  2.66259e+21
32.7868  2.64756e+21
32.9042  2.62952e+21
33.0215  2.60769e+21
33.1388  2.58141e+21
33.2561  2.55087e+21
33.3734  2.51632e+21
33.4907  2.47887e+21
33.608  2.43967e+21
33.7253  2.4003e+21
33.8426  2.36212e+21
33.9599  2.32649e+21
34.0772  2.29467e+21
34.1945  2.2675e+21
34.3118  2.24551e+21
34.4291  2.22872e+21
34.5464  2.21695e+21
34.6637  2.20937e+21
34.781  2.20464e+21
34.8983  2.20114e+21
35.0156  2.1967e+21
35.1329  2.18891e+21
35.2503  2.17595e+21
35.3676  2.15594e+21
35.4849  2.12806e+21
35.6022  2.09177e+21
35.7195  2.04808e+21
35.8368  1.99819e+21
35.9541  1.94429e+21
36.0714  1.88874e+21
36.1887  1.83399e+21
36.306  1.78232e+21
36.4233  1.73584e+21
36.5406  1.69599e+21
36.6579  1.66411e+21
36.7752  1.64074e+21
36.8925  1.62631e+21
37.0098  1.62048e+21
37.1271  1.62248e+21
37.2444  1.63109e+21
37.3617  1.64435e+21
37.479  1.65991e+21
37.5964  1.67507e+21
37.7137  1.6871e+21
37.831  1.69358e+21
37.9483  1.69261e+21
38.0656  1.68288e+21
38.1829  1.66425e+21
38.3002  1.63726e+21
38.4175  1.60329e+21
38.5348  1.56428e+21
38.6521  1.52229e+21
38.7694  1.4796e+21
38.8867  1.43818e+21
39.004  1.39962e+21
39.1213  1.36506e+21
39.2386  1.33543e+21
39.3559  1.31104e+21
39.4732  1.29203e+21
39.5905  1.27805e+21
39.7078  1.26851e+21
39.8251  1.26241e+21
39.9425  1.25891e+21
40.0598  1.25664e+21
40.1771  1.25464e+21
40.2944  1.2517e+21
40.4117  1.24714e+21
40.529  1.24053e+21
40.6463  1.23163e+21
40.7636  1.22091e+21
40.8809  1.20886e+21
40.9982  1.19625e+21
41.1155  1.18402e+21
41.2328  1.17287e+21
41.3501  1.16365e+21
41.4674  1.1568e+21
41.5847  1.15259e+21
41.702  1.15104e+21
41.8193  1.15167e+21
41.9366  1.15386e+21
42.0539  1.15663e+21
42.1712  1.15871e+21
42.2885  1.15882e+21
42.4059  1.15559e+21
42.5232  1.14793e+21
42.6405  1.1351e+21
42.7578  1.11648e+21
42.8751  1.09239e+21
42.9924  1.06329e+21
43.1097  1.03021e+21
43.227  9.94398e+20
43.3443  9.57216e+20
43.4616  9.20118e+20
43.5789  8.84438e+20
43.6962  8.51219e+20
43.8135  8.21356e+20
43.9308  7.95559e+20
44.0481  7.74388e+20
44.1654  7.58158e+20
44.2827  7.46871e+20
44.4  7.4036e+20
44.5173  7.38241e+20
44.6347  7.39751e+20
44.752  7.4406e+20
44.8693  7.50159e+20
44.9866  7.56872e+20
45.1039  7.6334e+20
45.2212  7.68765e+20
45.3385  7.72574e+20
45.4558  7.74639e+20
45.5731  7.74879e+20
45.6904  7.73395e+20
45.8077  7.70426e+20
45.925  7.65945e+20
46.0423  7.60006e+20
46.1596  7.52554e+20
46.2769  7.43421e+20
46.3942  7.32598e+20
46.5115  7.20053e+20
46.6288  7.05942e+20
46.7461  6.90659e+20
46.8634  6.74502e+20
46.9808  6.57946e+20
47.0981  6.41398e+20
47.2154  6.25259e+20
47.3327  6.0973e+20
47.45  5.94817e+20
47.5673  5.80764e+20
47.6846  5.67527e+20
47.8019  5.55328e+20
47.9192  5.44297e+20
48.0365  5.347e+20
48.1538  5.26884e+20
48.2711  5.21107e+20
48.3884  5.17651e+20
48.5057  5.16571e+20
48.623  5.17906e+20
48.7403  5.21602e+20
48.8576  5.27412e+20
48.9749  5.34972e+20
49.0922  5.43872e+20
49.2095  5.53613e+20
49.3269  5.63564e+20
49.4442  5.73375e+20
49.5615  5.82464e+20
49.6788  5.90266e+20
49.7961  5.96618e+20
49.9134  6.01067e+20
50.0307  6.03594e+20
50.148  6.04111e+20
50.2653  6.02485e+20
50.3826  5.98637e+20
50.4999  5.9253e+20
50.6172  5.83984e+20
50.7345  5.7286e+20
