#S 1 spectral density
#N 2
#UFWHM 36.0126
#L  abscissas [um]  spectral density
-58.5938  3.32674e+20
-58.4764  3.35122e+20
-58.3591  3.35223e+20
-58.2418  3.32802e+20
-58.1245  3.27736e+20
-58.0072  3.20478e+20
-57.8899  3.11639e+20
-57.7726  3.02001e+20
-57.6553  2.92434e+20
-57.538  2.83786e+20
-57.4207  2.76654e+20
-57.3034  2.71352e+20
-57.1861  2.68086e+20
-57.0688  2.66865e+20
-56.9515  2.67677e+20
-56.8342  2.70469e+20
-56.7169  2.75198e+20
-56.5996  2.81857e+20
-56.4823  2.90304e+20
-56.365  3.00253e+20
-56.2477  3.114e+20
-56.1303  3.23035e+20
-56.013  3.34479e+20
-55.8957  3.45157e+20
-55.7784  3.54425e+20
-55.6611  3.6196e+20
-55.5438  3.67542e+20
-55.4265  3.71214e+20
-55.3092  3.73089e+20
-55.1919  3.73318e+20
-55.0746  3.72085e+20
-54.9573  3.69464e+20
-54.84  3.65503e+20
-54.7227  3.60359e+20
-54.6054  3.54127e+20
-54.4881  3.47249e+20
-54.3708  3.4004e+20
-54.2535  3.33235e+20
-54.1362  3.27399e+20
-54.0189  3.23059e+20
-53.9016  3.20528e+20
-53.7842  3.20045e+20
-53.6669  3.21544e+20
-53.5496  3.25003e+20
-53.4323  3.30127e+20
-53.315  3.36829e+20
-53.1977  3.44851e+20
-53.0804  3.53963e+20
-52.9631  3.6394e+20
-52.8458  3.74449e+20
-52.7285  3.84997e+20
-52.6112  3.94963e+20
-52.4939  4.03689e+20
-52.3766  4.10594e+20
-52.2593  4.15241e+20
-52.142  4.1736e+20
-52.0247  4.171e+20
-51.9074  4.14864e+20
-51.7901  4.11244e+20
-51.6728  4.06787e+20
-51.5555  4.02297e+20
-51.4381  3.98138e+20
-51.3208  3.9452e+20
-51.2035  3.91699e+20
-51.0862  3.89466e+20
-50.9689  3.87775e+20
-50.8516  3.86416e+20
-50.7343  3.85318e+20
-50.617  3.84354e+20
-50.4997  3.83529e+20
-50.3824  3.82828e+20
-50.2651  3.82228e+20
-50.1478  3.81655e+20
-50.0305  3.8119e+20
-49.9132  3.80657e+20
-49.7959  3.80334e+20
-49.6786  3.8035e+20
-49.5613  3.80991e+20
-49.444  3.82594e+20
-49.3267  3.85634e+20
-49.2094  3.90365e+20
-49.092  3.96913e+20
-48.9747  4.05409e+20
-48.8574  4.15723e+20
-48.7401  4.2739e+20
-48.6228  4.4001e+20
-48.5055  4.52707e+20
-48.3882  4.64608e+20
-48.2709  4.74839e+20
-48.1536  4.82534e+20
-48.0363  4.8682e+20
-47.919  4.8715e+20
-47.8017  4.83142e+20
-47.6844  4.74889e+20
-47.5671  4.62664e+20
-47.4498  4.47181e+20
-47.3325  4.29473e+20
-47.2152  4.10694e+20
-47.0979  3.92092e+20
-46.9806  3.74683e+20
-46.8633  3.59515e+20
-46.7459  3.4737e+20
-46.6286  3.38676e+20
-46.5113  3.33932e+20
-46.394  3.33026e+20
-46.2767  3.36204e+20
-46.1594  3.43255e+20
-46.0421  3.53839e+20
-45.9248  3.67452e+20
-45.8075  3.83398e+20
-45.6902  4.00745e+20
-45.5729  4.18504e+20
-45.4556  4.35348e+20
-45.3383  4.50357e+20
-45.221  4.62443e+20
-45.1037  4.71213e+20
-44.9864  4.76583e+20
-44.8691  4.78572e+20
-44.7518  4.77754e+20
-44.6345  4.74973e+20
-44.5172  4.71026e+20
-44.3998  4.66619e+20
-44.2825  4.62663e+20
-44.1652  4.59574e+20
-44.0479  4.57713e+20
-43.9306  4.57421e+20
-43.8133  4.58651e+20
-43.696  4.61447e+20
-43.5787  4.65596e+20
-43.4614  4.70908e+20
-43.3441  4.76862e+20
-43.2268  4.82964e+20
-43.1095  4.8855e+20
-42.9922  4.92988e+20
-42.8749  4.95552e+20
-42.7576  4.9599e+20
-42.6403  4.94216e+20
-42.523  4.9043e+20
-42.4057  4.85269e+20
-42.2884  4.79547e+20
-42.171  4.74077e+20
-42.0537  4.70077e+20
-41.9364  4.68204e+20
-41.8191  4.69205e+20
-41.7018  4.73136e+20
-41.5845  4.80218e+20
-41.4672  4.90118e+20
-41.3499  5.02173e+20
-41.2326  5.1563e+20
-41.1153  5.29546e+20
-40.998  5.42923e+20
-40.8807  5.54898e+20
-40.7634  5.64361e+20
-40.6461  5.70724e+20
-40.5288  5.73431e+20
-40.4115  5.72486e+20
-40.2942  5.6827e+20
-40.1769  5.61202e+20
-40.0596  5.52194e+20
-39.9423  5.42378e+20
-39.825  5.32932e+20
-39.7076  5.24966e+20
-39.5903  5.19632e+20
-39.473  5.1761e+20
-39.3557  5.1963e+20
-39.2384  5.26084e+20
-39.1211  5.37101e+20
-39.0038  5.52683e+20
-38.8865  5.72451e+20
-38.7692  5.95727e+20
-38.6519  6.2154e+20
-38.5346  6.48593e+20
-38.4173  6.75371e+20
-38.3  7.00263e+20
-38.1827  7.21781e+20
-38.0654  7.38814e+20
-37.9481  7.5078e+20
-37.8308  7.57588e+20
-37.7135  7.59881e+20
-37.5962  7.58781e+20
-37.4789  7.55514e+20
-37.3615  7.51843e+20
-37.2442  7.49046e+20
-37.1269  7.48301e+20
-37.0096  7.5028e+20
-36.8923  7.55434e+20
-36.775  7.63988e+20
-36.6577  7.75872e+20
-36.5404  7.90903e+20
-36.4231  8.08887e+20
-36.3058  8.29441e+20
-36.1885  8.52041e+20
-36.0712  8.75864e+20
-35.9539  8.9989e+20
-35.8366  9.22922e+20
-35.7193  9.4374e+20
-35.602  9.61307e+20
-35.4847  9.74721e+20
-35.3674  9.83666e+20
-35.2501  9.88344e+20
-35.1328  9.89487e+20
-35.0154  9.88148e+20
-34.8981  9.85814e+20
-34.7808  9.83586e+20
-34.6635  9.82871e+20
-34.5462  9.84387e+20
-34.4289  9.88858e+20
-34.3116  9.96664e+20
-34.1943  1.00785e+21
-34.077  1.02231e+21
-33.9597  1.03991e+21
-33.8424  1.0601e+21
-33.7251  1.08243e+21
-33.6078  1.10606e+21
-33.4905  1.13034e+21
-33.3732  1.15424e+21
-33.2559  1.177e+21
-33.1386  1.19778e+21
-33.0213  1.21618e+21
-32.904  1.232e+21
-32.7867  1.24534e+21
-32.6693  1.25667e+21
-32.552  1.26668e+21
-32.4347  1.27609e+21
-32.3174  1.28578e+21
-32.2001  1.29631e+21
-32.0828  1.30845e+21
-31.9655  1.32279e+21
-31.8482  1.33972e+21
-31.7309  1.35958e+21
-31.6136  1.38271e+21
-31.4963  1.40901e+21
-31.379  1.43849e+21
-31.2617  1.47073e+21
-31.1444  1.50527e+21
-31.0271  1.54144e+21
-30.9098  1.57845e+21
-30.7925  1.61572e+21
-30.6752  1.65253e+21
-30.5579  1.68845e+21
-30.4406  1.72325e+21
-30.3232  1.75684e+21
-30.2059  1.78958e+21
-30.0886  1.82131e+21
-29.9713  1.8527e+21
-29.854  1.88388e+21
-29.7367  1.91543e+21
-29.6194  1.94783e+21
-29.5021  1.98155e+21
-29.3848  2.01689e+21
-29.2675  2.0544e+21
-29.1502  2.09385e+21
-29.0329  2.13525e+21
-28.9156  2.17783e+21
-28.7983  2.22116e+21
-28.681  2.26389e+21
-28.5637  2.30522e+21
-28.4464  2.34405e+21
-28.3291  2.37974e+21
-28.2118  2.412e+21
-28.0944  2.44099e+21
-27.9771  2.46712e+21
-27.8598  2.49117e+21
-27.7425  2.51437e+21
-27.6252  2.53782e+21
-27.5079  2.56254e+21
-27.3906  2.58955e+21
-27.2733  2.62003e+21
-27.156  2.65469e+21
-27.0387  2.69391e+21
-26.9214  2.73827e+21
-26.8041  2.78748e+21
-26.6868  2.84125e+21
-26.5695  2.8986e+21
-26.4522  2.95824e+21
-26.3349  3.01865e+21
-26.2176  3.07775e+21
-26.1003  3.13381e+21
-25.983  3.18491e+21
-25.8657  3.22932e+21
-25.7483  3.26607e+21
-25.631  3.29438e+21
-25.5137  3.3147e+21
-25.3964  3.327e+21
-25.2791  3.33285e+21
-25.1618  3.33376e+21
-25.0445  3.33209e+21
-24.9272  3.33011e+21
-24.8099  3.33037e+21
-24.6926  3.33525e+21
-24.5753  3.34729e+21
-24.458  3.36775e+21
-24.3407  3.39801e+21
-24.2234  3.43823e+21
-24.1061  3.48837e+21
-23.9888  3.54696e+21
-23.8715  3.61253e+21
-23.7542  3.68293e+21
-23.6369  3.75595e+21
-23.5196  3.82934e+21
-23.4023  3.90129e+21
-23.2849  3.96998e+21
-23.1676  4.03421e+21
-23.0503  4.09369e+21
-22.933  4.14822e+21
-22.8157  4.19819e+21
-22.6984  4.24459e+21
-22.5811  4.28896e+21
-22.4638  4.33312e+21
-22.3465  4.37845e+21
-22.2292  4.42723e+21
-22.1119  4.48043e+21
-21.9946  4.53916e+21
-21.8773  4.60349e+21
-21.76  4.67278e+21
-21.6427  4.746e+21
-21.5254  4.82099e+21
-21.4081  4.8958e+21
-21.2908  4.96783e+21
-21.1735  5.03479e+21
-21.0561  5.09493e+21
-20.9388  5.14696e+21
-20.8215  5.19089e+21
-20.7042  5.2265e+21
-20.5869  5.25524e+21
-20.4696  5.27918e+21
-20.3523  5.30087e+21
-20.235  5.32316e+21
-20.1177  5.34932e+21
-20.0004  5.38227e+21
-19.8831  5.42531e+21
-19.7658  5.47994e+21
-19.6485  5.54786e+21
-19.5312  5.62929e+21
-19.4139  5.72349e+21
-19.2966  5.82839e+21
-19.1793  5.94118e+21
-19.062  6.05828e+21
-18.9447  6.17556e+21
-18.8274  6.28872e+21
-18.71  6.39436e+21
-18.5927  6.48894e+21
-18.4754  6.57035e+21
-18.3581  6.63784e+21
-18.2408  6.6911e+21
-18.1235  6.73169e+21
-18.0062  6.76165e+21
-17.8889  6.78415e+21
-17.7716  6.80322e+21
-17.6543  6.82195e+21
-17.537  6.84479e+21
-17.4197  6.87454e+21
-17.3024  6.91378e+21
-17.1851  6.9639e+21
-17.0678  7.02495e+21
-16.9505  7.09645e+21
-16.8332  7.17635e+21
-16.7159  7.26207e+21
-16.5986  7.35011e+21
-16.4813  7.4371e+21
-16.364  7.51973e+21
-16.2466  7.59516e+21
-16.1293  7.6621e+21
-16.012  7.71872e+21
-15.8947  7.76554e+21
-15.7774  7.80371e+21
-15.6601  7.83484e+21
-15.5428  7.86168e+21
-15.4255  7.88697e+21
-15.3082  7.91366e+21
-15.1909  7.94538e+21
-15.0736  7.98364e+21
-14.9563  8.0307e+21
-14.839  8.08732e+21
-14.7217  8.15343e+21
-14.6044  8.22774e+21
-14.4871  8.30815e+21
-14.3698  8.39194e+21
-14.2525  8.47551e+21
-14.1352  8.55522e+21
-14.0178  8.6286e+21
-13.9005  8.69278e+21
-13.7832  8.74641e+21
-13.6659  8.78971e+21
-13.5486  8.82318e+21
-13.4313  8.84929e+21
-13.314  8.87079e+21
-13.1967  8.89105e+21
-13.0794  8.91412e+21
-12.9621  8.94264e+21
-12.8448  8.98016e+21
-12.7275  9.02855e+21
-12.6102  9.08903e+21
-12.4929  9.16166e+21
-12.3756  9.24532e+21
-12.2583  9.33855e+21
-12.141  9.43871e+21
-12.0237  9.5424e+21
-11.9064  9.64594e+21
-11.7891  9.74588e+21
-11.6718  9.83859e+21
-11.5544  9.92187e+21
-11.4371  9.99419e+21
-11.3198  1.00546e+22
-11.2025  1.01038e+22
-11.0852  1.01434e+22
-10.9679  1.01756e+22
-10.8506  1.02034e+22
-10.7333  1.02295e+22
-10.616  1.02568e+22
-10.4987  1.02881e+22
-10.3814  1.03244e+22
-10.2641  1.03671e+22
-10.1468  1.04162e+22
-10.0295  1.04711e+22
-9.91217  1.05303e+22
-9.79487  1.05922e+22
-9.67756  1.06547e+22
-9.56026  1.07157e+22
-9.44295  1.07731e+22
-9.32565  1.08262e+22
-9.20834  1.0874e+22
-9.09104  1.09168e+22
-8.97373  1.09564e+22
-8.85643  1.09941e+22
-8.73913  1.10329e+22
-8.62182  1.10756e+22
-8.50452  1.11249e+22
-8.38721  1.11835e+22
-8.26991  1.12523e+22
-8.1526  1.13322e+22
-8.03529  1.14221e+22
-7.91799  1.15201e+22
-7.80069  1.16228e+22
-7.68338  1.17256e+22
-7.56608  1.18243e+22
-7.44877  1.19141e+22
-7.33146  1.19901e+22
-7.21416  1.20489e+22
-7.09685  1.20877e+22
-6.97955  1.21053e+22
-6.86224  1.21027e+22
-6.74494  1.2082e+22
-6.62763  1.20471e+22
-6.51033  1.20027e+22
-6.39302  1.19549e+22
-6.27572  1.19093e+22
-6.15842  1.18719e+22
-6.04111  1.18474e+22
-5.92381  1.18397e+22
-5.8065  1.18514e+22
-5.68919  1.18829e+22
-5.57189  1.19336e+22
-5.45458  1.2001e+22
-5.33728  1.20817e+22
-5.21997  1.21706e+22
-5.10267  1.22631e+22
-4.98536  1.23536e+22
-4.86806  1.24374e+22
-4.75075  1.25099e+22
-4.63345  1.25687e+22
-4.51614  1.2612e+22
-4.39884  1.26399e+22
-4.28154  1.26542e+22
-4.16423  1.26572e+22
-4.04692  1.26534e+22
-3.92962  1.26468e+22
-3.81231  1.26418e+22
-3.69501  1.26423e+22
-3.5777  1.26509e+22
-3.4604  1.26689e+22
-3.34309  1.26962e+22
-3.22579  1.27313e+22
-3.10849  1.27712e+22
-2.99118  1.28119e+22
-2.87387  1.28492e+22
-2.75657  1.28793e+22
-2.63926  1.28978e+22
-2.52196  1.29024e+22
-2.40465  1.28919e+22
-2.28735  1.28664e+22
-2.17005  1.28282e+22
-2.05274  1.27805e+22
-1.93544  1.27285e+22
-1.81813  1.26776e+22
-1.70083  1.26341e+22
-1.58352  1.26038e+22
-1.46622  1.2592e+22
-1.34891  1.26023e+22
-1.2316  1.26372e+22
-1.1143  1.26969e+22
-0.996995  1.27797e+22
-0.87969  1.28814e+22
-0.762385  1.29966e+22
-0.64508  1.31175e+22
-0.527775  1.32361e+22
-0.41047  1.33438e+22
-0.293165  1.34328e+22
-0.17586  1.34962e+22
-0.058555  1.35292e+22
0.05875  1.3529e+22
0.176055  1.34959e+22
0.29336  1.34324e+22
0.410665  1.33435e+22
0.52797  1.32358e+22
0.645275  1.31176e+22
0.76258  1.29971e+22
0.879885  1.28828e+22
0.99719  1.27818e+22
1.1145  1.27001e+22
1.2318  1.26414e+22
1.3491  1.26077e+22
1.46641  1.25983e+22
1.58371  1.26114e+22
1.70102  1.26428e+22
1.81832  1.26873e+22
1.93563  1.27391e+22
2.05294  1.2792e+22
2.17024  1.28403e+22
2.28754  1.28792e+22
2.40485  1.29052e+22
2.52216  1.29164e+22
2.63946  1.2912e+22
2.75677  1.2894e+22
2.87407  1.28646e+22
2.99137  1.28275e+22
3.10868  1.27872e+22
3.22599  1.27479e+22
3.34329  1.27134e+22
3.4606  1.26868e+22
3.5779  1.26691e+22
3.69521  1.26612e+22
3.81251  1.26613e+22
3.92982  1.26668e+22
4.04712  1.26737e+22
4.16443  1.2678e+22
4.28173  1.26753e+22
4.39903  1.26616e+22
4.51634  1.26341e+22
4.63364  1.25915e+22
4.75095  1.25332e+22
4.86825  1.24613e+22
4.98556  1.23785e+22
5.10286  1.22889e+22
5.22017  1.21975e+22
5.33748  1.21095e+22
5.45478  1.20303e+22
5.57209  1.19641e+22
5.68939  1.19145e+22
5.8067  1.18844e+22
5.924  1.18738e+22
6.0413  1.18825e+22
6.15861  1.19076e+22
6.27591  1.19457e+22
6.39322  1.1992e+22
6.51052  1.20402e+22
6.62783  1.20847e+22
6.74514  1.21197e+22
6.86244  1.21402e+22
6.97975  1.21425e+22
7.09705  1.21247e+22
7.21436  1.20858e+22
7.33166  1.20268e+22
7.44897  1.19508e+22
7.56627  1.18613e+22
7.68358  1.17627e+22
7.80088  1.166e+22
7.91819  1.15579e+22
8.03549  1.14607e+22
8.1528  1.13716e+22
8.2701  1.12924e+22
8.38741  1.12243e+22
8.50471  1.11667e+22
8.62202  1.11181e+22
8.73932  1.10761e+22
8.85662  1.1038e+22
8.97393  1.10008e+22
9.09123  1.09618e+22
9.20854  1.09192e+22
9.32584  1.0872e+22
9.44315  1.08191e+22
9.56045  1.07618e+22
9.67776  1.07011e+22
9.79506  1.06387e+22
9.91237  1.05771e+22
10.0297  1.05179e+22
10.147  1.04634e+22
10.2643  1.04145e+22
10.3816  1.03719e+22
10.4989  1.03359e+22
10.6162  1.03048e+22
10.7335  1.02776e+22
10.8508  1.02514e+22
10.9681  1.02236e+22
11.0854  1.01916e+22
11.2027  1.01521e+22
11.32  1.01026e+22
11.4373  1.00421e+22
11.5546  9.96977e+21
11.6719  9.88638e+21
11.7893  9.79371e+21
11.9066  9.69396e+21
12.0239  9.59062e+21
12.1412  9.48743e+21
12.2585  9.38779e+21
12.3758  9.29499e+21
12.4931  9.21166e+21
12.6104  9.13963e+21
12.7277  9.07993e+21
12.845  9.03238e+21
12.9623  8.99527e+21
13.0796  8.96711e+21
13.1969  8.94468e+21
13.3142  8.92451e+21
13.4315  8.90316e+21
13.5488  8.87716e+21
13.6661  8.84356e+21
13.7834  8.80004e+21
13.9007  8.74607e+21
14.018  8.68184e+21
14.1354  8.60817e+21
14.2527  8.52807e+21
14.37  8.44442e+21
14.4873  8.36058e+21
14.6046  8.28033e+21
14.7219  8.20604e+21
14.8392  8.14028e+21
14.9565  8.08404e+21
15.0738  8.03722e+21
15.1911  7.99935e+21
15.3084  7.96825e+21
15.4257  7.94161e+21
15.543  7.91656e+21
15.6603  7.88994e+21
15.7776  7.85901e+21
15.8949  7.82109e+21
16.0122  7.774e+21
16.1295  7.7171e+21
16.2468  7.65021e+21
16.3641  7.57433e+21
16.4815  7.49165e+21
16.5988  7.40436e+21
16.7161  7.31622e+21
16.8334  7.23063e+21
16.9507  7.15075e+21
17.068  7.07928e+21
17.1853  7.01829e+21
17.3026  6.96833e+21
17.4199  6.92947e+21
17.5372  6.90007e+21
17.6545  6.87745e+21
17.7718  6.85871e+21
17.8891  6.83986e+21
18.0064  6.8171e+21
18.1237  6.78695e+21
18.241  6.74615e+21
18.3583  6.69246e+21
18.4756  6.62449e+21
18.5929  6.54232e+21
18.7102  6.44731e+21
18.8275  6.34114e+21
18.9449  6.22722e+21
19.0622  6.1095e+21
19.1795  5.99196e+21
19.2968  5.87895e+21
19.4141  5.77379e+21
19.5314  5.6796e+21
19.6487  5.59833e+21
19.766  5.53045e+21
19.8833  5.47597e+21
20.0006  5.43331e+21
20.1179  5.40046e+21
20.2352  5.37454e+21
20.3525  5.35226e+21
20.4698  5.33074e+21
20.5871  5.30679e+21
20.7044  5.27762e+21
20.8217  5.24164e+21
20.939  5.19757e+21
21.0563  5.14484e+21
21.1736  5.08417e+21
21.291  5.01647e+21
21.4083  4.9439e+21
21.5256  4.86855e+21
21.6429  4.79294e+21
21.7602  4.7192e+21
21.8775  4.64942e+21
21.9948  4.58467e+21
22.1121  4.52573e+21
22.2294  4.47234e+21
22.3467  4.42343e+21
22.464  4.37775e+21
22.5813  4.33353e+21
22.6986  4.28885e+21
22.8159  4.24212e+21
22.9332  4.19189e+21
23.0505  4.13717e+21
23.1678  4.07728e+21
23.2851  4.01253e+21
23.4024  3.94352e+21
23.5198  3.87119e+21
23.6371  3.79728e+21
23.7544  3.72383e+21
23.8717  3.65305e+21
23.989  3.58717e+21
24.1063  3.52838e+21
24.2236  3.47811e+21
24.3409  3.43777e+21
24.4582  3.40749e+21
24.5755  3.38699e+21
24.6928  3.37517e+21
24.8101  3.37032e+21
24.9274  3.37016e+21
25.0447  3.37213e+21
25.162  3.37379e+21
25.2793  3.37277e+21
25.3966  3.36655e+21
25.5139  3.35387e+21
25.6312  3.33343e+21
25.7485  3.30443e+21
25.8658  3.26717e+21
25.9832  3.22204e+21
26.1005  3.17045e+21
26.2178  3.11373e+21
26.3351  3.05396e+21
26.4524  2.993e+21
26.5697  2.93286e+21
26.687  2.87501e+21
26.8043  2.82098e+21
26.9216  2.77149e+21
27.0389  2.72702e+21
27.1562  2.68751e+21
27.2735  2.65279e+21
27.3908  2.62217e+21
27.5081  2.59497e+21
27.6254  2.57021e+21
27.7427  2.54667e+21
27.86  2.5233e+21
27.9773  2.49892e+21
28.0946  2.4725e+21
28.212  2.44318e+21
28.3293  2.41041e+21
28.4466  2.3742e+21
28.5639  2.33488e+21
28.6812  2.29308e+21
28.7985  2.24983e+21
28.9158  2.20609e+21
29.0331  2.16301e+21
29.1504  2.12125e+21
29.2677  2.08135e+21
29.385  2.04361e+21
29.5023  2.00794e+21
29.6196  1.97394e+21
29.7369  1.94122e+21
29.8542  1.90935e+21
29.9715  1.87787e+21
30.0888  1.84611e+21
30.2061  1.81392e+21
30.3234  1.78093e+21
30.4407  1.74686e+21
30.558  1.7116e+21
30.6754  1.67522e+21
30.7927  1.63798e+21
30.91  1.60026e+21
31.0273  1.56279e+21
31.1446  1.5262e+21
31.2619  1.49131e+21
31.3792  1.45866e+21
31.4965  1.42896e+21
31.6138  1.40238e+21
31.7311  1.37912e+21
31.8484  1.35898e+21
31.9657  1.34189e+21
32.083  1.32738e+21
32.2003  1.31504e+21
32.3176  1.30436e+21
32.4349  1.2945e+21
32.5522  1.28485e+21
32.6695  1.27458e+21
32.7868  1.2629e+21
32.9042  1.24922e+21
33.0215  1.23302e+21
33.1388  1.21418e+21
33.2561  1.19298e+21
33.3734  1.16982e+21
33.4907  1.14554e+21
33.608  1.12093e+21
33.7253  1.09693e+21
33.8426  1.0744e+21
33.9599  1.05396e+21
34.0772  1.03623e+21
34.1945  1.02165e+21
34.3118  1.01036e+21
34.4291  1.00252e+21
34.5464  9.97946e+20
34.6637  9.96345e+20
34.781  9.97043e+20
34.8983  9.99134e+20
35.0156  1.00135e+21
35.1329  1.00249e+21
35.2503  1.00109e+21
35.3676  9.96065e+20
35.4849  9.86735e+20
35.6022  9.72968e+20
35.7195  9.55063e+20
35.8368  9.33892e+20
35.9541  9.10512e+20
36.0714  8.86136e+20
36.1887  8.62073e+20
36.306  8.39281e+20
36.4233  8.18549e+20
36.5406  8.00379e+20
36.6579  7.8521e+20
36.7752  7.73225e+20
36.8925  7.64623e+20
37.0098  7.59387e+20
37.1271  7.57353e+20
37.2444  7.58054e+20
37.3617  7.60749e+20
37.479  7.64263e+20
37.5964  7.67259e+20
37.7137  7.68179e+20
37.831  7.65515e+20
37.9483  7.58372e+20
38.0656  7.45976e+20
38.1829  7.2853e+20
38.3002  7.0666e+20
38.4175  6.81406e+20
38.5348  6.5435e+20
38.6521  6.27066e+20
38.7694  6.01051e+20
38.8867  5.77678e+20
39.004  5.57837e+20
39.1213  5.42249e+20
39.2386  5.31143e+20
39.3559  5.24704e+20
39.4732  5.22718e+20
39.5905  5.2471e+20
39.7078  5.30054e+20
39.8251  5.37997e+20
39.9425  5.47395e+20
40.0598  5.57019e+20
40.1771  5.65863e+20
40.2944  5.72787e+20
40.4117  5.76827e+20
40.529  5.77491e+20
40.6463  5.74497e+20
40.7636  5.67877e+20
40.8809  5.58129e+20
40.9982  5.46089e+20
41.1155  5.32498e+20
41.2328  5.18452e+20
41.3501  5.04922e+20
41.4674  4.92901e+20
41.5847  4.83055e+20
41.702  4.75961e+20
41.8193  4.72052e+20
41.9366  4.71138e+20
42.0539  4.73056e+20
42.1712  4.77152e+20
42.2885  4.82503e+20
42.4059  4.88233e+20
42.5232  4.93287e+20
42.6405  4.97008e+20
42.7578  4.98542e+20
42.8751  4.97924e+20
42.9924  4.95234e+20
43.1097  4.9066e+20
43.227  4.8493e+20
43.3443  4.78698e+20
43.4616  4.72613e+20
43.5789  4.67299e+20
43.6962  4.6306e+20
43.8135  4.60264e+20
43.9308  4.5897e+20
44.0481  4.59273e+20
44.1654  4.61144e+20
44.2827  4.64238e+20
44.4  4.6821e+20
44.5173  4.72524e+20
44.6347  4.76499e+20
44.752  4.79093e+20
44.8693  4.79834e+20
44.9866  4.77743e+20
45.1039  4.72288e+20
45.2212  4.6331e+20
45.3385  4.51018e+20
45.4558  4.35947e+20
45.5731  4.18926e+20
45.6904  4.01208e+20
45.8077  3.838e+20
45.925  3.67899e+20
46.0423  3.54296e+20
46.1596  3.43857e+20
46.2769  3.36906e+20
46.3942  3.33793e+20
46.5115  3.34791e+20
46.6288  3.39685e+20
46.7461  3.48487e+20
46.8634  3.60846e+20
46.9808  3.75992e+20
47.0981  3.93508e+20
47.2154  4.1213e+20
47.3327  4.30978e+20
47.45  4.4856e+20
47.5673  4.63899e+20
47.6846  4.76064e+20
47.8019  4.84205e+20
47.9192  4.88028e+20
48.0365  4.87541e+20
48.1538  4.83097e+20
48.2711  4.75366e+20
48.3884  4.65027e+20
48.5057  4.53041e+20
48.623  4.40327e+20
48.7403  4.27765e+20
48.8576  4.16108e+20
48.9749  4.05906e+20
49.0922  3.97449e+20
49.2095  3.90872e+20
49.3269  3.86241e+20
49.4442  3.83192e+20
49.5615  3.81664e+20
49.6788  3.81044e+20
49.7961  3.81088e+20
49.9134  3.81365e+20
50.0307  3.81833e+20
50.148  3.8241e+20
50.2653  3.82943e+20
50.3826  3.83578e+20
50.4999  3.84317e+20
50.6172  3.85209e+20
50.7345  3.86191e+20
50.8518  3.87326e+20
