#S 1 spectral density
#N 2
#UFWHM 30.7339
#L  abscissas [um]  spectral density
-58.5938  2.01546e+20
-58.4764  2.1196e+20
-58.3591  2.22075e+20
-58.2418  2.30968e+20
-58.1245  2.38009e+20
-58.0072  2.42958e+20
-57.8899  2.45563e+20
-57.7726  2.46074e+20
-57.6553  2.44653e+20
-57.538  2.4166e+20
-57.4207  2.37318e+20
-57.3034  2.3177e+20
-57.1861  2.25115e+20
-57.0688  2.17608e+20
-56.9515  2.09386e+20
-56.8342  2.00893e+20
-56.7169  1.92685e+20
-56.5996  1.85238e+20
-56.4823  1.79229e+20
-56.365  1.75033e+20
-56.2477  1.72875e+20
-56.1303  1.72813e+20
-56.013  1.74707e+20
-55.8957  1.7838e+20
-55.7784  1.83466e+20
-55.6611  1.89844e+20
-55.5438  1.97369e+20
-55.4265  2.05916e+20
-55.3092  2.15372e+20
-55.1919  2.25484e+20
-55.0746  2.35932e+20
-54.9573  2.4622e+20
-54.84  2.5577e+20
-54.7227  2.63936e+20
-54.6054  2.7028e+20
-54.4881  2.74509e+20
-54.3708  2.76532e+20
-54.2535  2.76422e+20
-54.1362  2.74452e+20
-54.0189  2.70969e+20
-53.9016  2.66292e+20
-53.7842  2.60737e+20
-53.6669  2.54731e+20
-53.5496  2.48504e+20
-53.4323  2.42436e+20
-53.315  2.3704e+20
-53.1977  2.32729e+20
-53.0804  2.30024e+20
-52.9631  2.29224e+20
-52.8458  2.30576e+20
-52.7285  2.33948e+20
-52.6112  2.39023e+20
-52.4939  2.45177e+20
-52.3766  2.51869e+20
-52.2593  2.58381e+20
-52.142  2.64313e+20
-52.0247  2.69395e+20
-51.9074  2.73661e+20
-51.7901  2.77394e+20
-51.6728  2.80867e+20
-51.5555  2.84492e+20
-51.4381  2.8865e+20
-51.3208  2.93536e+20
-51.2035  2.99406e+20
-51.0862  3.06141e+20
-50.9689  3.13911e+20
-50.8516  3.22665e+20
-50.7343  3.32399e+20
-50.617  3.4302e+20
-50.4997  3.54372e+20
-50.3824  3.66212e+20
-50.2651  3.78146e+20
-50.1478  3.89529e+20
-50.0305  3.9976e+20
-49.9132  4.07987e+20
-49.7959  4.13759e+20
-49.6786  4.1659e+20
-49.5613  4.16191e+20
-49.444  4.12574e+20
-49.3267  4.06084e+20
-49.2094  3.97119e+20
-49.092  3.86477e+20
-48.9747  3.74932e+20
-48.8574  3.63352e+20
-48.7401  3.52554e+20
-48.6228  3.43352e+20
-48.5055  3.3634e+20
-48.3882  3.31943e+20
-48.2709  3.30334e+20
-48.1536  3.31524e+20
-48.0363  3.3521e+20
-47.919  3.40954e+20
-47.8017  3.48188e+20
-47.6844  3.56322e+20
-47.5671  3.6472e+20
-47.4498  3.72911e+20
-47.3325  3.80469e+20
-47.2152  3.87099e+20
-47.0979  3.92544e+20
-46.9806  3.96551e+20
-46.8633  3.98952e+20
-46.7459  3.99831e+20
-46.6286  3.9914e+20
-46.5113  3.97164e+20
-46.394  3.94109e+20
-46.2767  3.9069e+20
-46.1594  3.87532e+20
-46.0421  3.85228e+20
-45.9248  3.84318e+20
-45.8075  3.85132e+20
-45.6902  3.87648e+20
-45.5729  3.91674e+20
-45.4556  3.96482e+20
-45.3383  4.01483e+20
-45.221  4.05715e+20
-45.1037  4.0869e+20
-44.9864  4.10069e+20
-44.8691  4.09543e+20
-44.7518  4.07226e+20
-44.6345  4.03533e+20
-44.5172  3.98952e+20
-44.3998  3.94095e+20
-44.2825  3.89634e+20
-44.1652  3.86123e+20
-44.0479  3.84294e+20
-43.9306  3.8465e+20
-43.8133  3.8767e+20
-43.696  3.93825e+20
-43.5787  4.03257e+20
-43.4614  4.15941e+20
-43.3441  4.31529e+20
-43.2268  4.49338e+20
-43.1095  4.68375e+20
-42.9922  4.87356e+20
-42.8749  5.04953e+20
-42.7576  5.19941e+20
-42.6403  5.31284e+20
-42.523  5.38373e+20
-42.4057  5.40915e+20
-42.2884  5.3903e+20
-42.171  5.33226e+20
-42.0537  5.24566e+20
-41.9364  5.13913e+20
-41.8191  5.02449e+20
-41.7018  4.91091e+20
-41.5845  4.80953e+20
-41.4672  4.72863e+20
-41.3499  4.67422e+20
-41.2326  4.64933e+20
-41.1153  4.65571e+20
-40.998  4.69082e+20
-40.8807  4.75053e+20
-40.7634  4.82722e+20
-40.6461  4.91222e+20
-40.5288  4.99592e+20
-40.4115  5.07011e+20
-40.2942  5.12939e+20
-40.1769  5.1664e+20
-40.0596  5.17894e+20
-39.9423  5.16627e+20
-39.825  5.13188e+20
-39.7076  5.07866e+20
-39.5903  5.01246e+20
-39.473  4.93856e+20
-39.3557  4.86627e+20
-39.2384  4.80236e+20
-39.1211  4.75411e+20
-39.0038  4.73128e+20
-38.8865  4.73791e+20
-38.7692  4.77674e+20
-38.6519  4.84743e+20
-38.5346  4.94459e+20
-38.4173  5.05895e+20
-38.3  5.17794e+20
-38.1827  5.28898e+20
-38.0654  5.37981e+20
-37.9481  5.44148e+20
-37.8308  5.46994e+20
-37.7135  5.46533e+20
-37.5962  5.43248e+20
-37.4789  5.37912e+20
-37.3615  5.31696e+20
-37.2442  5.25502e+20
-37.1269  5.20124e+20
-37.0096  5.16172e+20
-36.8923  5.14053e+20
-36.775  5.14106e+20
-36.6577  5.16539e+20
-36.5404  5.21368e+20
-36.4231  5.28778e+20
-36.3058  5.38609e+20
-36.1885  5.50585e+20
-36.0712  5.64125e+20
-35.9539  5.78224e+20
-35.8366  5.91853e+20
-35.7193  6.03515e+20
-35.602  6.12208e+20
-35.4847  6.16725e+20
-35.3674  6.16619e+20
-35.2501  6.11753e+20
-35.1328  6.02875e+20
-35.0154  5.90896e+20
-34.8981  5.77085e+20
-34.7808  5.62742e+20
-34.6635  5.49342e+20
-34.5462  5.37874e+20
-34.4289  5.29191e+20
-34.3116  5.24162e+20
-34.1943  5.23091e+20
-34.077  5.26191e+20
-33.9597  5.33611e+20
-33.8424  5.45175e+20
-33.7251  5.60609e+20
-33.6078  5.79227e+20
-33.4905  6.00363e+20
-33.3732  6.23064e+20
-33.2559  6.46306e+20
-33.1386  6.69202e+20
-33.0213  6.90903e+20
-32.904  7.10893e+20
-32.7867  7.28886e+20
-32.6693  7.44843e+20
-32.552  7.58986e+20
-32.4347  7.71438e+20
-32.3174  7.82623e+20
-32.2001  7.9263e+20
-32.0828  8.01713e+20
-31.9655  8.10181e+20
-31.8482  8.18085e+20
-31.7309  8.25619e+20
-31.6136  8.33019e+20
-31.4963  8.40353e+20
-31.379  8.47838e+20
-31.2617  8.55438e+20
-31.1444  8.63302e+20
-31.0271  8.7125e+20
-30.9098  8.79342e+20
-30.7925  8.87548e+20
-30.6752  8.96e+20
-30.5579  9.04891e+20
-30.4406  9.14591e+20
-30.3232  9.2555e+20
-30.2059  9.38093e+20
-30.0886  9.52435e+20
-29.9713  9.68929e+20
-29.854  9.87496e+20
-29.7367  1.00816e+21
-29.6194  1.03086e+21
-29.5021  1.05539e+21
-29.3848  1.08138e+21
-29.2675  1.10872e+21
-29.1502  1.13682e+21
-29.0329  1.16526e+21
-28.9156  1.19332e+21
-28.7983  1.22046e+21
-28.681  1.24596e+21
-28.5637  1.26922e+21
-28.4464  1.29004e+21
-28.3291  1.30841e+21
-28.2118  1.32479e+21
-28.0944  1.34001e+21
-27.9771  1.35486e+21
-27.8598  1.37061e+21
-27.7425  1.38818e+21
-27.6252  1.40849e+21
-27.5079  1.4319e+21
-27.3906  1.4586e+21
-27.2733  1.48861e+21
-27.156  1.52148e+21
-27.0387  1.55651e+21
-26.9214  1.59316e+21
-26.8041  1.63037e+21
-26.6868  1.66743e+21
-26.5695  1.7034e+21
-26.4522  1.73738e+21
-26.3349  1.76875e+21
-26.2176  1.79683e+21
-26.1003  1.82147e+21
-25.983  1.84271e+21
-25.8657  1.86099e+21
-25.7483  1.87698e+21
-25.631  1.89194e+21
-25.5137  1.90723e+21
-25.3964  1.92401e+21
-25.2791  1.94395e+21
-25.1618  1.96824e+21
-25.0445  1.99811e+21
-24.9272  2.03442e+21
-24.8099  2.0778e+21
-24.6926  2.12833e+21
-24.5753  2.18619e+21
-24.458  2.25037e+21
-24.3407  2.32019e+21
-24.2234  2.39414e+21
-24.1061  2.47081e+21
-23.9888  2.54826e+21
-23.8715  2.62474e+21
-23.7542  2.69856e+21
-23.6369  2.76838e+21
-23.5196  2.83299e+21
-23.4023  2.89209e+21
-23.2849  2.94501e+21
-23.1676  2.99209e+21
-23.0503  3.03371e+21
-22.933  3.07066e+21
-22.8157  3.10363e+21
-22.6984  3.13359e+21
-22.5811  3.16194e+21
-22.4638  3.19004e+21
-22.3465  3.21895e+21
-22.2292  3.25043e+21
-22.1119  3.28538e+21
-21.9946  3.32507e+21
-21.8773  3.37014e+21
-21.76  3.42077e+21
-21.6427  3.47726e+21
-21.5254  3.53908e+21
-21.4081  3.60587e+21
-21.2908  3.67674e+21
-21.1735  3.75096e+21
-21.0561  3.8275e+21
-20.9388  3.90564e+21
-20.8215  3.98489e+21
-20.7042  4.06396e+21
-20.5869  4.14248e+21
-20.4696  4.21972e+21
-20.3523  4.29518e+21
-20.235  4.3681e+21
-20.1177  4.43841e+21
-20.0004  4.50571e+21
-19.8831  4.57055e+21
-19.7658  4.63254e+21
-19.6485  4.69261e+21
-19.5312  4.75109e+21
-19.4139  4.80884e+21
-19.2966  4.86613e+21
-19.1793  4.92371e+21
-19.062  4.98206e+21
-18.9447  5.04141e+21
-18.8274  5.10196e+21
-18.71  5.16438e+21
-18.5927  5.22837e+21
-18.4754  5.29417e+21
-18.3581  5.36218e+21
-18.2408  5.43217e+21
-18.1235  5.50428e+21
-18.0062  5.57826e+21
-17.8889  5.65428e+21
-17.7716  5.73262e+21
-17.6543  5.81282e+21
-17.537  5.89567e+21
-17.4197  5.98119e+21
-17.3024  6.06991e+21
-17.1851  6.16229e+21
-17.0678  6.25838e+21
-16.9505  6.359e+21
-16.8332  6.46407e+21
-16.7159  6.57382e+21
-16.5986  6.68774e+21
-16.4813  6.80525e+21
-16.364  6.9255e+21
-16.2466  7.04722e+21
-16.1293  7.16964e+21
-16.012  7.29021e+21
-15.8947  7.40753e+21
-15.7774  7.51957e+21
-15.6601  7.62444e+21
-15.5428  7.72002e+21
-15.4255  7.80483e+21
-15.3082  7.87777e+21
-15.1909  7.93903e+21
-15.0736  7.98828e+21
-14.9563  8.02734e+21
-14.839  8.05801e+21
-14.7217  8.08332e+21
-14.6044  8.10607e+21
-14.4871  8.13004e+21
-14.3698  8.15869e+21
-14.2525  8.19497e+21
-14.1352  8.24149e+21
-14.0178  8.3011e+21
-13.9005  8.37479e+21
-13.7832  8.46309e+21
-13.6659  8.56647e+21
-13.5486  8.68348e+21
-13.4313  8.8124e+21
-13.314  8.95058e+21
-13.1967  9.09452e+21
-13.0794  9.24113e+21
-12.9621  9.38569e+21
-12.8448  9.52526e+21
-12.7275  9.65619e+21
-12.6102  9.77613e+21
-12.4929  9.88368e+21
-12.3756  9.97799e+21
-12.2583  1.00603e+22
-12.141  1.01321e+22
-12.0237  1.0196e+22
-11.9064  1.02547e+22
-11.7891  1.03113e+22
-11.6718  1.03689e+22
-11.5544  1.043e+22
-11.4371  1.04975e+22
-11.3198  1.0572e+22
-11.2025  1.06544e+22
-11.0852  1.07444e+22
-10.9679  1.08409e+22
-10.8506  1.09417e+22
-10.7333  1.1044e+22
-10.616  1.1145e+22
-10.4987  1.12422e+22
-10.3814  1.13319e+22
-10.2641  1.14124e+22
-10.1468  1.14826e+22
-10.0295  1.1542e+22
-9.91217  1.15914e+22
-9.79487  1.16327e+22
-9.67756  1.16688e+22
-9.56026  1.17029e+22
-9.44295  1.17386e+22
-9.32565  1.17801e+22
-9.20834  1.18307e+22
-9.09104  1.18931e+22
-8.97373  1.19703e+22
-8.85643  1.20629e+22
-8.73913  1.21716e+22
-8.62182  1.22954e+22
-8.50452  1.2432e+22
-8.38721  1.25792e+22
-8.26991  1.27323e+22
-8.1526  1.28878e+22
-8.03529  1.30407e+22
-7.91799  1.31869e+22
-7.80069  1.33223e+22
-7.68338  1.34434e+22
-7.56608  1.35483e+22
-7.44877  1.3636e+22
-7.33146  1.37065e+22
-7.21416  1.37606e+22
-7.09685  1.38007e+22
-6.97955  1.38296e+22
-6.86224  1.38506e+22
-6.74494  1.38679e+22
-6.62763  1.38846e+22
-6.51033  1.39039e+22
-6.39302  1.39285e+22
-6.27572  1.39597e+22
-6.15842  1.39985e+22
-6.04111  1.40442e+22
-5.92381  1.40961e+22
-5.8065  1.41529e+22
-5.68919  1.42123e+22
-5.57189  1.42723e+22
-5.45458  1.43313e+22
-5.33728  1.43877e+22
-5.21997  1.44403e+22
-5.10267  1.44889e+22
-4.98536  1.45331e+22
-4.86806  1.45736e+22
-4.75075  1.46107e+22
-4.63345  1.46463e+22
-4.51614  1.46812e+22
-4.39884  1.47168e+22
-4.28154  1.47551e+22
-4.16423  1.47965e+22
-4.04692  1.48428e+22
-3.92962  1.48943e+22
-3.81231  1.49511e+22
-3.69501  1.5013e+22
-3.5777  1.50788e+22
-3.4604  1.51473e+22
-3.34309  1.52164e+22
-3.22579  1.52842e+22
-3.10849  1.53485e+22
-2.99118  1.54071e+22
-2.87387  1.54587e+22
-2.75657  1.55024e+22
-2.63926  1.55371e+22
-2.52196  1.55629e+22
-2.40465  1.55806e+22
-2.28735  1.55908e+22
-2.17005  1.55949e+22
-2.05274  1.55945e+22
-1.93544  1.55913e+22
-1.81813  1.55866e+22
-1.70083  1.5582e+22
-1.58352  1.55784e+22
-1.46622  1.55771e+22
-1.34891  1.55782e+22
-1.2316  1.55828e+22
-1.1143  1.55908e+22
-0.996995  1.56021e+22
-0.87969  1.56161e+22
-0.762385  1.56325e+22
-0.64508  1.565e+22
-0.527775  1.56675e+22
-0.41047  1.56839e+22
-0.293165  1.56976e+22
-0.17586  1.57078e+22
-0.058555  1.57134e+22
0.05875  1.57138e+22
0.176055  1.57093e+22
0.29336  1.57001e+22
0.410665  1.56876e+22
0.52797  1.56721e+22
0.645275  1.56556e+22
0.76258  1.56391e+22
0.879885  1.5624e+22
0.99719  1.56108e+22
1.1145  1.56007e+22
1.2318  1.55937e+22
1.3491  1.55901e+22
1.46641  1.55896e+22
1.58371  1.55918e+22
1.70102  1.5596e+22
1.81832  1.56015e+22
1.93563  1.56068e+22
2.05294  1.56106e+22
2.17024  1.56113e+22
2.28754  1.56075e+22
2.40485  1.55978e+22
2.52216  1.55805e+22
2.63946  1.5555e+22
2.75677  1.55209e+22
2.87407  1.54779e+22
2.99137  1.5427e+22
3.10868  1.53691e+22
3.22599  1.53059e+22
3.34329  1.52392e+22
3.4606  1.51714e+22
3.5779  1.51041e+22
3.69521  1.50398e+22
3.81251  1.49793e+22
3.92982  1.4924e+22
4.04712  1.48739e+22
4.16443  1.4829e+22
4.28173  1.47887e+22
4.39903  1.47518e+22
4.51634  1.47174e+22
4.63364  1.46837e+22
4.75095  1.4649e+22
4.86825  1.46125e+22
4.98556  1.45729e+22
5.10286  1.45294e+22
5.22017  1.44815e+22
5.33748  1.44293e+22
5.45478  1.43738e+22
5.57209  1.43156e+22
5.68939  1.4256e+22
5.8067  1.41976e+22
5.924  1.41417e+22
6.0413  1.40906e+22
6.15861  1.40455e+22
6.27591  1.40077e+22
6.39322  1.39774e+22
6.51052  1.39538e+22
6.62783  1.39352e+22
6.74514  1.39191e+22
6.86244  1.39023e+22
6.97975  1.38813e+22
7.09705  1.38528e+22
7.21436  1.38127e+22
7.33166  1.37585e+22
7.44897  1.36883e+22
7.56627  1.36006e+22
7.68358  1.34956e+22
7.80088  1.33744e+22
7.91819  1.32392e+22
8.03549  1.30934e+22
8.1528  1.29412e+22
8.2701  1.27862e+22
8.38741  1.26337e+22
8.50471  1.24877e+22
8.62202  1.23518e+22
8.73932  1.2229e+22
8.85662  1.21214e+22
8.97393  1.20296e+22
9.09123  1.19533e+22
9.20854  1.18914e+22
9.32584  1.18417e+22
9.44315  1.18004e+22
9.56045  1.17648e+22
9.67776  1.17308e+22
9.79506  1.16945e+22
9.91237  1.16529e+22
10.0297  1.16031e+22
10.147  1.15435e+22
10.2643  1.14733e+22
10.3816  1.13923e+22
10.4989  1.13025e+22
10.6162  1.12056e+22
10.7335  1.11047e+22
10.8508  1.10026e+22
10.9681  1.09024e+22
11.0854  1.08068e+22
11.2027  1.07176e+22
11.32  1.06359e+22
11.4373  1.05621e+22
11.5546  1.04956e+22
11.6719  1.04348e+22
11.7893  1.03777e+22
11.9066  1.03214e+22
12.0239  1.02629e+22
12.1412  1.01991e+22
12.2585  1.01271e+22
12.3758  1.00443e+22
12.4931  9.94924e+21
12.6104  9.8412e+21
12.7277  9.72089e+21
12.845  9.58968e+21
12.9623  9.44959e+21
13.0796  9.3046e+21
13.1969  9.15808e+21
13.3142  9.01391e+21
13.4315  8.87582e+21
13.5488  8.74726e+21
13.6661  8.63064e+21
13.7834  8.52771e+21
13.9007  8.43968e+21
14.018  8.36683e+21
14.1354  8.3076e+21
14.2527  8.2613e+21
14.37  8.22543e+21
14.4873  8.19707e+21
14.6046  8.17325e+21
14.7219  8.15034e+21
14.8392  8.12506e+21
14.9565  8.09424e+21
15.0738  8.05478e+21
15.1911  8.00509e+21
15.3084  7.94352e+21
15.4257  7.87e+21
15.543  7.78466e+21
15.6603  7.68857e+21
15.7776  7.58346e+21
15.8949  7.47109e+21
16.0122  7.35311e+21
16.1295  7.23201e+21
16.2468  7.10951e+21
16.3641  6.98712e+21
16.4815  6.86653e+21
16.5988  6.74857e+21
16.7161  6.6343e+21
16.8334  6.52416e+21
16.9507  6.41868e+21
17.068  6.31749e+21
17.1853  6.22081e+21
17.3026  6.128e+21
17.4199  6.03905e+21
17.5372  5.95325e+21
17.6545  5.87002e+21
17.7718  5.78935e+21
17.8891  5.71096e+21
18.0064  5.63452e+21
18.1237  5.56024e+21
18.241  5.48808e+21
18.3583  5.41791e+21
18.4756  5.34975e+21
18.5929  5.28359e+21
18.7102  5.21961e+21
18.8275  5.15698e+21
18.9449  5.09598e+21
19.0622  5.03635e+21
19.1795  4.97763e+21
19.2968  4.91971e+21
19.4141  4.86191e+21
19.5314  4.80377e+21
19.6487  4.74483e+21
19.766  4.68417e+21
19.8833  4.62151e+21
20.0006  4.55624e+21
20.1179  4.48828e+21
20.2352  4.41741e+21
20.3525  4.34368e+21
20.4698  4.26778e+21
20.5871  4.18995e+21
20.7044  4.11065e+21
20.8217  4.03089e+21
20.939  3.95128e+21
21.0563  3.87238e+21
21.1736  3.7953e+21
21.291  3.72057e+21
21.4083  3.64924e+21
21.5256  3.58199e+21
21.6429  3.51983e+21
21.7602  3.46294e+21
21.8775  3.41195e+21
21.9948  3.36666e+21
22.1121  3.32688e+21
22.2294  3.29175e+21
22.3467  3.26015e+21
22.464  3.2309e+21
22.5813  3.20274e+21
22.6986  3.17392e+21
22.8159  3.14353e+21
22.9332  3.11023e+21
23.0505  3.07287e+21
23.1678  3.03061e+21
23.2851  2.98282e+21
23.4024  2.92915e+21
23.5198  2.86935e+21
23.6371  2.80371e+21
23.7544  2.73304e+21
23.8717  2.65825e+21
23.989  2.58095e+21
24.1063  2.50271e+21
24.2236  2.4253e+21
24.3409  2.35069e+21
24.4582  2.2803e+21
24.5755  2.2156e+21
24.6928  2.1575e+21
24.8101  2.10659e+21
24.9274  2.06304e+21
25.0447  2.02642e+21
25.162  1.99644e+21
25.2793  1.97197e+21
25.3966  1.95173e+21
25.5139  1.93466e+21
25.6312  1.91922e+21
25.7485  1.90382e+21
25.8658  1.88737e+21
25.9832  1.86863e+21
26.1005  1.84691e+21
26.2178  1.82168e+21
26.3351  1.793e+21
26.4524  1.76108e+21
26.5697  1.72649e+21
26.687  1.68998e+21
26.8043  1.65246e+21
26.9216  1.61473e+21
27.0389  1.57774e+21
27.1562  1.54224e+21
27.2735  1.50907e+21
27.3908  1.47866e+21
27.5081  1.45164e+21
27.6254  1.42797e+21
27.7427  1.40743e+21
27.86  1.38952e+21
27.9773  1.3734e+21
28.0946  1.35808e+21
28.212  1.34256e+21
28.3293  1.32566e+21
28.4466  1.3068e+21
28.5639  1.28547e+21
28.6812  1.26175e+21
28.7985  1.23583e+21
28.9158  1.20825e+21
29.0331  1.17976e+21
29.1504  1.15095e+21
29.2677  1.1225e+21
29.385  1.09492e+21
29.5023  1.06858e+21
29.6196  1.04384e+21
29.7369  1.02088e+21
29.8542  9.99992e+20
29.9715  9.81211e+20
30.0888  9.64465e+20
30.2061  9.49799e+20
30.3234  9.37069e+20
30.4407  9.25905e+20
30.558  9.15919e+20
30.6754  9.06756e+20
30.7927  8.9801e+20
30.91  8.89559e+20
31.0273  8.81188e+20
31.1446  8.72973e+20
31.2619  8.64921e+20
31.3792  8.56975e+20
31.4965  8.49272e+20
31.6138  8.41702e+20
31.7311  8.34078e+20
31.8484  8.26228e+20
31.9657  8.18034e+20
32.083  8.09329e+20
32.2003  7.99899e+20
32.3176  7.89604e+20
32.4349  7.78156e+20
32.5522  7.6533e+20
32.6695  7.50845e+20
32.7868  7.34479e+20
32.9042  7.16211e+20
33.0215  6.95841e+20
33.1388  6.73849e+20
33.2561  6.50689e+20
33.3734  6.27224e+20
33.4907  6.04388e+20
33.608  5.83141e+20
33.7253  5.64409e+20
33.8426  5.48982e+20
33.9599  5.37413e+20
34.0772  5.30019e+20
34.1945  5.26923e+20
34.3118  5.28015e+20
34.4291  5.33134e+20
34.5464  5.41761e+20
34.6637  5.53243e+20
34.781  5.66613e+20
34.8983  5.80753e+20
35.0156  5.94426e+20
35.1329  6.06331e+20
35.2503  6.14973e+20
35.3676  6.19522e+20
35.4849  6.19339e+20
35.6022  6.14632e+20
35.7195  6.05782e+20
35.8368  5.93898e+20
35.9541  5.8026e+20
36.0714  5.65993e+20
36.1887  5.52445e+20
36.306  5.40522e+20
36.4233  5.30675e+20
36.5406  5.23291e+20
36.6579  5.18393e+20
36.7752  5.16068e+20
36.8925  5.15971e+20
37.0098  5.18039e+20
37.1271  5.21967e+20
37.2444  5.27276e+20
37.3617  5.334e+20
37.479  5.39514e+20
37.5964  5.44654e+20
37.7137  5.47797e+20
37.831  5.48061e+20
37.9483  5.45068e+20
38.0656  5.3869e+20
38.1829  5.29483e+20
38.3002  5.18346e+20
38.4175  5.06358e+20
38.5348  4.94971e+20
38.6521  4.85352e+20
38.7694  4.78369e+20
38.8867  4.74615e+20
39.004  4.7402e+20
39.1213  4.76522e+20
39.2386  4.8133e+20
39.3559  4.87826e+20
39.4732  4.95134e+20
39.5905  5.02436e+20
39.7078  5.09003e+20
39.8251  5.14366e+20
39.9425  5.17742e+20
40.0598  5.1882e+20
40.1771  5.17439e+20
40.2944  5.13727e+20
40.4117  5.07776e+20
40.529  5.00205e+20
40.6463  4.91836e+20
40.7636  4.83301e+20
40.8809  4.75644e+20
40.9982  4.69837e+20
41.1155  4.66373e+20
41.2328  4.6588e+20
41.3501  4.68449e+20
41.4674  4.74094e+20
41.5847  4.8229e+20
41.702  4.92485e+20
41.8193  5.03899e+20
41.9366  5.15421e+20
42.0539  5.26059e+20
42.1712  5.34745e+20
42.2885  5.4034e+20
42.4059  5.42175e+20
42.5232  5.39493e+20
42.6405  5.3233e+20
42.7578  5.2078e+20
42.8751  5.05654e+20
42.9924  4.88022e+20
43.1097  4.68974e+20
43.227  4.49949e+20
43.3443  4.32193e+20
43.4616  4.16647e+20
43.5789  4.04082e+20
43.6962  3.94704e+20
43.8135  3.88722e+20
43.9308  3.85741e+20
44.0481  3.85495e+20
44.1654  3.87439e+20
44.2827  3.90984e+20
44.4  3.95496e+20
44.5173  4.00419e+20
44.6347  4.05027e+20
44.752  4.08658e+20
44.8693  4.10979e+20
44.9866  4.11521e+20
45.1039  4.10179e+20
45.2212  4.07093e+20
45.3385  4.02835e+20
45.4558  3.97882e+20
45.5731  3.93061e+20
45.6904  3.89167e+20
45.8077  3.86663e+20
45.925  3.85935e+20
46.0423  3.86902e+20
46.1596  3.89262e+20
46.2769  3.92496e+20
46.3942  3.95862e+20
46.5115  3.98871e+20
46.6288  4.00834e+20
46.7461  4.01492e+20
46.8634  4.00615e+20
46.9808  3.98052e+20
47.0981  3.94057e+20
47.2154  3.88562e+20
47.3327  3.81958e+20
47.45  3.74306e+20
47.5673  3.66077e+20
47.6846  3.577e+20
47.8019  3.49589e+20
47.9192  3.42385e+20
48.0365  3.36717e+20
48.1538  3.33128e+20
48.2711  3.32073e+20
48.3884  3.33773e+20
48.5057  3.38299e+20
48.623  3.45433e+20
48.7403  3.5475e+20
48.8576  3.65624e+20
48.9749  3.77268e+20
49.0922  3.8884e+20
49.2095  3.99446e+20
49.3269  4.08385e+20
49.4442  4.14762e+20
49.5615  4.18301e+20
49.6788  4.18626e+20
49.7961  4.15719e+20
49.9134  4.09835e+20
50.0307  4.01451e+20
50.148  3.91203e+20
50.2653  3.79756e+20
50.3826  3.67816e+20
50.4999  3.55936e+20
50.6172  3.44581e+20
50.7345  3.33965e+20
50.8518  3.2425e+20
