#S 1 spectral density
#N 2
#UFWHM 34.7223
#L  abscissas [um]  spectral density
-58.5938  2.87614e+20
-58.4764  2.93143e+20
-58.3591  3.01922e+20
-58.2418  3.13126e+20
-58.1245  3.25598e+20
-58.0072  3.3832e+20
-57.8899  3.50337e+20
-57.7726  3.60633e+20
-57.6553  3.68519e+20
-57.538  3.73345e+20
-57.4207  3.74575e+20
-57.3034  3.71959e+20
-57.1861  3.65523e+20
-57.0688  3.55802e+20
-56.9515  3.43717e+20
-56.8342  3.30637e+20
-56.7169  3.18264e+20
-56.5996  3.08299e+20
-56.4823  3.0216e+20
-56.365  3.0085e+20
-56.2477  3.04718e+20
-56.1303  3.13186e+20
-56.013  3.25213e+20
-55.8957  3.39218e+20
-55.7784  3.53607e+20
-55.6611  3.66752e+20
-55.5438  3.77469e+20
-55.4265  3.85085e+20
-55.3092  3.89513e+20
-55.1919  3.91185e+20
-55.0746  3.90862e+20
-54.9573  3.89613e+20
-54.84  3.88606e+20
-54.7227  3.89068e+20
-54.6054  3.91855e+20
-54.4881  3.97665e+20
-54.3708  4.06643e+20
-54.2535  4.18688e+20
-54.1362  4.33081e+20
-54.0189  4.48727e+20
-53.9016  4.63865e+20
-53.7842  4.77108e+20
-53.6669  4.86603e+20
-53.5496  4.91447e+20
-53.4323  4.90996e+20
-53.315  4.85425e+20
-53.1977  4.75724e+20
-53.0804  4.63178e+20
-52.9631  4.49675e+20
-52.8458  4.36905e+20
-52.7285  4.26316e+20
-52.6112  4.18819e+20
-52.4939  4.14732e+20
-52.3766  4.1382e+20
-52.2593  4.15296e+20
-52.142  4.18151e+20
-52.0247  4.2117e+20
-51.9074  4.23392e+20
-51.7901  4.23835e+20
-51.6728  4.21975e+20
-51.5555  4.17551e+20
-51.4381  4.10358e+20
-51.3208  4.0083e+20
-51.2035  3.89329e+20
-51.0862  3.76853e+20
-50.9689  3.64285e+20
-50.8516  3.52764e+20
-50.7343  3.43624e+20
-50.617  3.37866e+20
-50.4997  3.36365e+20
-50.3824  3.39532e+20
-50.2651  3.47251e+20
-50.1478  3.59108e+20
-50.0305  3.7395e+20
-49.9132  3.90677e+20
-49.7959  4.07708e+20
-49.6786  4.236e+20
-49.5613  4.37268e+20
-49.444  4.48002e+20
-49.3267  4.55266e+20
-49.2094  4.59185e+20
-49.092  4.60448e+20
-48.9747  4.59661e+20
-48.8574  4.5797e+20
-48.7401  4.56425e+20
-48.6228  4.55967e+20
-48.5055  4.57267e+20
-48.3882  4.60649e+20
-48.2709  4.65865e+20
-48.1536  4.72247e+20
-48.0363  4.788e+20
-47.919  4.84257e+20
-47.8017  4.8746e+20
-47.6844  4.87393e+20
-47.5671  4.83586e+20
-47.4498  4.75986e+20
-47.3325  4.65198e+20
-47.2152  4.52337e+20
-47.0979  4.38812e+20
-46.9806  4.2634e+20
-46.8633  4.16521e+20
-46.7459  4.1063e+20
-46.6286  4.09892e+20
-46.5113  4.14673e+20
-46.394  4.25244e+20
-46.2767  4.41081e+20
-46.1594  4.61456e+20
-46.0421  4.85247e+20
-45.9248  5.10964e+20
-45.8075  5.37015e+20
-45.6902  5.61684e+20
-45.5729  5.83361e+20
-45.4556  6.00877e+20
-45.3383  6.13055e+20
-45.221  6.19661e+20
-45.1037  6.206e+20
-44.9864  6.16601e+20
-44.8691  6.08442e+20
-44.7518  5.97255e+20
-44.6345  5.84075e+20
-44.5172  5.69887e+20
-44.3998  5.55314e+20
-44.2825  5.40628e+20
-44.1652  5.25799e+20
-44.0479  5.10721e+20
-43.9306  4.95106e+20
-43.8133  4.78789e+20
-43.696  4.61927e+20
-43.5787  4.44581e+20
-43.4614  4.27036e+20
-43.3441  4.09837e+20
-43.2268  3.93403e+20
-43.1095  3.78224e+20
-42.9922  3.64688e+20
-42.8749  3.53314e+20
-42.7576  3.44613e+20
-42.6403  3.39118e+20
-42.523  3.3752e+20
-42.4057  3.4036e+20
-42.2884  3.482e+20
-42.171  3.61337e+20
-42.0537  3.79799e+20
-41.9364  4.03174e+20
-41.8191  4.30593e+20
-41.7018  4.60949e+20
-41.5845  4.9277e+20
-41.4672  5.24646e+20
-41.3499  5.55117e+20
-41.2326  5.83141e+20
-41.1153  6.0785e+20
-40.998  6.28933e+20
-40.8807  6.46384e+20
-40.7634  6.60647e+20
-40.6461  6.72353e+20
-40.5288  6.8232e+20
-40.4115  6.91235e+20
-40.2942  6.99953e+20
-40.1769  7.08709e+20
-40.0596  7.17407e+20
-39.9423  7.258e+20
-39.825  7.33101e+20
-39.7076  7.38314e+20
-39.5903  7.40373e+20
-39.473  7.38342e+20
-39.3557  7.31795e+20
-39.2384  7.20627e+20
-39.1211  7.05509e+20
-39.0038  6.87737e+20
-38.8865  6.6888e+20
-38.7692  6.50764e+20
-38.6519  6.35099e+20
-38.5346  6.23221e+20
-38.4173  6.15967e+20
-38.3  6.1349e+20
-38.1827  6.15334e+20
-38.0654  6.2098e+20
-37.9481  6.29482e+20
-37.8308  6.40203e+20
-37.7135  6.5252e+20
-37.5962  6.66189e+20
-37.4789  6.81206e+20
-37.3615  6.97741e+20
-37.2442  7.15787e+20
-37.1269  7.35371e+20
-37.0096  7.56338e+20
-36.8923  7.78584e+20
-36.775  8.0182e+20
-36.6577  8.2578e+20
-36.5404  8.5044e+20
-36.4231  8.75739e+20
-36.3058  9.01583e+20
-36.1885  9.27898e+20
-36.0712  9.54165e+20
-35.9539  9.79907e+20
-35.8366  1.00412e+21
-35.7193  1.02592e+21
-35.602  1.0445e+21
-35.4847  1.05916e+21
-35.3674  1.06965e+21
-35.2501  1.07636e+21
-35.1328  1.07994e+21
-35.0154  1.08151e+21
-34.8981  1.08199e+21
-34.7808  1.08266e+21
-34.6635  1.0844e+21
-34.5462  1.08775e+21
-34.4289  1.09317e+21
-34.3116  1.10081e+21
-34.1943  1.11071e+21
-34.077  1.12284e+21
-33.9597  1.13707e+21
-33.8424  1.15334e+21
-33.7251  1.1714e+21
-33.6078  1.1909e+21
-33.4905  1.21121e+21
-33.3732  1.23185e+21
-33.2559  1.25221e+21
-33.1386  1.27199e+21
-33.0213  1.29105e+21
-32.904  1.30959e+21
-32.7867  1.32835e+21
-32.6693  1.34816e+21
-32.552  1.36997e+21
-32.4347  1.39453e+21
-32.3174  1.42243e+21
-32.2001  1.45396e+21
-32.0828  1.48874e+21
-31.9655  1.52615e+21
-31.8482  1.56525e+21
-31.7309  1.60496e+21
-31.6136  1.644e+21
-31.4963  1.68135e+21
-31.379  1.71609e+21
-31.2617  1.74763e+21
-31.1444  1.7755e+21
-31.0271  1.79971e+21
-30.9098  1.82067e+21
-30.7925  1.83873e+21
-30.6752  1.85475e+21
-30.5579  1.86959e+21
-30.4406  1.88395e+21
-30.3232  1.89865e+21
-30.2059  1.9136e+21
-30.0886  1.92891e+21
-29.9713  1.94416e+21
-29.854  1.95861e+21
-29.7367  1.97156e+21
-29.6194  1.98246e+21
-29.5021  1.99096e+21
-29.3848  1.99719e+21
-29.2675  2.00183e+21
-29.1502  2.00579e+21
-29.0329  2.01049e+21
-28.9156  2.01745e+21
-28.7983  2.02816e+21
-28.681  2.0441e+21
-28.5637  2.06668e+21
-28.4464  2.09698e+21
-28.3291  2.13573e+21
-28.2118  2.18311e+21
-28.0944  2.23928e+21
-27.9771  2.30345e+21
-27.8598  2.37449e+21
-27.7425  2.45035e+21
-27.6252  2.52885e+21
-27.5079  2.60725e+21
-27.3906  2.68284e+21
-27.2733  2.75318e+21
-27.156  2.81636e+21
-27.0387  2.87114e+21
-26.9214  2.91729e+21
-26.8041  2.95536e+21
-26.6868  2.98701e+21
-26.5695  3.01425e+21
-26.4522  3.03951e+21
-26.3349  3.06532e+21
-26.2176  3.09422e+21
-26.1003  3.12768e+21
-25.983  3.16674e+21
-25.8657  3.21169e+21
-25.7483  3.26172e+21
-25.631  3.31546e+21
-25.5137  3.37027e+21
-25.3964  3.4237e+21
-25.2791  3.47297e+21
-25.1618  3.51556e+21
-25.0445  3.54931e+21
-24.9272  3.57357e+21
-24.8099  3.5882e+21
-24.6926  3.59453e+21
-24.5753  3.59508e+21
-24.458  3.59265e+21
-24.3407  3.59088e+21
-24.2234  3.59335e+21
-24.1061  3.60304e+21
-23.9888  3.62256e+21
-23.8715  3.6535e+21
-23.7542  3.69667e+21
-23.6369  3.75143e+21
-23.5196  3.81655e+21
-23.4023  3.89028e+21
-23.2849  3.96988e+21
-23.1676  4.05274e+21
-23.0503  4.13591e+21
-22.933  4.21671e+21
-22.8157  4.29306e+21
-22.6984  4.36343e+21
-22.5811  4.42719e+21
-22.4638  4.48452e+21
-22.3465  4.53619e+21
-22.2292  4.58399e+21
-22.1119  4.6296e+21
-21.9946  4.67549e+21
-21.8773  4.72344e+21
-21.76  4.77496e+21
-21.6427  4.83132e+21
-21.5254  4.89326e+21
-21.4081  4.96022e+21
-21.2908  5.03151e+21
-21.1735  5.10595e+21
-21.0561  5.18177e+21
-20.9388  5.25757e+21
-20.8215  5.33132e+21
-20.7042  5.4014e+21
-20.5869  5.4664e+21
-20.4696  5.52557e+21
-20.3523  5.578e+21
-20.235  5.62437e+21
-20.1177  5.66479e+21
-20.0004  5.70069e+21
-19.8831  5.73391e+21
-19.7658  5.76594e+21
-19.6485  5.79842e+21
-19.5312  5.83276e+21
-19.4139  5.8697e+21
-19.2966  5.90936e+21
-19.1793  5.95112e+21
-19.062  5.99419e+21
-18.9447  6.03684e+21
-18.8274  6.07747e+21
-18.71  6.11546e+21
-18.5927  6.14976e+21
-18.4754  6.18053e+21
-18.3581  6.20896e+21
-18.2408  6.23632e+21
-18.1235  6.26547e+21
-18.0062  6.29926e+21
-17.8889  6.34066e+21
-17.7716  6.39267e+21
-17.6543  6.45708e+21
-17.537  6.53569e+21
-17.4197  6.62835e+21
-17.3024  6.73434e+21
-17.1851  6.8511e+21
-17.0678  6.97502e+21
-16.9505  7.10226e+21
-16.8332  7.22833e+21
-16.7159  7.34827e+21
-16.5986  7.45785e+21
-16.4813  7.55382e+21
-16.364  7.63374e+21
-16.2466  7.69723e+21
-16.1293  7.74515e+21
-16.012  7.77909e+21
-15.8947  7.8024e+21
-15.7774  7.81923e+21
-15.6601  7.83367e+21
-15.5428  7.85043e+21
-15.4255  7.87298e+21
-15.3082  7.90466e+21
-15.1909  7.94857e+21
-15.0736  8.00536e+21
-14.9563  8.0754e+21
-14.839  8.1576e+21
-14.7217  8.24987e+21
-14.6044  8.34897e+21
-14.4871  8.45096e+21
-14.3698  8.55175e+21
-14.2525  8.64699e+21
-14.1352  8.7323e+21
-14.0178  8.80572e+21
-13.9005  8.86481e+21
-13.7832  8.90945e+21
-13.6659  8.94138e+21
-13.5486  8.96226e+21
-13.4313  8.97627e+21
-13.314  8.98732e+21
-13.1967  8.99946e+21
-13.0794  9.01717e+21
-12.9621  9.04262e+21
-12.8448  9.07873e+21
-12.7275  9.126e+21
-12.6102  9.18433e+21
-12.4929  9.25219e+21
-12.3756  9.32702e+21
-12.2583  9.40644e+21
-12.141  9.48716e+21
-12.0237  9.56608e+21
-11.9064  9.6399e+21
-11.7891  9.70641e+21
-11.6718  9.76393e+21
-11.5544  9.8121e+21
-11.4371  9.8521e+21
-11.3198  9.88463e+21
-11.2025  9.91244e+21
-11.0852  9.93889e+21
-10.9679  9.96731e+21
-10.8506  1.0001e+22
-10.7333  1.00426e+22
-10.616  1.00943e+22
-10.4987  1.01585e+22
-10.3814  1.02345e+22
-10.2641  1.03225e+22
-10.1468  1.0421e+22
-10.0295  1.05282e+22
-9.91217  1.06411e+22
-9.79487  1.07566e+22
-9.67756  1.0871e+22
-9.56026  1.09804e+22
-9.44295  1.10805e+22
-9.32565  1.11684e+22
-9.20834  1.12405e+22
-9.09104  1.12943e+22
-8.97373  1.13289e+22
-8.85643  1.13432e+22
-8.73913  1.13383e+22
-8.62182  1.13157e+22
-8.50452  1.1278e+22
-8.38721  1.12294e+22
-8.26991  1.11728e+22
-8.1526  1.11139e+22
-8.03529  1.10568e+22
-7.91799  1.10062e+22
-7.80069  1.09665e+22
-7.68338  1.09414e+22
-7.56608  1.09347e+22
-7.44877  1.09489e+22
-7.33146  1.09858e+22
-7.21416  1.1046e+22
-7.09685  1.1129e+22
-6.97955  1.12333e+22
-6.86224  1.13561e+22
-6.74494  1.14945e+22
-6.62763  1.16428e+22
-6.51033  1.17961e+22
-6.39302  1.19486e+22
-6.27572  1.20945e+22
-6.15842  1.2228e+22
-6.04111  1.23441e+22
-5.92381  1.2439e+22
-5.8065  1.25109e+22
-5.68919  1.25577e+22
-5.57189  1.25815e+22
-5.45458  1.25841e+22
-5.33728  1.257e+22
-5.21997  1.25436e+22
-5.10267  1.25102e+22
-4.98536  1.2475e+22
-4.86806  1.24424e+22
-4.75075  1.24156e+22
-4.63345  1.23973e+22
-4.51614  1.23879e+22
-4.39884  1.23871e+22
-4.28154  1.23939e+22
-4.16423  1.24056e+22
-4.04692  1.24197e+22
-3.92962  1.24331e+22
-3.81231  1.24437e+22
-3.69501  1.24494e+22
-3.5777  1.24486e+22
-3.4604  1.24418e+22
-3.34309  1.24294e+22
-3.22579  1.24133e+22
-3.10849  1.23959e+22
-2.99118  1.23807e+22
-2.87387  1.23718e+22
-2.75657  1.23725e+22
-2.63926  1.23866e+22
-2.52196  1.24164e+22
-2.40465  1.24632e+22
-2.28735  1.25271e+22
-2.17005  1.2606e+22
-2.05274  1.26978e+22
-1.93544  1.27965e+22
-1.81813  1.28972e+22
-1.70083  1.2993e+22
-1.58352  1.30777e+22
-1.46622  1.31451e+22
-1.34891  1.31909e+22
-1.2316  1.32114e+22
-1.1143  1.32064e+22
-0.996995  1.31759e+22
-0.87969  1.31242e+22
-0.762385  1.30558e+22
-0.64508  1.29778e+22
-0.527775  1.28972e+22
-0.41047  1.28216e+22
-0.293165  1.27579e+22
-0.17586  1.27119e+22
-0.058555  1.26878e+22
0.05875  1.26878e+22
0.176055  1.27117e+22
0.29336  1.27573e+22
0.410665  1.28208e+22
0.52797  1.28961e+22
0.645275  1.29761e+22
0.76258  1.30533e+22
0.879885  1.31207e+22
0.99719  1.31716e+22
1.1145  1.32006e+22
1.2318  1.32049e+22
1.3491  1.31833e+22
1.46641  1.31367e+22
1.58371  1.30681e+22
1.70102  1.29825e+22
1.81832  1.28861e+22
1.93563  1.27847e+22
2.05294  1.26853e+22
2.17024  1.25936e+22
2.28754  1.25141e+22
2.40485  1.24501e+22
2.52216  1.24028e+22
2.63946  1.23731e+22
2.75677  1.23587e+22
2.87407  1.23577e+22
2.99137  1.23662e+22
3.10868  1.23809e+22
3.22599  1.23975e+22
3.34329  1.24134e+22
3.4606  1.24253e+22
3.5779  1.24317e+22
3.69521  1.24315e+22
3.81251  1.24253e+22
3.92982  1.24138e+22
4.04712  1.23997e+22
4.16443  1.2385e+22
4.28173  1.23727e+22
4.39903  1.23654e+22
4.51634  1.23653e+22
4.63364  1.23742e+22
4.75095  1.2392e+22
4.86825  1.24179e+22
4.98556  1.24498e+22
5.10286  1.24842e+22
5.22017  1.25167e+22
5.33748  1.25421e+22
5.45478  1.25551e+22
5.57209  1.25513e+22
5.68939  1.25263e+22
5.8067  1.2478e+22
5.924  1.24054e+22
6.0413  1.23094e+22
6.15861  1.21922e+22
6.27591  1.2058e+22
6.39322  1.19118e+22
6.51052  1.17591e+22
6.62783  1.16054e+22
6.74514  1.14572e+22
6.86244  1.13194e+22
6.97975  1.11966e+22
7.09705  1.10929e+22
7.21436  1.10103e+22
7.33166  1.09507e+22
7.44897  1.09143e+22
7.56627  1.09006e+22
7.68358  1.09074e+22
7.80088  1.09324e+22
7.91819  1.0972e+22
8.03549  1.10225e+22
8.1528  1.10793e+22
8.2701  1.11374e+22
8.38741  1.11929e+22
8.50471  1.12407e+22
8.62202  1.1277e+22
8.73932  1.12983e+22
8.85662  1.1302e+22
8.97393  1.12864e+22
9.09123  1.12506e+22
9.20854  1.11954e+22
9.32584  1.11228e+22
9.44315  1.10341e+22
9.56045  1.09334e+22
9.67776  1.08239e+22
9.79506  1.07095e+22
9.91237  1.05943e+22
10.0297  1.04816e+22
10.147  1.03749e+22
10.2643  1.0277e+22
10.3816  1.01892e+22
10.4989  1.01138e+22
10.6162  1.00501e+22
10.7335  9.99839e+21
10.8508  9.95672e+21
10.9681  9.92305e+21
11.0854  9.89455e+21
11.2027  9.86779e+21
11.32  9.83897e+21
11.4373  9.80573e+21
11.5546  9.76532e+21
11.6719  9.7161e+21
11.7893  9.65803e+21
11.9066  9.59085e+21
12.0239  9.5165e+21
12.1412  9.43762e+21
12.2585  9.35677e+21
12.3758  9.27717e+21
12.4931  9.20222e+21
12.6104  9.13465e+21
12.7277  9.07674e+21
12.845  9.03e+21
12.9623  8.99388e+21
13.0796  8.96847e+21
13.1969  8.95102e+21
13.3142  8.93844e+21
13.4315  8.92704e+21
13.5488  8.9126e+21
13.6661  8.89089e+21
13.7834  8.85819e+21
13.9007  8.81246e+21
14.018  8.75273e+21
14.1354  8.67837e+21
14.2527  8.59206e+21
14.37  8.49628e+21
14.4873  8.39492e+21
14.6046  8.29254e+21
14.7219  8.1931e+21
14.8392  8.10087e+21
14.9565  8.0188e+21
15.0738  7.94865e+21
15.1911  7.89222e+21
15.3084  7.84853e+21
15.4257  7.81683e+21
15.543  7.79432e+21
15.6603  7.7779e+21
15.7776  7.76365e+21
15.8949  7.74716e+21
16.0122  7.7236e+21
16.1295  7.68965e+21
16.2468  7.64196e+21
16.3641  7.57843e+21
16.4815  7.49872e+21
16.5988  7.40305e+21
16.7161  7.29372e+21
16.8334  7.17457e+21
16.9507  7.04925e+21
17.068  6.92252e+21
17.1853  6.7993e+21
17.3026  6.68346e+21
17.4199  6.5785e+21
17.5372  6.48682e+21
17.6545  6.40884e+21
17.7718  6.3451e+21
17.8891  6.29374e+21
18.0064  6.25267e+21
18.1237  6.219e+21
18.241  6.18985e+21
18.3583  6.16232e+21
18.4756  6.13365e+21
18.5929  6.10249e+21
18.7102  6.068e+21
18.8275  6.02955e+21
18.9449  5.98825e+21
19.0622  5.94526e+21
19.1795  5.90176e+21
19.2968  5.85954e+21
19.4141  5.81954e+21
19.5314  5.78248e+21
19.6487  5.7478e+21
19.766  5.71497e+21
19.8833  5.6829e+21
20.0006  5.64942e+21
20.1179  5.61329e+21
20.2352  5.57256e+21
20.3525  5.52631e+21
20.4698  5.47398e+21
20.5871  5.41529e+21
20.7044  5.35047e+21
20.8217  5.28072e+21
20.939  5.20738e+21
21.0563  5.13223e+21
21.1736  5.05695e+21
21.291  4.98322e+21
21.4083  4.91239e+21
21.5256  4.84619e+21
21.6429  4.785e+21
21.7602  4.72897e+21
21.8775  4.67787e+21
21.9948  4.63027e+21
22.1121  4.58477e+21
22.2294  4.53942e+21
22.3467  4.49176e+21
22.464  4.44029e+21
22.5813  4.38316e+21
22.6986  4.31966e+21
22.8159  4.24946e+21
22.9332  4.17343e+21
23.0505  4.09307e+21
23.1678  4.01038e+21
23.2851  3.9281e+21
23.4024  3.84915e+21
23.5198  3.77603e+21
23.6371  3.71145e+21
23.7544  3.6574e+21
23.8717  3.61476e+21
23.989  3.58428e+21
24.1063  3.56516e+21
24.2236  3.5558e+21
24.3409  3.55352e+21
24.4582  3.55526e+21
24.5755  3.55766e+21
24.6928  3.55697e+21
24.8101  3.55031e+21
24.9274  3.53528e+21
25.0447  3.51085e+21
25.162  3.47698e+21
25.2793  3.43447e+21
25.3966  3.38532e+21
25.5139  3.33193e+21
25.6312  3.27723e+21
25.7485  3.22398e+21
25.8658  3.17435e+21
25.9832  3.12992e+21
26.1005  3.09108e+21
26.2178  3.05812e+21
26.3351  3.02968e+21
26.4524  3.00408e+21
26.5697  2.97903e+21
26.687  2.95196e+21
26.8043  2.92046e+21
26.9216  2.88252e+21
27.0389  2.83646e+21
27.1562  2.78189e+21
27.2735  2.71896e+21
27.3908  2.64904e+21
27.5081  2.57389e+21
27.6254  2.4961e+21
27.7427  2.41837e+21
27.86  2.34327e+21
27.9773  2.27311e+21
28.0946  2.20984e+21
28.212  2.15451e+21
28.3293  2.10787e+21
28.4466  2.07004e+21
28.5639  2.04046e+21
28.6812  2.01849e+21
28.7985  2.00307e+21
28.9158  1.9928e+21
29.0331  1.98627e+21
29.1504  1.98179e+21
29.2677  1.97805e+21
29.385  1.97357e+21
29.5023  1.96729e+21
29.6196  1.95878e+21
29.7369  1.94787e+21
29.8542  1.935e+21
29.9715  1.92053e+21
30.0888  1.9054e+21
30.2061  1.89005e+21
30.3234  1.87511e+21
30.4407  1.86055e+21
30.558  1.84627e+21
30.6754  1.83158e+21
30.7927  1.81557e+21
30.91  1.79766e+21
31.0273  1.77694e+21
31.1446  1.75289e+21
31.2619  1.72521e+21
31.3792  1.694e+21
31.4965  1.65955e+21
31.6138  1.62256e+21
31.7311  1.58381e+21
31.8484  1.54458e+21
31.9657  1.50588e+21
32.083  1.46889e+21
32.2003  1.43453e+21
32.3176  1.40342e+21
32.4349  1.37589e+21
32.5522  1.35164e+21
32.6695  1.3302e+21
32.7868  1.3107e+21
32.9042  1.29218e+21
33.0215  1.27386e+21
33.1388  1.25511e+21
33.2561  1.23569e+21
33.3734  1.21564e+21
33.4907  1.19537e+21
33.608  1.17547e+21
33.7253  1.15647e+21
33.8426  1.13881e+21
33.9599  1.123e+21
34.0772  1.10914e+21
34.1945  1.0974e+21
34.3118  1.08786e+21
34.4291  1.08051e+21
34.5464  1.07537e+21
34.6637  1.07216e+21
34.781  1.07064e+21
34.8983  1.07006e+21
35.0156  1.06962e+21
35.1329  1.06818e+21
35.2503  1.06464e+21
35.3676  1.05797e+21
35.4849  1.04742e+21
35.6022  1.03288e+21
35.7195  1.01448e+21
35.8368  9.92812e+20
35.9541  9.68825e+20
36.0714  9.43371e+20
36.1887  9.1736e+20
36.306  8.91425e+20
36.4233  8.65807e+20
36.5406  8.40815e+20
36.6579  8.16398e+20
36.7752  7.92671e+20
36.8925  7.69669e+20
37.0098  7.4759e+20
37.1271  7.26794e+20
37.2444  7.07358e+20
37.3617  6.8949e+20
37.479  6.73177e+20
37.5964  6.58264e+20
37.7137  6.44783e+20
37.831  6.32675e+20
37.9483  6.22233e+20
38.0656  6.1396e+20
38.1829  6.08609e+20
38.3002  6.07127e+20
38.4175  6.10004e+20
38.5348  6.17634e+20
38.6521  6.29835e+20
38.7694  6.45732e+20
38.8867  6.64082e+20
39.004  6.8303e+20
39.1213  7.00908e+20
39.2386  7.15911e+20
39.3559  7.26969e+20
39.4732  7.33442e+20
39.5905  7.35293e+20
39.7078  7.33142e+20
39.8251  7.27953e+20
39.9425  7.20626e+20
40.0598  7.12249e+20
40.1771  7.03543e+20
40.2944  6.94972e+20
40.4117  6.86361e+20
40.529  6.77527e+20
40.6463  6.67676e+20
40.7636  6.55968e+20
40.8809  6.41738e+20
40.9982  6.24378e+20
41.1155  6.03257e+20
41.2328  5.78546e+20
41.3501  5.50598e+20
41.4674  5.20219e+20
41.5847  4.88473e+20
41.702  4.568e+20
41.8193  4.2668e+20
41.9366  3.99504e+20
42.0539  3.76408e+20
42.1712  3.58245e+20
42.2885  3.45387e+20
42.4059  3.3781e+20
42.5232  3.35226e+20
42.6405  3.3704e+20
42.7578  3.42711e+20
42.8751  3.51553e+20
42.9924  3.63098e+20
43.1097  3.76695e+20
43.227  3.91973e+20
43.3443  4.08465e+20
43.4616  4.25677e+20
43.5789  4.43167e+20
43.6962  4.60494e+20
43.8135  4.77362e+20
43.9308  4.93583e+20
44.0481  5.0914e+20
44.1654  5.24224e+20
44.2827  5.38955e+20
44.4  5.53593e+20
44.5173  5.68236e+20
44.6347  5.82393e+20
44.752  5.95552e+20
44.8693  6.06648e+20
44.9866  6.14796e+20
45.1039  6.18688e+20
45.2212  6.17671e+20
45.3385  6.11036e+20
45.4558  5.9866e+20
45.5731  5.8114e+20
45.6904  5.59441e+20
45.8077  5.34736e+20
45.925  5.08757e+20
46.0423  4.83129e+20
46.1596  4.59538e+20
46.2769  4.39272e+20
46.3942  4.23652e+20
46.5115  4.13311e+20
46.6288  4.08719e+20
46.7461  4.09651e+20
46.8634  4.15617e+20
46.9808  4.25673e+20
47.0981  4.38158e+20
47.2154  4.51717e+20
47.3327  4.64472e+20
47.45  4.75254e+20
47.5673  4.82777e+20
47.6846  4.86444e+20
47.8019  4.86384e+20
47.9192  4.83106e+20
48.0365  4.77633e+20
48.1538  4.71091e+20
48.2711  4.64682e+20
48.3884  4.5953e+20
48.5057  4.56201e+20
48.623  4.5502e+20
48.7403  4.5553e+20
48.8576  4.57071e+20
48.9749  4.58728e+20
49.0922  4.59428e+20
49.2095  4.58163e+20
49.3269  4.54093e+20
49.4442  4.46836e+20
49.5615  4.35985e+20
49.6788  4.22215e+20
49.7961  4.06255e+20
49.9134  3.8926e+20
50.0307  3.72621e+20
50.148  3.57818e+20
50.2653  3.4614e+20
50.3826  3.38493e+20
50.4999  3.35465e+20
50.6172  3.37093e+20
50.7345  3.42944e+20
50.8518  3.52118e+20
50.9691  3.63601e+20
51.0864  3.76215e+20
