#S 1 spectral density
#N 2
#UFWHM 24.986
#L  abscissas [um]  spectral density
-58.5938  8.0513e+19
-58.4764  8.54846e+19
-58.3591  9.2148e+19
-58.2418  9.9888e+19
-58.1245  1.08119e+20
-58.0072  1.16288e+20
-57.8899  1.23907e+20
-57.7726  1.3075e+20
-57.6553  1.36495e+20
-57.538  1.40937e+20
-57.4207  1.43849e+20
-57.3034  1.45002e+20
-57.1861  1.44235e+20
-57.0688  1.41519e+20
-56.9515  1.37016e+20
-56.8342  1.3116e+20
-56.7169  1.2448e+20
-56.5996  1.17636e+20
-56.4823  1.1121e+20
-56.365  1.05622e+20
-56.2477  1.00982e+20
-56.1303  9.73004e+19
-56.013  9.42676e+19
-55.8957  9.15923e+19
-55.7784  8.89428e+19
-55.6611  8.62433e+19
-55.5438  8.35958e+19
-55.4265  8.11699e+19
-55.3092  7.93091e+19
-55.1919  7.82694e+19
-55.0746  7.81988e+19
-54.9573  7.91721e+19
-54.84  8.10005e+19
-54.7227  8.35354e+19
-54.6054  8.65422e+19
-54.4881  8.99342e+19
-54.3708  9.37346e+19
-54.2535  9.7959e+19
-54.1362  1.02618e+20
-54.0189  1.07768e+20
-53.9016  1.1332e+20
-53.7842  1.18968e+20
-53.6669  1.24542e+20
-53.5496  1.29715e+20
-53.4323  1.34396e+20
-53.315  1.38638e+20
-53.1977  1.42684e+20
-53.0804  1.46893e+20
-52.9631  1.51717e+20
-52.8458  1.57497e+20
-52.7285  1.64359e+20
-52.6112  1.72194e+20
-52.4939  1.80669e+20
-52.3766  1.89225e+20
-52.2593  1.97249e+20
-52.142  2.04174e+20
-52.0247  2.09613e+20
-51.9074  2.13305e+20
-51.7901  2.15239e+20
-51.6728  2.15455e+20
-51.5555  2.14086e+20
-51.4381  2.11416e+20
-51.3208  2.07583e+20
-51.2035  2.02916e+20
-51.0862  1.97657e+20
-50.9689  1.92293e+20
-50.8516  1.87291e+20
-50.7343  1.83184e+20
-50.617  1.80456e+20
-50.4997  1.79518e+20
-50.3824  1.80589e+20
-50.2651  1.83604e+20
-50.1478  1.88248e+20
-50.0305  1.94138e+20
-49.9132  2.00653e+20
-49.7959  2.07416e+20
-49.6786  2.1394e+20
-49.5613  2.20154e+20
-49.444  2.26111e+20
-49.3267  2.32088e+20
-49.2094  2.38338e+20
-49.092  2.45177e+20
-48.9747  2.52812e+20
-48.8574  2.61341e+20
-48.7401  2.70442e+20
-48.6228  2.79757e+20
-48.5055  2.88577e+20
-48.3882  2.95964e+20
-48.2709  3.01105e+20
-48.1536  3.03201e+20
-48.0363  3.01445e+20
-47.919  2.956e+20
-47.8017  2.85592e+20
-47.6844  2.72004e+20
-47.5671  2.5573e+20
-47.4498  2.38038e+20
-47.3325  2.20437e+20
-47.2152  2.04444e+20
-47.0979  1.91431e+20
-46.9806  1.82455e+20
-46.8633  1.78153e+20
-46.7459  1.786e+20
-46.6286  1.83587e+20
-46.5113  1.92517e+20
-46.394  2.04694e+20
-46.2767  2.19189e+20
-46.1594  2.35164e+20
-46.0421  2.51816e+20
-45.9248  2.68366e+20
-45.8075  2.84099e+20
-45.6902  2.98261e+20
-45.5729  3.10151e+20
-45.4556  3.19291e+20
-45.3383  3.25241e+20
-45.221  3.27977e+20
-45.1037  3.2764e+20
-44.9864  3.24655e+20
-44.8691  3.20022e+20
-44.7518  3.14694e+20
-44.6345  3.09688e+20
-44.5172  3.05921e+20
-44.3998  3.04108e+20
-44.2825  3.04615e+20
-44.1652  3.07637e+20
-44.0479  3.12939e+20
-43.9306  3.20262e+20
-43.8133  3.29324e+20
-43.696  3.39662e+20
-43.5787  3.509e+20
-43.4614  3.62701e+20
-43.3441  3.74577e+20
-43.2268  3.86163e+20
-43.1095  3.96925e+20
-42.9922  4.06392e+20
-42.8749  4.1405e+20
-42.7576  4.19546e+20
-42.6403  4.22674e+20
-42.523  4.23327e+20
-42.4057  4.21649e+20
-42.2884  4.17994e+20
-42.171  4.12677e+20
-42.0537  4.06032e+20
-41.9364  3.9849e+20
-41.8191  3.90125e+20
-41.7018  3.81439e+20
-41.5845  3.72394e+20
-41.4672  3.63305e+20
-41.3499  3.54384e+20
-41.2326  3.45945e+20
-41.1153  3.38368e+20
-40.998  3.31871e+20
-40.8807  3.26751e+20
-40.7634  3.23254e+20
-40.6461  3.21474e+20
-40.5288  3.21488e+20
-40.4115  3.23135e+20
-40.2942  3.26462e+20
-40.1769  3.31186e+20
-40.0596  3.37164e+20
-39.9423  3.44151e+20
-39.825  3.51758e+20
-39.7076  3.59664e+20
-39.5903  3.67213e+20
-39.473  3.74085e+20
-39.3557  3.7995e+20
-39.2384  3.84571e+20
-39.1211  3.87993e+20
-39.0038  3.90541e+20
-38.8865  3.92657e+20
-38.7692  3.94774e+20
-38.6519  3.97331e+20
-38.5346  4.00715e+20
-38.4173  4.05029e+20
-38.3  4.10203e+20
-38.1827  4.16041e+20
-38.0654  4.22415e+20
-37.9481  4.29232e+20
-37.8308  4.36573e+20
-37.7135  4.44614e+20
-37.5962  4.53679e+20
-37.4789  4.63994e+20
-37.3615  4.75639e+20
-37.2442  4.88516e+20
-37.1269  5.01965e+20
-37.0096  5.15592e+20
-36.8923  5.28652e+20
-36.775  5.40708e+20
-36.6577  5.51589e+20
-36.5404  5.61422e+20
-36.4231  5.70794e+20
-36.3058  5.8024e+20
-36.1885  5.90417e+20
-36.0712  6.01755e+20
-35.9539  6.14262e+20
-35.8366  6.27529e+20
-35.7193  6.40656e+20
-35.602  6.52851e+20
-35.4847  6.62805e+20
-35.3674  6.69878e+20
-35.2501  6.7355e+20
-35.1328  6.73783e+20
-35.0154  6.71085e+20
-34.8981  6.65835e+20
-34.7808  6.58952e+20
-34.6635  6.51275e+20
-34.5462  6.43574e+20
-34.4289  6.36395e+20
-34.3116  6.30611e+20
-34.1943  6.26699e+20
-34.077  6.25225e+20
-33.9597  6.26754e+20
-33.8424  6.31718e+20
-33.7251  6.40257e+20
-33.6078  6.52354e+20
-33.4905  6.67508e+20
-33.3732  6.8516e+20
-33.2559  7.0432e+20
-33.1386  7.24224e+20
-33.0213  7.43912e+20
-32.904  7.62715e+20
-32.7867  7.80413e+20
-32.6693  7.96946e+20
-32.552  8.1257e+20
-32.4347  8.27729e+20
-32.3174  8.42965e+20
-32.2001  8.59038e+20
-32.0828  8.76638e+20
-31.9655  8.96489e+20
-31.8482  9.19213e+20
-31.7309  9.45273e+20
-31.6136  9.75022e+20
-31.4963  1.00845e+21
-31.379  1.04531e+21
-31.2617  1.08486e+21
-31.1444  1.12601e+21
-31.0271  1.16752e+21
-30.9098  1.20825e+21
-30.7925  1.24659e+21
-30.6752  1.28148e+21
-30.5579  1.3122e+21
-30.4406  1.33835e+21
-30.3232  1.36018e+21
-30.2059  1.37795e+21
-30.0886  1.39226e+21
-29.9713  1.40397e+21
-29.854  1.41398e+21
-29.7367  1.42278e+21
-29.6194  1.43132e+21
-29.5021  1.43973e+21
-29.3848  1.44833e+21
-29.2675  1.45748e+21
-29.1502  1.46661e+21
-29.0329  1.47534e+21
-28.9156  1.4831e+21
-28.7983  1.48903e+21
-28.681  1.49259e+21
-28.5637  1.49316e+21
-28.4464  1.49093e+21
-28.3291  1.48606e+21
-28.2118  1.47921e+21
-28.0944  1.47195e+21
-27.9771  1.46543e+21
-27.8598  1.46115e+21
-27.7425  1.46058e+21
-27.6252  1.46431e+21
-27.5079  1.47326e+21
-27.3906  1.4874e+21
-27.2733  1.50649e+21
-27.156  1.53024e+21
-27.0387  1.55756e+21
-26.9214  1.58801e+21
-26.8041  1.62052e+21
-26.6868  1.65433e+21
-26.5695  1.68848e+21
-26.4522  1.72196e+21
-26.3349  1.75418e+21
-26.2176  1.78452e+21
-26.1003  1.8123e+21
-25.983  1.83724e+21
-25.8657  1.85932e+21
-25.7483  1.87872e+21
-25.631  1.89611e+21
-25.5137  1.9124e+21
-25.3964  1.92811e+21
-25.2791  1.94438e+21
-25.1618  1.96221e+21
-25.0445  1.98238e+21
-24.9272  2.00582e+21
-24.8099  2.03278e+21
-24.6926  2.06372e+21
-24.5753  2.09912e+21
-24.458  2.13822e+21
-24.3407  2.18064e+21
-24.2234  2.22555e+21
-24.1061  2.27182e+21
-23.9888  2.31813e+21
-23.8715  2.36334e+21
-23.7542  2.40654e+21
-23.6369  2.44687e+21
-23.5196  2.48362e+21
-23.4023  2.51744e+21
-23.2849  2.54828e+21
-23.1676  2.57682e+21
-23.0503  2.60426e+21
-22.933  2.63112e+21
-22.8157  2.65877e+21
-22.6984  2.68804e+21
-22.5811  2.71994e+21
-22.4638  2.75564e+21
-22.3465  2.79529e+21
-22.2292  2.84013e+21
-22.1119  2.89005e+21
-21.9946  2.94527e+21
-21.8773  3.00531e+21
-21.76  3.06932e+21
-21.6427  3.13664e+21
-21.5254  3.20625e+21
-21.4081  3.27698e+21
-21.2908  3.34787e+21
-21.1735  3.41827e+21
-21.0561  3.48776e+21
-20.9388  3.55657e+21
-20.8215  3.62547e+21
-20.7042  3.69431e+21
-20.5869  3.76419e+21
-20.4696  3.83586e+21
-20.3523  3.90986e+21
-20.235  3.98669e+21
-20.1177  4.0665e+21
-20.0004  4.14932e+21
-19.8831  4.23581e+21
-19.7658  4.32497e+21
-19.6485  4.41717e+21
-19.5312  4.512e+21
-19.4139  4.60916e+21
-19.2966  4.70812e+21
-19.1793  4.80864e+21
-19.062  4.91021e+21
-18.9447  5.01223e+21
-18.8274  5.11369e+21
-18.71  5.21463e+21
-18.5927  5.31381e+21
-18.4754  5.41034e+21
-18.3581  5.50372e+21
-18.2408  5.59226e+21
-18.1235  5.67522e+21
-18.0062  5.75121e+21
-17.8889  5.81957e+21
-17.7716  5.87998e+21
-17.6543  5.93179e+21
-17.537  5.97617e+21
-17.4197  6.01386e+21
-17.3024  6.04663e+21
-17.1851  6.07668e+21
-17.0678  6.10615e+21
-16.9505  6.13818e+21
-16.8332  6.17538e+21
-16.7159  6.21986e+21
-16.5986  6.27343e+21
-16.4813  6.33719e+21
-16.364  6.41145e+21
-16.2466  6.49609e+21
-16.1293  6.59055e+21
-16.012  6.69195e+21
-15.8947  6.79883e+21
-15.7774  6.90806e+21
-15.6601  7.01671e+21
-15.5428  7.12203e+21
-15.4255  7.22132e+21
-15.3082  7.31245e+21
-15.1909  7.39521e+21
-15.0736  7.46825e+21
-14.9563  7.53323e+21
-14.839  7.59139e+21
-14.7217  7.6454e+21
-14.6044  7.69748e+21
-14.4871  7.7507e+21
-14.3698  7.80761e+21
-14.2525  7.8701e+21
-14.1352  7.93944e+21
-14.0178  8.01709e+21
-13.9005  8.10265e+21
-13.7832  8.19578e+21
-13.6659  8.29593e+21
-13.5486  8.40111e+21
-13.4313  8.51007e+21
-13.314  8.62053e+21
-13.1967  8.73086e+21
-13.0794  8.83929e+21
-12.9621  8.94373e+21
-12.8448  9.04364e+21
-12.7275  9.13802e+21
-12.6102  9.2268e+21
-12.4929  9.31049e+21
-12.3756  9.38984e+21
-12.2583  9.46666e+21
-12.141  9.54246e+21
-12.0237  9.61882e+21
-11.9064  9.69714e+21
-11.7891  9.77848e+21
-11.6718  9.86335e+21
-11.5544  9.95241e+21
-11.4371  1.00462e+22
-11.3198  1.01435e+22
-11.2025  1.02446e+22
-11.0852  1.03484e+22
-10.9679  1.0454e+22
-10.8506  1.05599e+22
-10.7333  1.06646e+22
-10.616  1.07661e+22
-10.4987  1.0863e+22
-10.3814  1.09528e+22
-10.2641  1.10346e+22
-10.1468  1.11067e+22
-10.0295  1.11695e+22
-9.91217  1.12231e+22
-9.79487  1.12689e+22
-9.67756  1.13091e+22
-9.56026  1.13467e+22
-9.44295  1.13854e+22
-9.32565  1.14293e+22
-9.20834  1.14826e+22
-9.09104  1.15492e+22
-8.97373  1.16332e+22
-8.85643  1.17369e+22
-8.73913  1.18623e+22
-8.62182  1.20095e+22
-8.50452  1.21775e+22
-8.38721  1.23635e+22
-8.26991  1.25634e+22
-8.1526  1.27719e+22
-8.03529  1.29831e+22
-7.91799  1.31902e+22
-7.80069  1.33873e+22
-7.68338  1.35685e+22
-7.56608  1.37296e+22
-7.44877  1.38675e+22
-7.33146  1.39809e+22
-7.21416  1.407e+22
-7.09685  1.41367e+22
-6.97955  1.41841e+22
-6.86224  1.42166e+22
-6.74494  1.42396e+22
-6.62763  1.42578e+22
-6.51033  1.42762e+22
-6.39302  1.42992e+22
-6.27572  1.43298e+22
-6.15842  1.43702e+22
-6.04111  1.44211e+22
-5.92381  1.44822e+22
-5.8065  1.45528e+22
-5.68919  1.46308e+22
-5.57189  1.47145e+22
-5.45458  1.48019e+22
-5.33728  1.48918e+22
-5.21997  1.49833e+22
-5.10267  1.50761e+22
-4.98536  1.51707e+22
-4.86806  1.5268e+22
-4.75075  1.53696e+22
-4.63345  1.54774e+22
-4.51614  1.55933e+22
-4.39884  1.57193e+22
-4.28154  1.58571e+22
-4.16423  1.60077e+22
-4.04692  1.61714e+22
-3.92962  1.63476e+22
-3.81231  1.65348e+22
-3.69501  1.67302e+22
-3.5777  1.69305e+22
-3.4604  1.71311e+22
-3.34309  1.73275e+22
-3.22579  1.75151e+22
-3.10849  1.7689e+22
-2.99118  1.78452e+22
-2.87387  1.79809e+22
-2.75657  1.80941e+22
-2.63926  1.8184e+22
-2.52196  1.8251e+22
-2.40465  1.82965e+22
-2.28735  1.83232e+22
-2.17005  1.8334e+22
-2.05274  1.83326e+22
-1.93544  1.83229e+22
-1.81813  1.8308e+22
-1.70083  1.82916e+22
-1.58352  1.82764e+22
-1.46622  1.82651e+22
-1.34891  1.82589e+22
-1.2316  1.82596e+22
-1.1143  1.82672e+22
-0.996995  1.82817e+22
-0.87969  1.83021e+22
-0.762385  1.83275e+22
-0.64508  1.83555e+22
-0.527775  1.8384e+22
-0.41047  1.84105e+22
-0.293165  1.84329e+22
-0.17586  1.84489e+22
-0.058555  1.84569e+22
0.05875  1.84562e+22
0.176055  1.84468e+22
0.29336  1.84294e+22
0.410665  1.84056e+22
0.52797  1.83776e+22
0.645275  1.83476e+22
0.76258  1.83184e+22
0.879885  1.82916e+22
0.99719  1.82698e+22
1.1145  1.82539e+22
1.2318  1.82449e+22
1.3491  1.8243e+22
1.46641  1.82478e+22
1.58371  1.8258e+22
1.70102  1.82719e+22
1.81832  1.82873e+22
1.93563  1.83008e+22
2.05294  1.83097e+22
2.17024  1.83098e+22
2.28754  1.82976e+22
2.40485  1.82697e+22
2.52216  1.82228e+22
2.63946  1.81545e+22
2.75677  1.80636e+22
2.87407  1.79491e+22
2.99137  1.78121e+22
3.10868  1.76548e+22
3.22599  1.74802e+22
3.34329  1.7292e+22
3.4606  1.7095e+22
3.5779  1.6894e+22
3.69521  1.66939e+22
3.81251  1.64984e+22
3.92982  1.63116e+22
4.04712  1.61358e+22
4.16443  1.59726e+22
4.28173  1.58226e+22
4.39903  1.56853e+22
4.51634  1.55598e+22
4.63364  1.54443e+22
4.75095  1.53369e+22
4.86825  1.52356e+22
4.98556  1.51384e+22
5.10286  1.50439e+22
5.22017  1.49512e+22
5.33748  1.48596e+22
5.45478  1.47696e+22
5.57209  1.46819e+22
5.68939  1.45983e+22
5.8067  1.45202e+22
5.924  1.44499e+22
6.0413  1.43887e+22
6.15861  1.4338e+22
6.27591  1.42977e+22
6.39322  1.42674e+22
6.51052  1.42448e+22
6.62783  1.42263e+22
6.74514  1.42082e+22
6.86244  1.41852e+22
6.97975  1.41523e+22
7.09705  1.41047e+22
7.21436  1.40375e+22
7.33166  1.39481e+22
7.44897  1.38342e+22
7.56627  1.36959e+22
7.68358  1.35343e+22
7.80088  1.33529e+22
7.91819  1.31558e+22
8.03549  1.2949e+22
8.1528  1.27384e+22
8.2701  1.25307e+22
8.38741  1.23316e+22
8.50471  1.21468e+22
8.62202  1.19798e+22
8.73932  1.18338e+22
8.85662  1.17096e+22
8.97393  1.1607e+22
9.09123  1.15239e+22
9.20854  1.14579e+22
9.32584  1.14052e+22
9.44315  1.13616e+22
9.56045  1.13228e+22
9.67776  1.1285e+22
9.79506  1.12444e+22
9.91237  1.11981e+22
10.0297  1.11439e+22
10.147  1.10805e+22
10.2643  1.10076e+22
10.3816  1.09253e+22
10.4989  1.08349e+22
10.6162  1.07378e+22
10.7335  1.0636e+22
10.8508  1.05312e+22
10.9681  1.04252e+22
11.0854  1.03199e+22
11.2027  1.02164e+22
11.32  1.01156e+22
11.4373  1.00183e+22
11.5546  9.92523e+21
11.6719  9.83643e+21
11.7893  9.75188e+21
11.9066  9.67077e+21
12.0239  9.59282e+21
12.1412  9.51654e+21
12.2585  9.44087e+21
12.3758  9.36381e+21
12.4931  9.2841e+21
12.6104  9.20004e+21
12.7277  9.11117e+21
12.845  9.01666e+21
12.9623  8.91642e+21
13.0796  8.81149e+21
13.1969  8.70304e+21
13.3142  8.59235e+21
13.4315  8.48182e+21
13.5488  8.37305e+21
13.6661  8.26798e+21
13.7834  8.16812e+21
13.9007  8.07515e+21
14.018  7.99018e+21
14.1354  7.91293e+21
14.2527  7.84377e+21
14.37  7.78173e+21
14.4873  7.72524e+21
14.6046  7.67233e+21
14.7219  7.62028e+21
14.8392  7.56653e+21
14.9565  7.50848e+21
15.0738  7.44324e+21
15.1911  7.36996e+21
15.3084  7.28727e+21
15.4257  7.19575e+21
15.543  7.09612e+21
15.6603  6.99058e+21
15.7776  6.88184e+21
15.8949  6.77255e+21
16.0122  6.66548e+21
16.1295  6.56369e+21
16.2468  6.4695e+21
16.3641  6.3847e+21
16.4815  6.31046e+21
16.5988  6.24668e+21
16.7161  6.19318e+21
16.8334  6.14879e+21
16.9507  6.11172e+21
17.068  6.07944e+21
17.1853  6.04971e+21
17.3026  6.01946e+21
17.4199  5.98673e+21
17.5372  5.94923e+21
17.6545  5.90454e+21
17.7718  5.85241e+21
17.8891  5.79211e+21
18.0064  5.72348e+21
18.1237  5.64738e+21
18.241  5.56461e+21
18.3583  5.4762e+21
18.4756  5.38307e+21
18.5929  5.28661e+21
18.7102  5.18796e+21
18.8275  5.08734e+21
18.9449  4.98608e+21
19.0622  4.88469e+21
19.1795  4.78361e+21
19.2968  4.68377e+21
19.4141  4.58528e+21
19.5314  4.48882e+21
19.6487  4.39475e+21
19.766  4.30293e+21
19.8833  4.21434e+21
20.0006  4.12854e+21
20.1179  4.04603e+21
20.2352  3.96649e+21
20.3525  3.88999e+21
20.4698  3.81636e+21
20.5871  3.74496e+21
20.7044  3.67502e+21
20.8217  3.60612e+21
20.939  3.53751e+21
21.0563  3.46857e+21
21.1736  3.39915e+21
21.291  3.32892e+21
21.4083  3.25814e+21
21.5256  3.18775e+21
21.6429  3.11858e+21
21.7602  3.05157e+21
21.8775  2.98792e+21
21.9948  2.92835e+21
22.1121  2.87383e+21
22.2294  2.82465e+21
22.3467  2.78028e+21
22.464  2.741e+21
22.5813  2.70595e+21
22.6986  2.67433e+21
22.8159  2.64533e+21
22.9332  2.618e+21
23.0505  2.5913e+21
23.1678  2.56405e+21
23.2851  2.53549e+21
23.4024  2.50487e+21
23.5198  2.47109e+21
23.6371  2.43418e+21
23.7544  2.39404e+21
23.8717  2.35091e+21
23.989  2.30585e+21
24.1063  2.25968e+21
24.2236  2.21375e+21
24.3409  2.16926e+21
24.4582  2.12703e+21
24.5755  2.08842e+21
24.6928  2.05348e+21
24.8101  2.02279e+21
24.9274  1.996e+21
25.0447  1.97293e+21
25.162  1.95308e+21
25.2793  1.93555e+21
25.3966  1.91929e+21
25.5139  1.9036e+21
25.6312  1.88747e+21
25.7485  1.87003e+21
25.8658  1.85066e+21
25.9832  1.8286e+21
26.1005  1.80358e+21
26.2178  1.77597e+21
26.3351  1.74575e+21
26.4524  1.71352e+21
26.5697  1.68009e+21
26.687  1.64609e+21
26.8043  1.6125e+21
26.9216  1.5803e+21
27.0389  1.54997e+21
27.1562  1.52289e+21
27.2735  1.49947e+21
27.3908  1.48054e+21
27.5081  1.46663e+21
27.6254  1.45794e+21
27.7427  1.4543e+21
27.86  1.45504e+21
27.9773  1.45934e+21
28.0946  1.46603e+21
28.212  1.47326e+21
28.3293  1.47996e+21
28.4466  1.48484e+21
28.5639  1.48698e+21
28.6812  1.48627e+21
28.7985  1.48265e+21
28.9158  1.47678e+21
29.0331  1.46914e+21
29.1504  1.46039e+21
29.2677  1.4515e+21
29.385  1.44254e+21
29.5023  1.43397e+21
29.6196  1.42558e+21
29.7369  1.4173e+21
29.8542  1.40865e+21
29.9715  1.3989e+21
30.0888  1.38719e+21
30.2061  1.37281e+21
30.3234  1.35502e+21
30.4407  1.33327e+21
30.558  1.30705e+21
30.6754  1.27625e+21
30.7927  1.24122e+21
30.91  1.20302e+21
31.0273  1.16235e+21
31.1446  1.12076e+21
31.2619  1.0797e+21
31.3792  1.04024e+21
31.4965  1.00352e+21
31.6138  9.70316e+20
31.7311  9.40628e+20
31.8484  9.14782e+20
31.9657  8.92218e+20
32.083  8.72571e+20
32.2003  8.55063e+20
32.3176  8.39112e+20
32.4349  8.23971e+20
32.5522  8.08906e+20
32.6695  7.9335e+20
32.7868  7.76901e+20
32.9042  7.59207e+20
33.0215  7.40416e+20
33.1388  7.20796e+20
33.2561  7.00935e+20
33.3734  6.81797e+20
33.4907  6.64248e+20
33.608  6.49186e+20
33.7253  6.3721e+20
33.8426  6.28747e+20
33.9599  6.23954e+20
34.0772  6.22505e+20
34.1945  6.24045e+20
34.3118  6.28029e+20
34.4291  6.33928e+20
34.5464  6.41178e+20
34.6637  6.49012e+20
34.781  6.56752e+20
34.8983  6.63599e+20
35.0156  6.68789e+20
35.1329  6.71581e+20
35.2503  6.71232e+20
35.3676  6.67518e+20
35.4849  6.60275e+20
35.6022  6.50254e+20
35.7195  6.38102e+20
35.8368  6.2488e+20
35.9541  6.11667e+20
36.0714  5.99153e+20
36.1887  5.87824e+20
36.306  5.77691e+20
36.4233  5.68218e+20
36.5406  5.58894e+20
36.6579  5.49026e+20
36.7752  5.38196e+20
36.8925  5.26088e+20
37.0098  5.13066e+20
37.1271  4.99503e+20
37.2444  4.86079e+20
37.3617  4.73332e+20
37.479  4.61731e+20
37.5964  4.51488e+20
37.7137  4.42455e+20
37.831  4.34461e+20
37.9483  4.27134e+20
38.0656  4.20322e+20
38.1829  4.13975e+20
38.3002  4.08165e+20
38.4175  4.03017e+20
38.5348  3.98773e+20
38.6521  3.95466e+20
38.7694  3.92957e+20
38.8867  3.90894e+20
39.004  3.88874e+20
39.1213  3.86382e+20
39.2386  3.83013e+20
39.3559  3.78412e+20
39.4732  3.72641e+20
39.5905  3.65765e+20
39.7078  3.58201e+20
39.8251  3.50434e+20
39.9425  3.42836e+20
40.0598  3.35957e+20
40.1771  3.29932e+20
40.2944  3.25238e+20
40.4117  3.2198e+20
40.529  3.20353e+20
40.6463  3.20434e+20
40.7636  3.22222e+20
40.8809  3.25764e+20
40.9982  3.30883e+20
41.1155  3.37406e+20
41.2328  3.45041e+20
41.3501  3.53495e+20
41.4674  3.62433e+20
41.5847  3.71514e+20
41.702  3.80567e+20
41.8193  3.89296e+20
41.9366  3.97577e+20
42.0539  4.051e+20
42.1712  4.11613e+20
42.2885  4.16895e+20
42.4059  4.20396e+20
42.5232  4.21979e+20
42.6405  4.21158e+20
42.7578  4.1796e+20
42.8751  4.1237e+20
42.9924  4.04615e+20
43.1097  3.95127e+20
43.227  3.84363e+20
43.3443  3.72831e+20
43.4616  3.60997e+20
43.5789  3.4928e+20
43.6962  3.3818e+20
43.8135  3.27957e+20
43.9308  3.19057e+20
44.0481  3.11801e+20
44.1654  3.06602e+20
44.2827  3.03728e+20
44.4  3.03317e+20
44.5173  3.05183e+20
44.6347  3.08972e+20
44.752  3.14059e+20
44.8693  3.19363e+20
44.9866  3.23922e+20
45.1039  3.26763e+20
45.2212  3.27094e+20
45.3385  3.24276e+20
45.4558  3.18252e+20
45.5731  3.09086e+20
45.6904  2.97097e+20
45.8077  2.82958e+20
45.925  2.67267e+20
46.0423  2.50767e+20
46.1596  2.34165e+20
46.2769  2.18271e+20
46.3942  2.03914e+20
46.5115  1.91835e+20
46.6288  1.83056e+20
46.7461  1.7821e+20
46.8634  1.77876e+20
46.9808  1.82364e+20
47.0981  1.91453e+20
47.2154  2.04548e+20
47.3327  2.2056e+20
47.45  2.38163e+20
47.5673  2.55793e+20
47.6846  2.71931e+20
47.8019  2.85385e+20
47.9192  2.95237e+20
48.0365  3.00913e+20
48.1538  3.0251e+20
48.2711  3.00326e+20
48.3884  2.95116e+20
48.5057  2.87594e+20
48.623  2.78785e+20
48.7403  2.69495e+20
48.8576  2.60387e+20
48.9749  2.51964e+20
49.0922  2.44369e+20
49.2095  2.37506e+20
49.3269  2.31295e+20
49.4442  2.25351e+20
49.5615  2.19443e+20
49.6788  2.13199e+20
49.7961  2.06697e+20
49.9134  1.99956e+20
50.0307  1.93432e+20
50.148  1.87643e+20
50.2653  1.83032e+20
50.3826  1.80061e+20
50.4999  1.79105e+20
50.6172  1.801e+20
50.7345  1.82851e+20
50.8518  1.86998e+20
