#S 1 spectral density
#N 2
#UFWHM 31.4377
#L  abscissas [um]  spectral density
-58.5938  1.96224e+20
-58.4764  2.02388e+20
-58.3591  2.09533e+20
-58.2418  2.1711e+20
-58.1245  2.24502e+20
-58.0072  2.31069e+20
-57.8899  2.3631e+20
-57.7726  2.39767e+20
-57.6553  2.4109e+20
-57.538  2.39939e+20
-57.4207  2.36073e+20
-57.3034  2.29325e+20
-57.1861  2.19665e+20
-57.0688  2.07353e+20
-56.9515  1.9294e+20
-56.8342  1.77301e+20
-56.7169  1.61512e+20
-56.5996  1.46811e+20
-56.4823  1.34309e+20
-56.365  1.24857e+20
-56.2477  1.18983e+20
-56.1303  1.16816e+20
-56.013  1.18031e+20
-55.8957  1.22158e+20
-55.7784  1.28539e+20
-55.6611  1.36583e+20
-55.5438  1.45757e+20
-55.4265  1.5555e+20
-55.3092  1.65609e+20
-55.1919  1.75594e+20
-55.0746  1.85145e+20
-54.9573  1.93913e+20
-54.84  2.01538e+20
-54.7227  2.07939e+20
-54.6054  2.1311e+20
-54.4881  2.17298e+20
-54.3708  2.20924e+20
-54.2535  2.24515e+20
-54.1362  2.28509e+20
-54.0189  2.33098e+20
-53.9016  2.38314e+20
-53.7842  2.43618e+20
-53.6669  2.48551e+20
-53.5496  2.5231e+20
-53.4323  2.5426e+20
-53.315  2.54073e+20
-53.1977  2.51745e+20
-53.0804  2.47648e+20
-52.9631  2.42484e+20
-52.8458  2.37235e+20
-52.7285  2.32761e+20
-52.6112  2.29924e+20
-52.4939  2.29232e+20
-52.3766  2.31082e+20
-52.2593  2.35413e+20
-52.142  2.42012e+20
-52.0247  2.5057e+20
-51.9074  2.60493e+20
-51.7901  2.71236e+20
-51.6728  2.82172e+20
-51.5555  2.92652e+20
-51.4381  3.02186e+20
-51.3208  3.10228e+20
-51.2035  3.16691e+20
-51.0862  3.21534e+20
-50.9689  3.25192e+20
-50.8516  3.28241e+20
-50.7343  3.31411e+20
-50.617  3.3546e+20
-50.4997  3.4109e+20
-50.3824  3.48514e+20
-50.2651  3.57747e+20
-50.1478  3.68249e+20
-50.0305  3.79363e+20
-49.9132  3.89983e+20
-49.7959  3.99205e+20
-49.6786  4.06063e+20
-49.5613  4.09974e+20
-49.444  4.10753e+20
-49.3267  4.08547e+20
-49.2094  4.03682e+20
-49.092  3.96899e+20
-48.9747  3.88981e+20
-48.8574  3.8084e+20
-48.7401  3.7307e+20
-48.6228  3.66265e+20
-48.5055  3.60716e+20
-48.3882  3.56204e+20
-48.2709  3.52519e+20
-48.1536  3.49114e+20
-48.0363  3.45203e+20
-47.919  3.40158e+20
-47.8017  3.33395e+20
-47.6844  3.24678e+20
-47.5671  3.14062e+20
-47.4498  3.02008e+20
-47.3325  2.89381e+20
-47.2152  2.77269e+20
-47.0979  2.66997e+20
-46.9806  2.59899e+20
-46.8633  2.57268e+20
-46.7459  2.60009e+20
-46.6286  2.68986e+20
-46.5113  2.84552e+20
-46.394  3.06859e+20
-46.2767  3.35436e+20
-46.1594  3.69421e+20
-46.0421  4.07541e+20
-45.9248  4.47971e+20
-45.8075  4.88458e+20
-45.6902  5.26586e+20
-45.5729  5.5975e+20
-45.4556  5.85837e+20
-45.3383  6.03133e+20
-45.221  6.10863e+20
-45.1037  6.09112e+20
-44.9864  5.98957e+20
-44.8691  5.82448e+20
-44.7518  5.62296e+20
-44.6345  5.41306e+20
-44.5172  5.21984e+20
-44.3998  5.06636e+20
-44.2825  4.96431e+20
-44.1652  4.91978e+20
-44.0479  4.92767e+20
-43.9306  4.97797e+20
-43.8133  5.0552e+20
-43.696  5.14328e+20
-43.5787  5.22697e+20
-43.4614  5.29441e+20
-43.3441  5.33897e+20
-43.2268  5.35862e+20
-43.1095  5.35696e+20
-42.9922  5.3418e+20
-42.8749  5.32377e+20
-42.7576  5.3145e+20
-42.6403  5.32418e+20
-42.523  5.36161e+20
-42.4057  5.42924e+20
-42.2884  5.52713e+20
-42.171  5.64863e+20
-42.0537  5.77972e+20
-41.9364  5.90695e+20
-41.8191  6.01061e+20
-41.7018  6.07692e+20
-41.5845  6.09117e+20
-41.4672  6.04694e+20
-41.3499  5.9438e+20
-41.2326  5.78807e+20
-41.1153  5.59177e+20
-40.998  5.37092e+20
-40.8807  5.14255e+20
-40.7634  4.92591e+20
-40.6461  4.73404e+20
-40.5288  4.58021e+20
-40.4115  4.46783e+20
-40.2942  4.40014e+20
-40.1769  4.37165e+20
-40.0596  4.37544e+20
-39.9423  4.40045e+20
-39.825  4.43452e+20
-39.7076  4.46597e+20
-39.5903  4.48328e+20
-39.473  4.47864e+20
-39.3557  4.44962e+20
-39.2384  4.39737e+20
-39.1211  4.32883e+20
-39.0038  4.25636e+20
-38.8865  4.19283e+20
-38.7692  4.15207e+20
-38.6519  4.14635e+20
-38.5346  4.18415e+20
-38.4173  4.26783e+20
-38.3  4.39474e+20
-38.1827  4.55766e+20
-38.0654  4.74741e+20
-37.9481  4.95229e+20
-37.8308  5.16346e+20
-37.7135  5.37174e+20
-37.5962  5.57247e+20
-37.4789  5.76156e+20
-37.3615  5.93822e+20
-37.2442  6.10138e+20
-37.1269  6.25017e+20
-37.0096  6.38619e+20
-36.8923  6.5111e+20
-36.775  6.62931e+20
-36.6577  6.74634e+20
-36.5404  6.86984e+20
-36.4231  7.0069e+20
-36.3058  7.16151e+20
-36.1885  7.33574e+20
-36.0712  7.52408e+20
-35.9539  7.71642e+20
-35.8366  7.89654e+20
-35.7193  8.04656e+20
-35.602  8.15208e+20
-35.4847  8.19813e+20
-35.3674  8.17993e+20
-35.2501  8.10178e+20
-35.1328  7.97665e+20
-35.0154  7.82308e+20
-34.8981  7.66328e+20
-34.7808  7.51979e+20
-34.6635  7.41261e+20
-34.5462  7.35426e+20
-34.4289  7.35157e+20
-34.3116  7.40421e+20
-34.1943  7.5056e+20
-34.077  7.64445e+20
-33.9597  7.80696e+20
-33.8424  7.97907e+20
-33.7251  8.14681e+20
-33.6078  8.29779e+20
-33.4905  8.42262e+20
-33.3732  8.51556e+20
-33.2559  8.5762e+20
-33.1386  8.60894e+20
-33.0213  8.62283e+20
-32.904  8.62978e+20
-32.7867  8.64492e+20
-32.6693  8.68416e+20
-32.552  8.76004e+20
-32.4347  8.88097e+20
-32.3174  9.05086e+20
-32.2001  9.26764e+20
-32.0828  9.5245e+20
-31.9655  9.81016e+20
-31.8482  1.01125e+21
-31.7309  1.04195e+21
-31.6136  1.07203e+21
-31.4963  1.10064e+21
-31.379  1.12716e+21
-31.2617  1.15151e+21
-31.1444  1.17346e+21
-31.0271  1.19329e+21
-30.9098  1.21148e+21
-30.7925  1.22842e+21
-30.6752  1.24471e+21
-30.5579  1.26109e+21
-30.4406  1.27803e+21
-30.3232  1.29594e+21
-30.2059  1.31473e+21
-30.0886  1.33431e+21
-29.9713  1.35407e+21
-29.854  1.37334e+21
-29.7367  1.39119e+21
-29.6194  1.40685e+21
-29.5021  1.41976e+21
-29.3848  1.42973e+21
-29.2675  1.43685e+21
-29.1502  1.44158e+21
-29.0329  1.44462e+21
-28.9156  1.44694e+21
-28.7983  1.4493e+21
-28.681  1.45266e+21
-28.5637  1.45792e+21
-28.4464  1.4657e+21
-28.3291  1.47653e+21
-28.2118  1.49087e+21
-28.0944  1.509e+21
-27.9771  1.53102e+21
-27.8598  1.55681e+21
-27.7425  1.586e+21
-27.6252  1.61831e+21
-27.5079  1.65321e+21
-27.3906  1.69027e+21
-27.2733  1.72922e+21
-27.156  1.76982e+21
-27.0387  1.81219e+21
-26.9214  1.8564e+21
-26.8041  1.90235e+21
-26.6868  1.95011e+21
-26.5695  1.99924e+21
-26.4522  2.04906e+21
-26.3349  2.0986e+21
-26.2176  2.14685e+21
-26.1003  2.19247e+21
-25.983  2.23474e+21
-25.8657  2.27312e+21
-25.7483  2.3076e+21
-25.631  2.33903e+21
-25.5137  2.36821e+21
-25.3964  2.39711e+21
-25.2791  2.4274e+21
-25.1618  2.46122e+21
-25.0445  2.50004e+21
-24.9272  2.54549e+21
-24.8099  2.5981e+21
-24.6926  2.6581e+21
-24.5753  2.72447e+21
-24.458  2.79573e+21
-24.3407  2.86929e+21
-24.2234  2.94227e+21
-24.1061  3.01107e+21
-23.9888  3.07242e+21
-23.8715  3.12328e+21
-23.7542  3.16132e+21
-23.6369  3.18513e+21
-23.5196  3.19437e+21
-23.4023  3.19031e+21
-23.2849  3.17504e+21
-23.1676  3.15171e+21
-23.0503  3.12423e+21
-22.933  3.0971e+21
-22.8157  3.07485e+21
-22.6984  3.06196e+21
-22.5811  3.0624e+21
-22.4638  3.07959e+21
-22.3465  3.1157e+21
-22.2292  3.17199e+21
-22.1119  3.24814e+21
-21.9946  3.34291e+21
-21.8773  3.4533e+21
-21.76  3.57553e+21
-21.6427  3.70508e+21
-21.5254  3.83736e+21
-21.4081  3.96757e+21
-21.2908  4.092e+21
-21.1735  4.20793e+21
-21.0561  4.3141e+21
-20.9388  4.41103e+21
-20.8215  4.49995e+21
-20.7042  4.58382e+21
-20.5869  4.66583e+21
-20.4696  4.74967e+21
-20.3523  4.83823e+21
-20.235  4.93421e+21
-20.1177  5.03832e+21
-20.0004  5.15061e+21
-19.8831  5.26964e+21
-19.7658  5.39233e+21
-19.6485  5.51474e+21
-19.5312  5.63279e+21
-19.4139  5.74139e+21
-19.2966  5.83654e+21
-19.1793  5.91495e+21
-19.062  5.97477e+21
-18.9447  6.01532e+21
-18.8274  6.03763e+21
-18.71  6.04499e+21
-18.5927  6.04128e+21
-18.4754  6.03139e+21
-18.3581  6.02081e+21
-18.2408  6.01444e+21
-18.1235  6.01702e+21
-18.0062  6.03175e+21
-17.8889  6.06047e+21
-17.7716  6.10431e+21
-17.6543  6.16169e+21
-17.537  6.23107e+21
-17.4197  6.3093e+21
-17.3024  6.39325e+21
-17.1851  6.47933e+21
-17.0678  6.56429e+21
-16.9505  6.64586e+21
-16.8332  6.72275e+21
-16.7159  6.79436e+21
-16.5986  6.86124e+21
-16.4813  6.92517e+21
-16.364  6.98886e+21
-16.2466  7.05538e+21
-16.1293  7.12811e+21
-16.012  7.20957e+21
-15.8947  7.30201e+21
-15.7774  7.40659e+21
-15.6601  7.52302e+21
-15.5428  7.64988e+21
-15.4255  7.78384e+21
-15.3082  7.92134e+21
-15.1909  8.05896e+21
-15.0736  8.19144e+21
-14.9563  8.31506e+21
-14.839  8.42719e+21
-14.7217  8.5253e+21
-14.6044  8.60875e+21
-14.4871  8.67832e+21
-14.3698  8.73593e+21
-14.2525  8.78421e+21
-14.1352  8.82651e+21
-14.0178  8.86752e+21
-13.9005  8.91071e+21
-13.7832  8.95939e+21
-13.6659  9.01655e+21
-13.5486  9.08282e+21
-13.4313  9.15861e+21
-13.314  9.24189e+21
-13.1967  9.3296e+21
-13.0794  9.41832e+21
-12.9621  9.50259e+21
-12.8448  9.57869e+21
-12.7275  9.64235e+21
-12.6102  9.69157e+21
-12.4929  9.7253e+21
-12.3756  9.74421e+21
-12.2583  9.75183e+21
-12.141  9.75282e+21
-12.0237  9.75261e+21
-11.9064  9.7574e+21
-11.7891  9.77341e+21
-11.6718  9.80626e+21
-11.5544  9.86021e+21
-11.4371  9.93868e+21
-11.3198  1.00416e+22
-11.2025  1.01682e+22
-11.0852  1.03156e+22
-10.9679  1.04785e+22
-10.8506  1.06505e+22
-10.7333  1.08241e+22
-10.616  1.09913e+22
-10.4987  1.11459e+22
-10.3814  1.12801e+22
-10.2641  1.13898e+22
-10.1468  1.14721e+22
-10.0295  1.15268e+22
-9.91217  1.15555e+22
-9.79487  1.15626e+22
-9.67756  1.15538e+22
-9.56026  1.1536e+22
-9.44295  1.15164e+22
-9.32565  1.15028e+22
-9.20834  1.15014e+22
-9.09104  1.15173e+22
-8.97373  1.15548e+22
-8.85643  1.1615e+22
-8.73913  1.16981e+22
-8.62182  1.18017e+22
-8.50452  1.19223e+22
-8.38721  1.20555e+22
-8.26991  1.21946e+22
-8.1526  1.23349e+22
-8.03529  1.24702e+22
-7.91799  1.25959e+22
-7.80069  1.27086e+22
-7.68338  1.28054e+22
-7.56608  1.28862e+22
-7.44877  1.29518e+22
-7.33146  1.30042e+22
-7.21416  1.30461e+22
-7.09685  1.3081e+22
-6.97955  1.31124e+22
-6.86224  1.31439e+22
-6.74494  1.31794e+22
-6.62763  1.32196e+22
-6.51033  1.32666e+22
-6.39302  1.33203e+22
-6.27572  1.33798e+22
-6.15842  1.34432e+22
-6.04111  1.35082e+22
-5.92381  1.35718e+22
-5.8065  1.36319e+22
-5.68919  1.36853e+22
-5.57189  1.37309e+22
-5.45458  1.37672e+22
-5.33728  1.37952e+22
-5.21997  1.3815e+22
-5.10267  1.38289e+22
-4.98536  1.38389e+22
-4.86806  1.38478e+22
-4.75075  1.3858e+22
-4.63345  1.38725e+22
-4.51614  1.38929e+22
-4.39884  1.39207e+22
-4.28154  1.39576e+22
-4.16423  1.40028e+22
-4.04692  1.40561e+22
-3.92962  1.41158e+22
-3.81231  1.41805e+22
-3.69501  1.42476e+22
-3.5777  1.43141e+22
-3.4604  1.43782e+22
-3.34309  1.4437e+22
-3.22579  1.44891e+22
-3.10849  1.45331e+22
-2.99118  1.45685e+22
-2.87387  1.4596e+22
-2.75657  1.46161e+22
-2.63926  1.46306e+22
-2.52196  1.46411e+22
-2.40465  1.46489e+22
-2.28735  1.46554e+22
-2.17005  1.46613e+22
-2.05274  1.46684e+22
-1.93544  1.46752e+22
-1.81813  1.46824e+22
-1.70083  1.46889e+22
-1.58352  1.46946e+22
-1.46622  1.46985e+22
-1.34891  1.47008e+22
-1.2316  1.4701e+22
-1.1143  1.46997e+22
-0.996995  1.46969e+22
-0.87969  1.46938e+22
-0.762385  1.46904e+22
-0.64508  1.4688e+22
-0.527775  1.46862e+22
-0.41047  1.46852e+22
-0.293165  1.46848e+22
-0.17586  1.46847e+22
-0.058555  1.46846e+22
0.05875  1.46843e+22
0.176055  1.46838e+22
0.29336  1.46832e+22
0.410665  1.46831e+22
0.52797  1.46836e+22
0.645275  1.46848e+22
0.76258  1.46866e+22
0.879885  1.46892e+22
0.99719  1.46915e+22
1.1145  1.46932e+22
1.2318  1.46938e+22
1.3491  1.46927e+22
1.46641  1.46896e+22
1.58371  1.46843e+22
1.70102  1.46774e+22
1.81832  1.46696e+22
1.93563  1.46609e+22
2.05294  1.46526e+22
2.17024  1.46448e+22
2.28754  1.46372e+22
2.40485  1.46294e+22
2.52216  1.46202e+22
2.63946  1.46088e+22
2.75677  1.45929e+22
2.87407  1.45715e+22
2.99137  1.45429e+22
3.10868  1.45063e+22
3.22599  1.44614e+22
3.34329  1.44088e+22
3.4606  1.43496e+22
3.5779  1.42853e+22
3.69521  1.42181e+22
3.81251  1.41511e+22
3.92982  1.40863e+22
4.04712  1.40264e+22
4.16443  1.39734e+22
4.28173  1.39281e+22
4.39903  1.38914e+22
4.51634  1.38632e+22
4.63364  1.38427e+22
4.75095  1.3828e+22
4.86825  1.38171e+22
4.98556  1.38075e+22
5.10286  1.37966e+22
5.22017  1.37821e+22
5.33748  1.37612e+22
5.45478  1.37325e+22
5.57209  1.36951e+22
5.68939  1.36487e+22
5.8067  1.35944e+22
5.924  1.35338e+22
6.0413  1.34697e+22
6.15861  1.34042e+22
6.27591  1.33402e+22
6.39322  1.32806e+22
6.51052  1.32269e+22
6.62783  1.31794e+22
6.74514  1.31387e+22
6.86244  1.31034e+22
6.97975  1.3071e+22
7.09705  1.3039e+22
7.21436  1.30033e+22
7.33166  1.29606e+22
7.44897  1.29073e+22
7.56627  1.28408e+22
7.68358  1.27586e+22
7.80088  1.26604e+22
7.91819  1.25468e+22
8.03549  1.24203e+22
8.1528  1.22845e+22
8.2701  1.21437e+22
8.38741  1.20037e+22
8.50471  1.18707e+22
8.62202  1.17498e+22
8.73932  1.16461e+22
8.85662  1.15633e+22
8.97393  1.15032e+22
9.09123  1.14658e+22
9.20854  1.14495e+22
9.32584  1.14511e+22
9.44315  1.14643e+22
9.56045  1.14829e+22
9.67776  1.15001e+22
9.79506  1.15077e+22
9.91237  1.14994e+22
10.0297  1.14693e+22
10.147  1.14135e+22
10.2643  1.13302e+22
10.3816  1.12193e+22
10.4989  1.10844e+22
10.6162  1.09296e+22
10.7335  1.07619e+22
10.8508  1.05882e+22
10.9681  1.04166e+22
11.0854  1.02546e+22
11.2027  1.01083e+22
11.32  9.98249e+21
11.4373  9.88042e+21
11.5546  9.80324e+21
11.6719  9.75002e+21
11.7893  9.71816e+21
11.9066  9.70269e+21
12.0239  9.69807e+21
12.1412  9.69855e+21
12.2585  9.69753e+21
12.3758  9.68924e+21
12.4931  9.66947e+21
12.6104  9.635e+21
12.7277  9.58519e+21
12.845  9.5208e+21
12.9623  9.44378e+21
13.0796  9.35879e+21
13.1969  9.26982e+21
13.3142  9.18151e+21
13.4315  9.0979e+21
13.5488  9.02211e+21
13.6661  8.95569e+21
13.7834  8.89857e+21
13.9007  8.84978e+21
14.018  8.807e+21
14.1354  8.76588e+21
14.2527  8.72331e+21
14.37  8.67513e+21
14.4873  8.61735e+21
14.6046  8.54761e+21
14.7219  8.46389e+21
14.8392  8.36574e+21
14.9565  8.25384e+21
15.0738  8.12976e+21
15.1911  7.99746e+21
15.3084  7.86e+21
15.4257  7.72226e+21
15.543  7.58812e+21
15.6603  7.4616e+21
15.7776  7.34557e+21
15.8949  7.24124e+21
16.0122  7.14887e+21
16.1295  7.06743e+21
16.2468  6.99488e+21
16.3641  6.92841e+21
16.4815  6.86497e+21
16.5988  6.80116e+21
16.7161  6.73419e+21
16.8334  6.66317e+21
16.9507  6.58664e+21
17.068  6.50534e+21
17.1853  6.42073e+21
17.3026  6.33505e+21
17.4199  6.25173e+21
17.5372  6.17425e+21
17.6545  6.10522e+21
17.7718  6.04846e+21
17.8891  6.0054e+21
18.0064  5.97706e+21
18.1237  5.96269e+21
18.241  5.96046e+21
18.3583  5.96691e+21
18.4756  5.97752e+21
18.5929  5.98735e+21
18.7102  5.99112e+21
18.8275  5.98339e+21
18.9449  5.9608e+21
19.0622  5.92019e+21
19.1795  5.86028e+21
19.2968  5.78186e+21
19.4141  5.68669e+21
19.5314  5.57844e+21
19.6487  5.46099e+21
19.766  5.33892e+21
19.8833  5.21695e+21
20.0006  5.09855e+21
20.1179  4.98677e+21
20.2352  4.88312e+21
20.3525  4.78778e+21
20.4698  4.6997e+21
20.5871  4.61629e+21
20.7044  4.53455e+21
20.8217  4.45082e+21
20.939  4.36195e+21
21.0563  4.26529e+21
21.1736  4.15932e+21
21.291  4.04378e+21
21.4083  3.91969e+21
21.5256  3.79029e+21
21.6429  3.65893e+21
21.7602  3.53034e+21
21.8775  3.40919e+21
21.9948  3.29992e+21
22.1121  3.20642e+21
22.2294  3.13146e+21
22.3467  3.07617e+21
22.464  3.04111e+21
22.5813  3.02473e+21
22.6986  3.02502e+21
22.8159  3.03833e+21
22.9332  3.06088e+21
23.0505  3.08818e+21
23.1678  3.1157e+21
23.2851  3.13901e+21
23.4024  3.1542e+21
23.5198  3.15811e+21
23.6371  3.14869e+21
23.7544  3.12493e+21
23.8717  3.08692e+21
23.989  3.03617e+21
24.1063  2.9751e+21
24.2236  2.90673e+21
24.3409  2.83426e+21
24.4582  2.7613e+21
24.5755  2.69081e+21
24.6928  2.62499e+21
24.8101  2.56569e+21
24.9274  2.51367e+21
25.0447  2.46878e+21
25.162  2.43047e+21
25.2793  2.39719e+21
25.3966  2.36729e+21
25.5139  2.33868e+21
25.6312  2.30955e+21
25.7485  2.2784e+21
25.8658  2.244e+21
25.9832  2.20589e+21
26.1005  2.16367e+21
26.2178  2.11828e+21
26.3351  2.0704e+21
26.4524  2.02117e+21
26.5697  1.97176e+21
26.687  1.92308e+21
26.8043  1.87581e+21
26.9216  1.8303e+21
27.0389  1.78666e+21
27.1562  1.74488e+21
27.2735  1.7047e+21
27.3908  1.66637e+21
27.5081  1.62984e+21
27.6254  1.59547e+21
27.7427  1.56369e+21
27.86  1.535e+21
27.9773  1.50977e+21
28.0946  1.48822e+21
28.212  1.47054e+21
28.3293  1.45658e+21
28.4466  1.4461e+21
28.5639  1.43866e+21
28.6812  1.43365e+21
28.7985  1.43049e+21
28.9158  1.42828e+21
29.0331  1.42615e+21
29.1504  1.42321e+21
29.2677  1.41863e+21
29.385  1.4116e+21
29.5023  1.40176e+21
29.6196  1.38899e+21
29.7369  1.37352e+21
29.8542  1.35595e+21
29.9715  1.33697e+21
30.0888  1.31757e+21
30.2061  1.29834e+21
30.3234  1.27985e+21
30.4407  1.26232e+21
30.558  1.24573e+21
30.6754  1.22968e+21
30.7927  1.21356e+21
30.91  1.19692e+21
31.0273  1.17904e+21
31.1446  1.15937e+21
31.2619  1.13763e+21
31.3792  1.1136e+21
31.4965  1.08724e+21
31.6138  1.05893e+21
31.7311  1.02915e+21
31.8484  9.98819e+20
31.9657  9.68916e+20
32.083  9.40815e+20
32.2003  9.15619e+20
32.3176  8.94364e+20
32.4349  8.77844e+20
32.5522  8.66135e+20
32.6695  8.58941e+20
32.7868  8.55339e+20
32.9042  8.54001e+20
33.0215  8.53516e+20
33.1388  8.52256e+20
33.2561  8.49133e+20
33.3734  8.4308e+20
33.4907  8.33803e+20
33.608  8.21471e+20
33.7253  8.06497e+20
33.8426  7.89907e+20
33.9599  7.72907e+20
34.0772  7.56904e+20
34.1945  7.43385e+20
34.3118  7.3363e+20
34.4291  7.28806e+20
34.5464  7.29445e+20
34.6637  7.35594e+20
34.781  7.46683e+20
34.8983  7.61243e+20
35.0156  7.77388e+20
35.1329  7.92891e+20
35.2503  8.05454e+20
35.3676  8.13152e+20
35.4849  8.14832e+20
35.6022  8.10236e+20
35.7195  7.99764e+20
35.8368  7.8472e+20
35.9541  7.6688e+20
36.0714  7.47785e+20
36.1887  7.2917e+20
36.306  7.12101e+20
36.4233  6.96769e+20
36.5406  6.83307e+20
36.6579  6.71136e+20
36.7752  6.59612e+20
36.8925  6.47842e+20
37.0098  6.354e+20
37.1271  6.21855e+20
37.2444  6.06952e+20
37.3617  5.90618e+20
37.479  5.72969e+20
37.5964  5.54034e+20
37.7137  5.33967e+20
37.831  5.13157e+20
37.9483  4.9211e+20
38.0656  4.717e+20
38.1829  4.52881e+20
38.3002  4.36837e+20
38.4175  4.2434e+20
38.5348  4.16248e+20
38.6521  4.12763e+20
38.7694  4.13516e+20
38.8867  4.17784e+20
39.004  4.24299e+20
39.1213  4.31709e+20
39.2386  4.38606e+20
39.3559  4.43836e+20
39.4732  4.46755e+20
39.5905  4.47111e+20
39.7078  4.45346e+20
39.8251  4.42307e+20
39.9425  4.3887e+20
40.0598  4.36515e+20
40.1771  4.36149e+20
40.2944  4.39135e+20
40.4117  4.46067e+20
40.529  4.57432e+20
40.6463  4.7303e+20
40.7636  4.92207e+20
40.8809  5.14028e+20
40.9982  5.36855e+20
41.1155  5.58895e+20
41.2328  5.78436e+20
41.3501  5.93878e+20
41.4674  6.04002e+20
41.5847  6.08211e+20
41.702  6.06654e+20
41.8193  5.99875e+20
41.9366  5.89362e+20
42.0539  5.76579e+20
42.1712  5.63362e+20
42.2885  5.51349e+20
42.4059  5.41531e+20
42.5232  5.34831e+20
42.6405  5.31083e+20
42.7578  5.30212e+20
42.8751  5.31204e+20
42.9924  5.3299e+20
43.1097  5.34475e+20
43.227  5.34593e+20
43.3443  5.32619e+20
43.4616  5.28122e+20
43.5789  5.21289e+20
43.6962  5.12907e+20
43.8135  5.0408e+20
43.9308  4.96476e+20
44.0481  4.91531e+20
44.1654  4.90841e+20
44.2827  4.95423e+20
44.4  5.057e+20
44.5173  5.21101e+20
44.6347  5.40355e+20
44.752  5.61424e+20
44.8693  5.81392e+20
44.9866  5.97571e+20
45.1039  6.07455e+20
45.2212  6.08957e+20
45.3385  6.00911e+20
45.4558  5.83401e+20
45.5731  5.5714e+20
45.6904  5.23824e+20
45.8077  4.85725e+20
45.925  4.45306e+20
46.0423  4.05082e+20
46.1596  3.67153e+20
46.2769  3.33389e+20
46.3942  3.05124e+20
46.5115  2.83088e+20
46.6288  2.67786e+20
46.7461  2.59036e+20
46.8634  2.56456e+20
46.9808  2.59263e+20
47.0981  2.66434e+20
47.2154  2.76755e+20
47.3327  2.88821e+20
47.45  3.0142e+20
47.5673  3.13381e+20
47.6846  3.23841e+20
47.8019  3.32474e+20
47.9192  3.39098e+20
48.0365  3.44063e+20
48.1538  3.4789e+20
48.2711  3.51281e+20
48.3884  3.54952e+20
48.5057  3.59392e+20
48.623  3.65045e+20
48.7403  3.71816e+20
48.8576  3.79592e+20
48.9749  3.87795e+20
49.0922  3.95657e+20
49.2095  4.02346e+20
49.3269  4.07135e+20
49.4442  4.09346e+20
49.5615  4.08478e+20
49.6788  4.04402e+20
49.7961  3.97516e+20
49.9134  3.88233e+20
50.0307  3.7754e+20
50.148  3.66487e+20
50.2653  3.55974e+20
50.3826  3.4677e+20
50.4999  3.3937e+20
50.6172  3.33807e+20
50.7345  3.29743e+20
50.8518  3.2657e+20
