#S 1 spectral density
#N 2
#UFWHM 31.555
#L  abscissas [um]  spectral density
-58.5938  2.82503e+20
-58.4764  2.91828e+20
-58.3591  2.99359e+20
-58.2418  3.03532e+20
-58.1245  3.03176e+20
-58.0072  2.97688e+20
-57.8899  2.87148e+20
-57.7726  2.72299e+20
-57.6553  2.54373e+20
-57.538  2.34932e+20
-57.4207  2.15596e+20
-57.3034  1.9787e+20
-57.1861  1.82981e+20
-57.0688  1.71908e+20
-56.9515  1.65228e+20
-56.8342  1.63238e+20
-56.7169  1.65885e+20
-56.5996  1.72785e+20
-56.4823  1.83226e+20
-56.365  1.96146e+20
-56.2477  2.10276e+20
-56.1303  2.24228e+20
-56.013  2.36546e+20
-55.8957  2.46163e+20
-55.7784  2.52181e+20
-55.6611  2.54409e+20
-55.5438  2.53026e+20
-55.4265  2.48549e+20
-55.3092  2.41861e+20
-55.1919  2.33994e+20
-55.0746  2.25875e+20
-54.9573  2.1831e+20
-54.84  2.11886e+20
-54.7227  2.0722e+20
-54.6054  2.04618e+20
-54.4881  2.04375e+20
-54.3708  2.06714e+20
-54.2535  2.11728e+20
-54.1362  2.19344e+20
-54.0189  2.2923e+20
-53.9016  2.40877e+20
-53.7842  2.53423e+20
-53.6669  2.66171e+20
-53.5496  2.78351e+20
-53.4323  2.89361e+20
-53.315  2.9903e+20
-53.1977  3.0745e+20
-53.0804  3.14922e+20
-52.9631  3.21918e+20
-52.8458  3.28968e+20
-52.7285  3.36179e+20
-52.6112  3.43528e+20
-52.4939  3.50608e+20
-52.3766  3.5696e+20
-52.2593  3.61899e+20
-52.142  3.64966e+20
-52.0247  3.66139e+20
-51.9074  3.65611e+20
-51.7901  3.64082e+20
-51.6728  3.62581e+20
-51.5555  3.62328e+20
-51.4381  3.64542e+20
-51.3208  3.70195e+20
-51.2035  3.80178e+20
-51.0862  3.94791e+20
-50.9689  4.13978e+20
-50.8516  4.37085e+20
-50.7343  4.63045e+20
-50.617  4.90348e+20
-50.4997  5.17259e+20
-50.3824  5.41725e+20
-50.2651  5.61874e+20
-50.1478  5.75975e+20
-50.0305  5.82886e+20
-49.9132  5.81881e+20
-49.7959  5.73134e+20
-49.6786  5.57361e+20
-49.5613  5.36006e+20
-49.444  5.11006e+20
-49.3267  4.84431e+20
-49.2094  4.58047e+20
-49.092  4.33633e+20
-48.9747  4.12188e+20
-48.8574  3.94441e+20
-48.7401  3.80262e+20
-48.6228  3.69221e+20
-48.5055  3.60592e+20
-48.3882  3.53243e+20
-48.2709  3.46374e+20
-48.1536  3.39304e+20
-48.0363  3.31614e+20
-47.919  3.23425e+20
-47.8017  3.1532e+20
-47.6844  3.0826e+20
-47.5671  3.03484e+20
-47.4498  3.02352e+20
-47.3325  3.06049e+20
-47.2152  3.15445e+20
-47.0979  3.3086e+20
-46.9806  3.52032e+20
-46.8633  3.78075e+20
-46.7459  4.07235e+20
-46.6286  4.3782e+20
-46.5113  4.67572e+20
-46.394  4.94724e+20
-46.2767  5.17446e+20
-46.1594  5.34552e+20
-46.0421  5.45483e+20
-45.9248  5.50087e+20
-45.8075  5.48755e+20
-45.6902  5.42297e+20
-45.5729  5.31665e+20
-45.4556  5.18381e+20
-45.3383  5.03705e+20
-45.221  4.89276e+20
-45.1037  4.76376e+20
-44.9864  4.66211e+20
-44.8691  4.59729e+20
-44.7518  4.57485e+20
-44.6345  4.59316e+20
-44.5172  4.64511e+20
-44.3998  4.72075e+20
-44.2825  4.80317e+20
-44.1652  4.87755e+20
-44.0479  4.9291e+20
-43.9306  4.94833e+20
-43.8133  4.93138e+20
-43.696  4.8831e+20
-43.5787  4.81359e+20
-43.4614  4.73809e+20
-43.3441  4.67523e+20
-43.2268  4.64108e+20
-43.1095  4.64945e+20
-42.9922  4.70722e+20
-42.8749  4.81549e+20
-42.7576  4.96775e+20
-42.6403  5.15091e+20
-42.523  5.34952e+20
-42.4057  5.54346e+20
-42.2884  5.71624e+20
-42.171  5.85239e+20
-42.0537  5.93999e+20
-41.9364  5.97569e+20
-41.8191  5.95782e+20
-41.7018  5.89518e+20
-41.5845  5.79739e+20
-41.4672  5.68008e+20
-41.3499  5.5589e+20
-41.2326  5.44925e+20
-41.1153  5.36235e+20
-40.998  5.30486e+20
-40.8807  5.27719e+20
-40.7634  5.27647e+20
-40.6461  5.29156e+20
-40.5288  5.3126e+20
-40.4115  5.32505e+20
-40.2942  5.32036e+20
-40.1769  5.28904e+20
-40.0596  5.22793e+20
-39.9423  5.13835e+20
-39.825  5.0255e+20
-39.7076  4.89845e+20
-39.5903  4.76723e+20
-39.473  4.64334e+20
-39.3557  4.53962e+20
-39.2384  4.46684e+20
-39.1211  4.4346e+20
-39.0038  4.45124e+20
-38.8865  4.51955e+20
-38.7692  4.6385e+20
-38.6519  4.80209e+20
-38.5346  5.0001e+20
-38.4173  5.21614e+20
-38.3  5.43234e+20
-38.1827  5.63e+20
-38.0654  5.79358e+20
-37.9481  5.91084e+20
-37.8308  5.97827e+20
-37.7135  5.99637e+20
-37.5962  5.97421e+20
-37.4789  5.92366e+20
-37.3615  5.86113e+20
-37.2442  5.80036e+20
-37.1269  5.75366e+20
-37.0096  5.73076e+20
-36.8923  5.73762e+20
-36.775  5.77733e+20
-36.6577  5.85029e+20
-36.5404  5.95504e+20
-36.4231  6.08934e+20
-36.3058  6.24672e+20
-36.1885  6.42167e+20
-36.0712  6.60369e+20
-35.9539  6.78301e+20
-35.8366  6.9471e+20
-35.7193  7.08644e+20
-35.602  7.19684e+20
-35.4847  7.27482e+20
-35.3674  7.32581e+20
-35.2501  7.36033e+20
-35.1328  7.39259e+20
-35.0154  7.43731e+20
-34.8981  7.5062e+20
-34.7808  7.60675e+20
-34.6635  7.74025e+20
-34.5462  7.9002e+20
-34.4289  8.07568e+20
-34.3116  8.25297e+20
-34.1943  8.41834e+20
-34.077  8.56116e+20
-33.9597  8.67538e+20
-33.8424  8.7618e+20
-33.7251  8.82637e+20
-33.6078  8.87908e+20
-33.4905  8.9317e+20
-33.3732  8.99684e+20
-33.2559  9.08654e+20
-33.1386  9.20912e+20
-33.0213  9.37056e+20
-32.904  9.57092e+20
-32.7867  9.80851e+20
-32.6693  1.00775e+21
-32.552  1.03676e+21
-32.4347  1.06669e+21
-32.3174  1.09632e+21
-32.2001  1.12439e+21
-32.0828  1.15e+21
-31.9655  1.17245e+21
-31.8482  1.19155e+21
-31.7309  1.20766e+21
-31.6136  1.22141e+21
-31.4963  1.23371e+21
-31.379  1.24537e+21
-31.2617  1.25744e+21
-31.1444  1.27021e+21
-31.0271  1.28394e+21
-30.9098  1.29867e+21
-30.7925  1.31388e+21
-30.6752  1.32909e+21
-30.5579  1.3439e+21
-30.4406  1.35786e+21
-30.3232  1.37084e+21
-30.2059  1.38252e+21
-30.0886  1.39316e+21
-29.9713  1.40297e+21
-29.854  1.41239e+21
-29.7367  1.42189e+21
-29.6194  1.43219e+21
-29.5021  1.44399e+21
-29.3848  1.45809e+21
-29.2675  1.47506e+21
-29.1502  1.49532e+21
-29.0329  1.5189e+21
-28.9156  1.54556e+21
-28.7983  1.57442e+21
-28.681  1.60451e+21
-28.5637  1.6348e+21
-28.4464  1.66405e+21
-28.3291  1.69141e+21
-28.2118  1.71647e+21
-28.0944  1.73925e+21
-27.9771  1.76029e+21
-27.8598  1.78061e+21
-27.7425  1.80143e+21
-27.6252  1.82443e+21
-27.5079  1.85109e+21
-27.3906  1.88294e+21
-27.2733  1.92126e+21
-27.156  1.96692e+21
-27.0387  2.02037e+21
-26.9214  2.08157e+21
-26.8041  2.14939e+21
-26.6868  2.22265e+21
-26.5695  2.29912e+21
-26.4522  2.37621e+21
-26.3349  2.45116e+21
-26.2176  2.52138e+21
-26.1003  2.5843e+21
-25.983  2.63847e+21
-25.8657  2.68308e+21
-25.7483  2.71828e+21
-25.631  2.74557e+21
-25.5137  2.76652e+21
-25.3964  2.78393e+21
-25.2791  2.80041e+21
-25.1618  2.8188e+21
-25.0445  2.84111e+21
-24.9272  2.8692e+21
-24.8099  2.90358e+21
-24.6926  2.94437e+21
-24.5753  2.99041e+21
-24.458  3.03997e+21
-24.3407  3.09047e+21
-24.2234  3.13926e+21
-24.1061  3.1833e+21
-23.9888  3.22016e+21
-23.8715  3.24801e+21
-23.7542  3.26587e+21
-23.6369  3.27384e+21
-23.5196  3.27312e+21
-23.4023  3.26625e+21
-23.2849  3.25623e+21
-23.1676  3.24668e+21
-23.0503  3.24129e+21
-22.933  3.24372e+21
-22.8157  3.25701e+21
-22.6984  3.28354e+21
-22.5811  3.32485e+21
-22.4638  3.38167e+21
-22.3465  3.45341e+21
-22.2292  3.53905e+21
-22.1119  3.63647e+21
-21.9946  3.74339e+21
-21.8773  3.85665e+21
-21.76  3.97334e+21
-21.6427  4.09064e+21
-21.5254  4.20638e+21
-21.4081  4.31848e+21
-21.2908  4.42623e+21
-21.1735  4.52953e+21
-21.0561  4.62906e+21
-20.9388  4.72647e+21
-20.8215  4.82298e+21
-20.7042  4.92035e+21
-20.5869  5.01968e+21
-20.4696  5.12179e+21
-20.3523  5.22622e+21
-20.235  5.33239e+21
-20.1177  5.43842e+21
-20.0004  5.54238e+21
-19.8831  5.64241e+21
-19.7658  5.73618e+21
-19.6485  5.82194e+21
-19.5312  5.89897e+21
-19.4139  5.96643e+21
-19.2966  6.02483e+21
-19.1793  6.07511e+21
-19.062  6.11896e+21
-18.9447  6.158e+21
-18.8274  6.19382e+21
-18.71  6.22874e+21
-18.5927  6.2637e+21
-18.4754  6.29937e+21
-18.3581  6.33587e+21
-18.2408  6.37219e+21
-18.1235  6.40726e+21
-18.0062  6.43915e+21
-17.8889  6.46599e+21
-17.7716  6.48664e+21
-17.6543  6.49935e+21
-17.537  6.5043e+21
-17.4197  6.50196e+21
-17.3024  6.49428e+21
-17.1851  6.48388e+21
-17.0678  6.47417e+21
-16.9505  6.46941e+21
-16.8332  6.47408e+21
-16.7159  6.49225e+21
-16.5986  6.52748e+21
-16.4813  6.58261e+21
-16.364  6.65966e+21
-16.2466  6.75918e+21
-16.1293  6.88039e+21
-16.012  7.02072e+21
-15.8947  7.17673e+21
-15.7774  7.3438e+21
-15.6601  7.51625e+21
-15.5428  7.68844e+21
-15.4255  7.85411e+21
-15.3082  8.0083e+21
-15.1909  8.14771e+21
-15.0736  8.26892e+21
-14.9563  8.37124e+21
-14.839  8.45583e+21
-14.7217  8.52453e+21
-14.6044  8.58072e+21
-14.4871  8.62873e+21
-14.3698  8.67311e+21
-14.2525  8.71771e+21
-14.1352  8.76571e+21
-14.0178  8.82037e+21
-13.9005  8.88268e+21
-13.7832  8.95251e+21
-13.6659  9.02934e+21
-13.5486  9.11036e+21
-13.4313  9.19315e+21
-13.314  9.27407e+21
-13.1967  9.34958e+21
-13.0794  9.4171e+21
-12.9621  9.47346e+21
-12.8448  9.51792e+21
-12.7275  9.5501e+21
-12.6102  9.57168e+21
-12.4929  9.58517e+21
-12.3756  9.59365e+21
-12.2583  9.60183e+21
-12.141  9.61429e+21
-12.0237  9.63477e+21
-11.9064  9.66641e+21
-11.7891  9.71134e+21
-11.6718  9.77057e+21
-11.5544  9.84374e+21
-11.4371  9.93008e+21
-11.3198  1.00264e+22
-11.2025  1.01305e+22
-11.0852  1.02389e+22
-10.9679  1.03486e+22
-10.8506  1.04561e+22
-10.7333  1.05587e+22
-10.616  1.06536e+22
-10.4987  1.07404e+22
-10.3814  1.0817e+22
-10.2641  1.0884e+22
-10.1468  1.09418e+22
-10.0295  1.09925e+22
-9.91217  1.10379e+22
-9.79487  1.10812e+22
-9.67756  1.11251e+22
-9.56026  1.11729e+22
-9.44295  1.12269e+22
-9.32565  1.12903e+22
-9.20834  1.13645e+22
-9.09104  1.14509e+22
-8.97373  1.15511e+22
-8.85643  1.16641e+22
-8.73913  1.17898e+22
-8.62182  1.19265e+22
-8.50452  1.20722e+22
-8.38721  1.22244e+22
-8.26991  1.23787e+22
-8.1526  1.25322e+22
-8.03529  1.26797e+22
-7.91799  1.28173e+22
-7.80069  1.29402e+22
-7.68338  1.3044e+22
-7.56608  1.31258e+22
-7.44877  1.31829e+22
-7.33146  1.32134e+22
-7.21416  1.32169e+22
-7.09685  1.3194e+22
-6.97955  1.31464e+22
-6.86224  1.30779e+22
-6.74494  1.29938e+22
-6.62763  1.28984e+22
-6.51033  1.2799e+22
-6.39302  1.27021e+22
-6.27572  1.26144e+22
-6.15842  1.2542e+22
-6.04111  1.24902e+22
-5.92381  1.24626e+22
-5.8065  1.24628e+22
-5.68919  1.24905e+22
-5.57189  1.25457e+22
-5.45458  1.26253e+22
-5.33728  1.27265e+22
-5.21997  1.28435e+22
-5.10267  1.29711e+22
-4.98536  1.31031e+22
-4.86806  1.3234e+22
-4.75075  1.33581e+22
-4.63345  1.3472e+22
-4.51614  1.35724e+22
-4.39884  1.36587e+22
-4.28154  1.37319e+22
-4.16423  1.37934e+22
-4.04692  1.38468e+22
-3.92962  1.38955e+22
-3.81231  1.39435e+22
-3.69501  1.39943e+22
-3.5777  1.40494e+22
-3.4604  1.41106e+22
-3.34309  1.41766e+22
-3.22579  1.42456e+22
-3.10849  1.43138e+22
-2.99118  1.43768e+22
-2.87387  1.44301e+22
-2.75657  1.44686e+22
-2.63926  1.44887e+22
-2.52196  1.44871e+22
-2.40465  1.44625e+22
-2.28735  1.4415e+22
-2.17005  1.4347e+22
-2.05274  1.42632e+22
-1.93544  1.41681e+22
-1.81813  1.40691e+22
-1.70083  1.39733e+22
-1.58352  1.38881e+22
-1.46622  1.382e+22
-1.34891  1.37749e+22
-1.2316  1.37563e+22
-1.1143  1.37661e+22
-0.996995  1.3803e+22
-0.87969  1.38645e+22
-0.762385  1.39447e+22
-0.64508  1.40371e+22
-0.527775  1.41328e+22
-0.41047  1.4223e+22
-0.293165  1.42993e+22
-0.17586  1.43543e+22
-0.058555  1.43829e+22
0.05875  1.43823e+22
0.176055  1.43522e+22
0.29336  1.42956e+22
0.410665  1.42182e+22
0.52797  1.4127e+22
0.645275  1.40306e+22
0.76258  1.39375e+22
0.879885  1.38567e+22
0.99719  1.37948e+22
1.1145  1.37573e+22
1.2318  1.37475e+22
1.3491  1.3766e+22
1.46641  1.38109e+22
1.58371  1.38784e+22
1.70102  1.39632e+22
1.81832  1.40586e+22
1.93563  1.41566e+22
2.05294  1.42508e+22
2.17024  1.43341e+22
2.28754  1.4401e+22
2.40485  1.44473e+22
2.52216  1.44708e+22
2.63946  1.44715e+22
2.75677  1.44504e+22
2.87407  1.44108e+22
2.99137  1.43565e+22
3.10868  1.42924e+22
3.22599  1.42233e+22
3.34329  1.41538e+22
3.4606  1.40873e+22
3.5779  1.40256e+22
3.69521  1.39694e+22
3.81251  1.39182e+22
3.92982  1.38692e+22
4.04712  1.38196e+22
4.16443  1.37657e+22
4.28173  1.37033e+22
4.39903  1.36294e+22
4.51634  1.35421e+22
4.63364  1.34409e+22
4.75095  1.33265e+22
4.86825  1.32017e+22
4.98556  1.30704e+22
5.10286  1.2938e+22
5.22017  1.28104e+22
5.33748  1.26933e+22
5.45478  1.25923e+22
5.57209  1.25128e+22
5.68939  1.24577e+22
5.8067  1.24301e+22
5.924  1.24303e+22
6.0413  1.24578e+22
6.15861  1.25095e+22
6.27591  1.25814e+22
6.39322  1.26688e+22
6.51052  1.27651e+22
6.62783  1.28633e+22
6.74514  1.29574e+22
6.86244  1.30406e+22
6.97975  1.31074e+22
7.09705  1.31535e+22
7.21436  1.31748e+22
7.33166  1.31699e+22
7.44897  1.31378e+22
7.56627  1.30794e+22
7.68358  1.2996e+22
7.80088  1.28908e+22
7.91819  1.2767e+22
8.03549  1.2629e+22
8.1528  1.24811e+22
8.2701  1.23275e+22
8.38741  1.21727e+22
8.50471  1.2021e+22
8.62202  1.18752e+22
8.73932  1.17388e+22
8.85662  1.16136e+22
8.97393  1.15009e+22
9.09123  1.14012e+22
9.20854  1.13147e+22
9.32584  1.12408e+22
9.44315  1.11774e+22
9.56045  1.11228e+22
9.67776  1.10747e+22
9.79506  1.103e+22
9.91237  1.09861e+22
10.0297  1.09396e+22
10.147  1.08882e+22
10.2643  1.08295e+22
10.3816  1.07615e+22
10.4989  1.06843e+22
10.6162  1.05971e+22
10.7335  1.05014e+22
10.8508  1.03984e+22
10.9681  1.02908e+22
11.0854  1.01815e+22
11.2027  1.00734e+22
11.32  9.96961e+21
11.4373  9.87357e+21
11.5546  9.78799e+21
11.6719  9.71522e+21
11.7893  9.65674e+21
11.9066  9.61224e+21
12.0239  9.58082e+21
12.1412  9.56077e+21
12.2585  9.54845e+21
12.3758  9.53975e+21
12.4931  9.53071e+21
12.6104  9.51672e+21
12.7277  9.49466e+21
12.845  9.46191e+21
12.9623  9.41655e+21
13.0796  9.35955e+21
13.1969  9.29175e+21
13.3142  9.2157e+21
13.4315  9.13451e+21
13.5488  9.05169e+21
13.6661  8.97069e+21
13.7834  8.89409e+21
13.9007  8.82438e+21
14.018  8.76281e+21
14.1354  8.70831e+21
14.2527  8.6603e+21
14.37  8.61604e+21
14.4873  8.5717e+21
14.6046  8.5236e+21
14.7219  8.46703e+21
14.8392  8.39828e+21
14.9565  8.31364e+21
15.0738  8.21064e+21
15.1911  8.0893e+21
15.3084  7.94972e+21
15.4257  7.7951e+21
15.543  7.62906e+21
15.6603  7.45714e+21
15.7776  7.28508e+21
15.8949  7.11844e+21
16.0122  6.9627e+21
16.1295  6.82272e+21
16.2468  6.70205e+21
16.3641  6.60299e+21
16.4815  6.52653e+21
16.5988  6.47169e+21
16.7161  6.43658e+21
16.8334  6.41895e+21
16.9507  6.41442e+21
17.068  6.41905e+21
17.1853  6.42859e+21
17.3026  6.43874e+21
17.4199  6.44623e+21
17.5372  6.44854e+21
17.6545  6.44309e+21
17.7718  6.43021e+21
17.8891  6.40965e+21
18.0064  6.38267e+21
18.1237  6.35072e+21
18.241  6.31588e+21
18.3583  6.27973e+21
18.4756  6.24347e+21
18.5929  6.2081e+21
18.7102  6.17368e+21
18.8275  6.13895e+21
18.9449  6.10337e+21
19.0622  6.06478e+21
19.1795  6.0212e+21
19.2968  5.9711e+21
19.4141  5.91283e+21
19.5314  5.84569e+21
19.6487  5.76904e+21
19.766  5.68328e+21
19.8833  5.58993e+21
20.0006  5.49015e+21
20.1179  5.38627e+21
20.2352  5.2804e+21
20.3525  5.17454e+21
20.4698  5.07043e+21
20.5871  4.96868e+21
20.7044  4.86956e+21
20.8217  4.77231e+21
20.939  4.67591e+21
21.0563  4.57883e+21
21.1736  4.47949e+21
21.291  4.37653e+21
21.4083  4.269e+21
21.5256  4.15753e+21
21.6429  4.04248e+21
21.7602  3.92588e+21
21.8775  3.81004e+21
21.9948  3.69765e+21
22.1121  3.59189e+21
22.2294  3.49562e+21
22.3467  3.411e+21
22.464  3.34042e+21
22.5813  3.2847e+21
22.6986  3.24441e+21
22.8159  3.21861e+21
22.9332  3.20603e+21
23.0505  3.2042e+21
23.1678  3.20996e+21
23.2851  3.21981e+21
23.4024  3.23003e+21
23.5198  3.23693e+21
23.6371  3.23756e+21
23.7544  3.22962e+21
23.8717  3.21169e+21
23.989  3.18386e+21
24.1063  3.14712e+21
24.2236  3.10329e+21
24.3409  3.05479e+21
24.4582  3.0046e+21
24.5755  2.95559e+21
24.6928  2.90991e+21
24.8101  2.86959e+21
24.9274  2.83556e+21
25.0447  2.80782e+21
25.162  2.78586e+21
25.2793  2.76778e+21
25.3966  2.75147e+21
25.5139  2.73407e+21
25.6312  2.713e+21
25.7485  2.6858e+21
25.8658  2.65047e+21
25.9832  2.60596e+21
26.1005  2.55173e+21
26.2178  2.48898e+21
26.3351  2.41914e+21
26.4524  2.34456e+21
26.5697  2.268e+21
26.687  2.19217e+21
26.8043  2.11967e+21
26.9216  2.05254e+21
27.0389  1.99221e+21
27.1562  1.93958e+21
27.2735  1.89459e+21
27.3908  1.85706e+21
27.5081  1.82583e+21
27.6254  1.79972e+21
27.7427  1.77721e+21
27.86  1.75676e+21
27.9773  1.73685e+21
28.0946  1.71607e+21
28.212  1.69357e+21
28.3293  1.66874e+21
28.4466  1.64162e+21
28.5639  1.61263e+21
28.6812  1.58266e+21
28.7985  1.55286e+21
28.9158  1.5243e+21
29.0331  1.49809e+21
29.1504  1.47487e+21
29.2677  1.45504e+21
29.385  1.43845e+21
29.5023  1.42475e+21
29.6196  1.41327e+21
29.7369  1.40334e+21
29.8542  1.39419e+21
29.9715  1.38511e+21
30.0888  1.37567e+21
30.2061  1.36529e+21
30.3234  1.3538e+21
30.4407  1.34114e+21
30.558  1.32741e+21
30.6754  1.31283e+21
30.7927  1.29773e+21
30.91  1.28279e+21
31.0273  1.26832e+21
31.1446  1.25469e+21
31.2619  1.24208e+21
31.3792  1.23028e+21
31.4965  1.21864e+21
31.6138  1.20655e+21
31.7311  1.19291e+21
31.8484  1.17696e+21
31.9657  1.15794e+21
32.083  1.13576e+21
32.2003  1.11042e+21
32.3176  1.08259e+21
32.4349  1.05334e+21
32.5522  1.02376e+21
32.6695  9.95221e+20
32.7868  9.68802e+20
32.9042  9.45467e+20
33.0215  9.25868e+20
33.1388  9.10193e+20
33.2561  8.98351e+20
33.3734  8.89677e+20
33.4907  8.83364e+20
33.608  8.78346e+20
33.7253  8.73242e+20
33.8426  8.66873e+20
33.9599  8.58293e+20
34.0772  8.46919e+20
34.1945  8.32785e+20
34.3118  8.16417e+20
34.4291  7.98946e+20
34.5464  7.81669e+20
34.6637  7.65968e+20
34.781  7.53043e+20
34.8983  7.43346e+20
35.0156  7.36811e+20
35.1329  7.327e+20
35.2503  7.29722e+20
35.3676  7.26396e+20
35.4849  7.21328e+20
35.6022  7.13634e+20
35.7195  7.02699e+20
35.8368  6.88697e+20
35.9541  6.72376e+20
36.0714  6.5451e+20
36.1887  6.364e+20
36.306  6.19163e+20
36.4233  6.03508e+20
36.5406  5.90366e+20
36.6579  5.80102e+20
36.7752  5.7311e+20
36.8925  5.69361e+20
37.0098  5.68909e+20
37.1271  5.71454e+20
37.2444  5.76266e+20
37.3617  5.82469e+20
37.479  5.88843e+20
37.5964  5.93842e+20
37.7137  5.96027e+20
37.831  5.941e+20
37.9483  5.87285e+20
38.0656  5.75402e+20
38.1829  5.58954e+20
38.3002  5.39233e+20
38.4175  5.17604e+20
38.5348  4.96119e+20
38.6521  4.76555e+20
38.7694  4.60356e+20
38.8867  4.48751e+20
39.004  4.42217e+20
39.1213  4.40913e+20
39.2386  4.4439e+20
39.3559  4.51899e+20
39.4732  4.62512e+20
39.5905  4.74997e+20
39.7078  4.88226e+20
39.8251  5.01112e+20
39.9425  5.12389e+20
40.0598  5.21384e+20
40.1771  5.27393e+20
40.2944  5.30552e+20
40.4117  5.31026e+20
40.529  5.29768e+20
40.6463  5.2781e+20
40.7636  5.2624e+20
40.8809  5.26501e+20
40.9982  5.2938e+20
41.1155  5.35232e+20
41.2328  5.44031e+20
41.3501  5.55076e+20
41.4674  5.67231e+20
41.5847  5.78906e+20
41.702  5.88652e+20
41.8193  5.94821e+20
41.9366  5.96416e+20
42.0539  5.92688e+20
42.1712  5.83692e+20
42.2885  5.70035e+20
42.4059  5.52589e+20
42.5232  5.33163e+20
42.6405  5.1327e+20
42.7578  4.95051e+20
42.8751  4.79977e+20
42.9924  4.69287e+20
43.1097  4.63637e+20
43.227  4.62974e+20
43.3443  4.66566e+20
43.4616  4.7295e+20
43.5789  4.80475e+20
43.6962  4.87403e+20
43.8135  4.92185e+20
43.9308  4.93836e+20
44.0481  4.91861e+20
44.1654  4.86654e+20
44.2827  4.79168e+20
44.4  4.70914e+20
44.5173  4.63441e+20
44.6347  4.58262e+20
44.752  4.56654e+20
44.8693  4.58964e+20
44.9866  4.65458e+20
45.1039  4.75642e+20
45.2212  4.88599e+20
45.3385  5.03004e+20
45.4558  5.17598e+20
45.5731  5.30852e+20
45.6904  5.41261e+20
45.8077  5.47598e+20
45.925  5.48752e+20
46.0423  5.44014e+20
46.1596  5.32885e+20
46.2769  5.15606e+20
46.3942  4.92848e+20
46.5115  4.65632e+20
46.6288  4.35877e+20
46.7461  4.05348e+20
46.8634  3.7621e+20
46.9808  3.50431e+20
47.0981  3.29384e+20
47.2154  3.14174e+20
47.3327  3.04887e+20
47.45  3.01397e+20
47.5673  3.02653e+20
47.6846  3.07429e+20
47.8019  3.14534e+20
47.9192  3.22601e+20
48.0365  3.30754e+20
48.1538  3.38399e+20
48.2711  3.45431e+20
48.3884  3.52288e+20
48.5057  3.59556e+20
48.623  3.68342e+20
48.7403  3.7939e+20
48.8576  3.93652e+20
48.9749  4.11532e+20
49.0922  4.3301e+20
49.2095  4.57447e+20
49.3269  4.83783e+20
49.4442  5.10447e+20
49.5615  5.35283e+20
49.6788  5.56337e+20
49.7961  5.71918e+20
49.9134  5.80383e+20
50.0307  5.81053e+20
50.148  5.73941e+20
50.2653  5.59621e+20
50.3826  5.39282e+20
50.4999  5.14698e+20
50.6172  4.87775e+20
50.7345  4.60489e+20
50.8518  4.3457e+20
