#S 1 spectral density
#N 2
#UFWHM 29.3263
#L  abscissas [um]  spectral density
-58.5938  2.11485e+20
-58.4764  2.1193e+20
-58.3591  2.10579e+20
-58.2418  2.07371e+20
-58.1245  2.02498e+20
-58.0072  1.96326e+20
-57.8899  1.89387e+20
-57.7726  1.8224e+20
-57.6553  1.75383e+20
-57.538  1.69109e+20
-57.4207  1.63533e+20
-57.3034  1.58608e+20
-57.1861  1.54237e+20
-57.0688  1.50273e+20
-56.9515  1.46885e+20
-56.8342  1.44369e+20
-56.7169  1.43225e+20
-56.5996  1.43982e+20
-56.4823  1.47063e+20
-56.365  1.52562e+20
-56.2477  1.60207e+20
-56.1303  1.69412e+20
-56.013  1.79187e+20
-55.8957  1.88564e+20
-55.7784  1.96659e+20
-55.6611  2.02874e+20
-55.5438  2.07056e+20
-55.4265  2.09374e+20
-55.3092  2.10424e+20
-55.1919  2.10869e+20
-55.0746  2.11498e+20
-54.9573  2.12856e+20
-54.84  2.1524e+20
-54.7227  2.18913e+20
-54.6054  2.2367e+20
-54.4881  2.2928e+20
-54.3708  2.35306e+20
-54.2535  2.41349e+20
-54.1362  2.46831e+20
-54.0189  2.51198e+20
-53.9016  2.53904e+20
-53.7842  2.54398e+20
-53.6669  2.52286e+20
-53.5496  2.47459e+20
-53.4323  2.40003e+20
-53.315  2.30399e+20
-53.1977  2.19307e+20
-53.0804  2.07565e+20
-52.9631  1.95994e+20
-52.8458  1.8525e+20
-52.7285  1.75679e+20
-52.6112  1.6739e+20
-52.4939  1.60148e+20
-52.3766  1.53709e+20
-52.2593  1.47757e+20
-52.142  1.42202e+20
-52.0247  1.37261e+20
-51.9074  1.33352e+20
-51.7901  1.31182e+20
-51.6728  1.31463e+20
-51.5555  1.34813e+20
-51.4381  1.41762e+20
-51.3208  1.52314e+20
-51.2035  1.66358e+20
-51.0862  1.83314e+20
-50.9689  2.02586e+20
-50.8516  2.23352e+20
-50.7343  2.44774e+20
-50.617  2.66044e+20
-50.4997  2.86556e+20
-50.3824  3.05498e+20
-50.2651  3.22372e+20
-50.1478  3.36482e+20
-50.0305  3.47409e+20
-49.9132  3.54679e+20
-49.7959  3.58067e+20
-49.6786  3.57469e+20
-49.5613  3.52959e+20
-49.444  3.44913e+20
-49.3267  3.33738e+20
-49.2094  3.20057e+20
-49.092  3.04534e+20
-48.9747  2.87932e+20
-48.8574  2.70946e+20
-48.7401  2.5418e+20
-48.6228  2.38284e+20
-48.5055  2.23753e+20
-48.3882  2.10932e+20
-48.2709  2.0015e+20
-48.1536  1.91699e+20
-48.0363  1.85768e+20
-47.919  1.82642e+20
-47.8017  1.82611e+20
-47.6844  1.86104e+20
-47.5671  1.93492e+20
-47.4498  2.05075e+20
-47.3325  2.21088e+20
-47.2152  2.41217e+20
-47.0979  2.64905e+20
-46.9806  2.90966e+20
-46.8633  3.17784e+20
-46.7459  3.43401e+20
-46.6286  3.65725e+20
-46.5113  3.82972e+20
-46.394  3.93719e+20
-46.2767  3.97296e+20
-46.1594  3.93836e+20
-46.0421  3.84294e+20
-45.9248  3.70403e+20
-45.8075  3.54313e+20
-45.6902  3.38418e+20
-45.5729  3.24983e+20
-45.4556  3.1591e+20
-45.3383  3.12611e+20
-45.221  3.15726e+20
-45.1037  3.25209e+20
-44.9864  3.40211e+20
-44.8691  3.59379e+20
-44.7518  3.80899e+20
-44.6345  4.02686e+20
-44.5172  4.2245e+20
-44.3998  4.38285e+20
-44.2825  4.486e+20
-44.1652  4.52663e+20
-44.0479  4.50259e+20
-43.9306  4.42229e+20
-43.8133  4.30076e+20
-43.696  4.15698e+20
-43.5787  4.01428e+20
-43.4614  3.89408e+20
-43.3441  3.8125e+20
-43.2268  3.77975e+20
-43.1095  3.79738e+20
-42.9922  3.85998e+20
-42.8749  3.95534e+20
-42.7576  4.06749e+20
-42.6403  4.18018e+20
-42.523  4.27922e+20
-42.4057  4.35412e+20
-42.2884  4.40164e+20
-42.171  4.42348e+20
-42.0537  4.42407e+20
-41.9364  4.4144e+20
-41.8191  4.40438e+20
-41.7018  4.40661e+20
-41.5845  4.42884e+20
-41.4672  4.47722e+20
-41.3499  4.55414e+20
-41.2326  4.65748e+20
-41.1153  4.78117e+20
-40.998  4.91537e+20
-40.8807  5.04662e+20
-40.7634  5.16313e+20
-40.6461  5.2506e+20
-40.5288  5.30027e+20
-40.4115  5.3027e+20
-40.2942  5.25628e+20
-40.1769  5.16327e+20
-40.0596  5.03226e+20
-39.9423  4.87422e+20
-39.825  4.70327e+20
-39.7076  4.53608e+20
-39.5903  4.38711e+20
-39.473  4.2718e+20
-39.3557  4.20177e+20
-39.2384  4.18588e+20
-39.1211  4.22905e+20
-39.0038  4.33228e+20
-38.8865  4.49027e+20
-38.7692  4.69289e+20
-38.6519  4.92483e+20
-38.5346  5.16703e+20
-38.4173  5.39828e+20
-38.3  5.59815e+20
-38.1827  5.74982e+20
-38.0654  5.84441e+20
-37.9481  5.87935e+20
-37.8308  5.86412e+20
-37.7135  5.8131e+20
-37.5962  5.74925e+20
-37.4789  5.6948e+20
-37.3615  5.66892e+20
-37.2442  5.68589e+20
-37.1269  5.74841e+20
-37.0096  5.85408e+20
-36.8923  5.98878e+20
-36.775  6.13599e+20
-36.6577  6.27708e+20
-36.5404  6.39644e+20
-36.4231  6.48254e+20
-36.3058  6.52892e+20
-36.1885  6.53883e+20
-36.0712  6.51813e+20
-35.9539  6.47778e+20
-35.8366  6.43085e+20
-35.7193  6.39002e+20
-35.602  6.37019e+20
-35.4847  6.38015e+20
-35.3674  6.42741e+20
-35.2501  6.51657e+20
-35.1328  6.6458e+20
-35.0154  6.80873e+20
-34.8981  6.99027e+20
-34.7808  7.17217e+20
-34.6635  7.33441e+20
-34.5462  7.45247e+20
-34.4289  7.50716e+20
-34.3116  7.48556e+20
-34.1943  7.38153e+20
-34.077  7.19748e+20
-33.9597  6.94801e+20
-33.8424  6.65219e+20
-33.7251  6.33588e+20
-33.6078  6.02248e+20
-33.4905  5.73541e+20
-33.3732  5.49294e+20
-33.2559  5.30598e+20
-33.1386  5.18128e+20
-33.0213  5.11785e+20
-32.904  5.11098e+20
-32.7867  5.15286e+20
-32.6693  5.23454e+20
-32.552  5.34568e+20
-32.4347  5.47563e+20
-32.3174  5.61494e+20
-32.2001  5.75725e+20
-32.0828  5.89797e+20
-31.9655  6.03615e+20
-31.8482  6.1742e+20
-31.7309  6.31893e+20
-31.6136  6.47916e+20
-31.4963  6.66447e+20
-31.379  6.8835e+20
-31.2617  7.14417e+20
-31.1444  7.44812e+20
-31.0271  7.79445e+20
-30.9098  8.17949e+20
-30.7925  8.59264e+20
-30.6752  9.02352e+20
-30.5579  9.46167e+20
-30.4406  9.89528e+20
-30.3232  1.03151e+21
-30.2059  1.07124e+21
-30.0886  1.10822e+21
-29.9713  1.14225e+21
-29.854  1.17331e+21
-29.7367  1.20156e+21
-29.6194  1.22749e+21
-29.5021  1.25163e+21
-29.3848  1.2745e+21
-29.2675  1.29656e+21
-29.1502  1.31798e+21
-29.0329  1.33864e+21
-28.9156  1.35814e+21
-28.7983  1.37565e+21
-28.681  1.39037e+21
-28.5637  1.40163e+21
-28.4464  1.40895e+21
-28.3291  1.41235e+21
-28.2118  1.41233e+21
-28.0944  1.40998e+21
-27.9771  1.40674e+21
-27.8598  1.40419e+21
-27.7425  1.40378e+21
-27.6252  1.40686e+21
-27.5079  1.41421e+21
-27.3906  1.42624e+21
-27.2733  1.443e+21
-27.156  1.46404e+21
-27.0387  1.48913e+21
-26.9214  1.5177e+21
-26.8041  1.54954e+21
-26.6868  1.58458e+21
-26.5695  1.62301e+21
-26.4522  1.66525e+21
-26.3349  1.7119e+21
-26.2176  1.76355e+21
-26.1003  1.82051e+21
-25.983  1.88312e+21
-25.8657  1.95113e+21
-25.7483  2.02366e+21
-25.631  2.09934e+21
-25.5137  2.17589e+21
-25.3964  2.25088e+21
-25.2791  2.32113e+21
-25.1618  2.38369e+21
-25.0445  2.43563e+21
-24.9272  2.47488e+21
-24.8099  2.50008e+21
-24.6926  2.51118e+21
-24.5753  2.50908e+21
-24.458  2.49608e+21
-24.3407  2.47516e+21
-24.2234  2.45037e+21
-24.1061  2.42569e+21
-23.9888  2.40552e+21
-23.8715  2.39388e+21
-23.7542  2.39433e+21
-23.6369  2.40943e+21
-23.5196  2.44081e+21
-23.4023  2.48916e+21
-23.2849  2.55361e+21
-23.1676  2.6323e+21
-23.0503  2.72216e+21
-22.933  2.81945e+21
-22.8157  2.91974e+21
-22.6984  3.01874e+21
-22.5811  3.11237e+21
-22.4638  3.19755e+21
-22.3465  3.27209e+21
-22.2292  3.33528e+21
-22.1119  3.38764e+21
-21.9946  3.43114e+21
-21.8773  3.46863e+21
-21.76  3.50357e+21
-21.6427  3.53991e+21
-21.5254  3.58129e+21
-21.4081  3.63082e+21
-21.2908  3.69059e+21
-21.1735  3.76179e+21
-21.0561  3.84408e+21
-20.9388  3.93613e+21
-20.8215  4.03482e+21
-20.7042  4.1367e+21
-20.5869  4.23727e+21
-20.4696  4.33226e+21
-20.3523  4.41742e+21
-20.235  4.4899e+21
-20.1177  4.54729e+21
-20.0004  4.58953e+21
-19.8831  4.61762e+21
-19.7658  4.63411e+21
-19.6485  4.64251e+21
-19.5312  4.64747e+21
-19.4139  4.65282e+21
-19.2966  4.66291e+21
-19.1793  4.68079e+21
-19.062  4.70879e+21
-18.9447  4.7474e+21
-18.8274  4.79626e+21
-18.71  4.85439e+21
-18.5927  4.91953e+21
-18.4754  4.98921e+21
-18.3581  5.06116e+21
-18.2408  5.13327e+21
-18.1235  5.20436e+21
-18.0062  5.27396e+21
-17.8889  5.34224e+21
-17.7716  5.41105e+21
-17.6543  5.48183e+21
-17.537  5.55745e+21
-17.4197  5.64016e+21
-17.3024  5.73258e+21
-17.1851  5.83641e+21
-17.0678  5.95218e+21
-16.9505  6.08019e+21
-16.8332  6.2193e+21
-16.7159  6.36717e+21
-16.5986  6.52058e+21
-16.4813  6.6761e+21
-16.364  6.82982e+21
-16.2466  6.97848e+21
-16.1293  7.11868e+21
-16.012  7.24803e+21
-15.8947  7.3651e+21
-15.7774  7.46974e+21
-15.6601  7.56255e+21
-15.5428  7.64544e+21
-15.4255  7.72052e+21
-15.3082  7.79126e+21
-15.1909  7.86165e+21
-15.0736  7.93433e+21
-14.9563  8.01266e+21
-14.839  8.09879e+21
-14.7217  8.19343e+21
-14.6044  8.29637e+21
-14.4871  8.40574e+21
-14.3698  8.51863e+21
-14.2525  8.63105e+21
-14.1352  8.73829e+21
-14.0178  8.83715e+21
-13.9005  8.92368e+21
-13.7832  8.99597e+21
-13.6659  9.05393e+21
-13.5486  9.09856e+21
-13.4313  9.13317e+21
-13.314  9.16181e+21
-13.1967  9.18964e+21
-13.0794  9.22293e+21
-12.9621  9.26572e+21
-12.8448  9.32363e+21
-12.7275  9.39918e+21
-12.6102  9.49443e+21
-12.4929  9.60925e+21
-12.3756  9.74148e+21
-12.2583  9.88835e+21
-12.141  1.00452e+22
-12.0237  1.0206e+22
-11.9064  1.03648e+22
-11.7891  1.05156e+22
-11.6718  1.06528e+22
-11.5544  1.07729e+22
-11.4371  1.08739e+22
-11.3198  1.09546e+22
-11.2025  1.10171e+22
-11.0852  1.10649e+22
-10.9679  1.11028e+22
-10.8506  1.11366e+22
-10.7333  1.11722e+22
-10.616  1.12155e+22
-10.4987  1.1273e+22
-10.3814  1.13469e+22
-10.2641  1.14405e+22
-10.1468  1.15543e+22
-10.0295  1.16873e+22
-9.91217  1.18359e+22
-9.79487  1.19961e+22
-9.67756  1.21617e+22
-9.56026  1.23259e+22
-9.44295  1.24812e+22
-9.32565  1.26218e+22
-9.20834  1.27408e+22
-9.09104  1.28339e+22
-8.97373  1.28986e+22
-8.85643  1.29335e+22
-8.73913  1.29401e+22
-8.62182  1.29215e+22
-8.50452  1.28826e+22
-8.38721  1.28301e+22
-8.26991  1.27695e+22
-8.1526  1.27092e+22
-8.03529  1.26551e+22
-7.91799  1.26136e+22
-7.80069  1.25896e+22
-7.68338  1.25869e+22
-7.56608  1.26083e+22
-7.44877  1.2655e+22
-7.33146  1.27266e+22
-7.21416  1.2822e+22
-7.09685  1.29388e+22
-6.97955  1.30734e+22
-6.86224  1.3222e+22
-6.74494  1.33815e+22
-6.62763  1.35458e+22
-6.51033  1.37114e+22
-6.39302  1.38738e+22
-6.27572  1.40289e+22
-6.15842  1.41732e+22
-6.04111  1.43041e+22
-5.92381  1.44192e+22
-5.8065  1.45185e+22
-5.68919  1.46009e+22
-5.57189  1.46681e+22
-5.45458  1.47214e+22
-5.33728  1.4764e+22
-5.21997  1.47978e+22
-5.10267  1.48257e+22
-4.98536  1.48502e+22
-4.86806  1.48725e+22
-4.75075  1.48938e+22
-4.63345  1.49145e+22
-4.51614  1.49339e+22
-4.39884  1.4951e+22
-4.28154  1.49656e+22
-4.16423  1.49757e+22
-4.04692  1.49806e+22
-3.92962  1.49801e+22
-3.81231  1.49744e+22
-3.69501  1.49639e+22
-3.5777  1.49498e+22
-3.4604  1.49341e+22
-3.34309  1.49188e+22
-3.22579  1.49066e+22
-3.10849  1.48999e+22
-2.99118  1.49015e+22
-2.87387  1.49144e+22
-2.75657  1.49408e+22
-2.63926  1.49826e+22
-2.52196  1.5041e+22
-2.40465  1.5116e+22
-2.28735  1.52067e+22
-2.17005  1.53114e+22
-2.05274  1.54282e+22
-1.93544  1.55518e+22
-1.81813  1.56784e+22
-1.70083  1.58032e+22
-1.58352  1.5921e+22
-1.46622  1.60272e+22
-1.34891  1.61182e+22
-1.2316  1.61909e+22
-1.1143  1.62442e+22
-0.996995  1.62778e+22
-0.87969  1.62937e+22
-0.762385  1.62939e+22
-0.64508  1.62829e+22
-0.527775  1.62647e+22
-0.41047  1.62434e+22
-0.293165  1.62233e+22
-0.17586  1.62078e+22
-0.058555  1.61993e+22
0.05875  1.61991e+22
0.176055  1.6207e+22
0.29336  1.62218e+22
0.410665  1.62414e+22
0.52797  1.62621e+22
0.645275  1.62795e+22
0.76258  1.62896e+22
0.879885  1.62883e+22
0.99719  1.62715e+22
1.1145  1.62366e+22
1.2318  1.61822e+22
1.3491  1.61086e+22
1.46641  1.60167e+22
1.58371  1.59093e+22
1.70102  1.57905e+22
1.81832  1.56649e+22
1.93563  1.55371e+22
2.05294  1.54127e+22
2.17024  1.52958e+22
2.28754  1.519e+22
2.40485  1.50986e+22
2.52216  1.50228e+22
2.63946  1.49641e+22
2.75677  1.49214e+22
2.87407  1.48943e+22
2.99137  1.48802e+22
3.10868  1.48774e+22
3.22599  1.48828e+22
3.34329  1.48942e+22
3.4606  1.49083e+22
3.5779  1.49227e+22
3.69521  1.49352e+22
3.81251  1.49444e+22
3.92982  1.49485e+22
4.04712  1.49475e+22
4.16443  1.49412e+22
4.28173  1.49299e+22
4.39903  1.49144e+22
4.51634  1.48959e+22
4.63364  1.48759e+22
4.75095  1.48543e+22
4.86825  1.48322e+22
4.98556  1.48091e+22
5.10286  1.47842e+22
5.22017  1.47557e+22
5.33748  1.47213e+22
5.45478  1.46784e+22
5.57209  1.46243e+22
5.68939  1.45565e+22
5.8067  1.44734e+22
5.924  1.43737e+22
6.0413  1.42579e+22
6.15861  1.41263e+22
6.27591  1.39814e+22
6.39322  1.3826e+22
6.51052  1.36635e+22
6.62783  1.34973e+22
6.74514  1.33327e+22
6.86244  1.31737e+22
6.97975  1.30247e+22
7.09705  1.28904e+22
7.21436  1.2774e+22
7.33166  1.26788e+22
7.44897  1.26073e+22
7.56627  1.2561e+22
7.68358  1.25395e+22
7.80088  1.25419e+22
7.91819  1.25655e+22
8.03549  1.26066e+22
8.1528  1.26602e+22
8.2701  1.27195e+22
8.38741  1.27784e+22
8.50471  1.28297e+22
8.62202  1.28666e+22
8.73932  1.28831e+22
8.85662  1.28748e+22
8.97393  1.28381e+22
9.09123  1.27717e+22
9.20854  1.26769e+22
9.32584  1.2557e+22
9.44315  1.24156e+22
9.56045  1.22594e+22
9.67776  1.20951e+22
9.79506  1.19295e+22
9.91237  1.17698e+22
10.0297  1.16217e+22
10.147  1.14896e+22
10.2643  1.13768e+22
10.3816  1.12838e+22
10.4989  1.12105e+22
10.6162  1.11541e+22
10.7335  1.11108e+22
10.8508  1.1075e+22
10.9681  1.10411e+22
11.0854  1.10032e+22
11.2027  1.0955e+22
11.32  1.08916e+22
11.4373  1.081e+22
11.5546  1.07085e+22
11.6719  1.05874e+22
11.7893  1.04498e+22
11.9066  1.02987e+22
12.0239  1.01397e+22
12.1412  9.9792e+21
12.2585  9.82292e+21
12.3758  9.67646e+21
12.4931  9.54469e+21
12.6104  9.43056e+21
12.7277  9.33615e+21
12.845  9.26148e+21
12.9623  9.20406e+21
13.0796  9.16148e+21
13.1969  9.12874e+21
13.3142  9.10064e+21
13.4315  9.07154e+21
13.5488  9.03658e+21
13.6661  8.99125e+21
13.7834  8.93236e+21
13.9007  8.85902e+21
14.018  8.77185e+21
14.1354  8.67211e+21
14.2527  8.56376e+21
14.37  8.4509e+21
14.4873  8.33733e+21
14.6046  8.22758e+21
14.7219  8.12431e+21
14.8392  8.02951e+21
14.9565  7.94353e+21
15.0738  7.86499e+21
15.1911  7.79252e+21
15.3084  7.72244e+21
15.4257  7.65169e+21
15.543  7.57667e+21
15.6603  7.49423e+21
15.7776  7.40205e+21
15.8949  7.29803e+21
16.0122  7.18146e+21
16.1295  7.0527e+21
16.2468  6.91334e+21
16.3641  6.76561e+21
16.4815  6.61291e+21
16.5988  6.4585e+21
16.7161  6.30599e+21
16.8334  6.15959e+21
16.9507  6.02172e+21
17.068  5.89486e+21
17.1853  5.78009e+21
17.3026  5.67739e+21
17.4199  5.58606e+21
17.5372  5.50432e+21
17.6545  5.42935e+21
17.7718  5.35941e+21
17.8891  5.29135e+21
18.0064  5.22364e+21
18.1237  5.15455e+21
18.241  5.08392e+21
18.3583  5.01218e+21
18.4756  4.94058e+21
18.5929  4.87126e+21
18.7102  4.80659e+21
18.8275  4.74866e+21
18.9449  4.69991e+21
19.0622  4.66155e+21
19.1795  4.63364e+21
19.2968  4.61568e+21
19.4141  4.60536e+21
19.5314  4.59981e+21
19.6487  4.59468e+21
19.766  4.58572e+21
19.8833  4.5689e+21
20.0006  4.54033e+21
20.1179  4.4977e+21
20.2352  4.43993e+21
20.3525  4.36755e+21
20.4698  4.28251e+21
20.5871  4.18792e+21
20.7044  4.08786e+21
20.8217  3.98663e+21
20.939  3.88864e+21
21.0563  3.79751e+21
21.1736  3.71605e+21
21.291  3.64579e+21
21.4083  3.58658e+21
21.5256  3.53789e+21
21.6429  3.49706e+21
21.7602  3.46124e+21
21.8775  3.42654e+21
21.9948  3.38934e+21
22.1121  3.34603e+21
22.2294  3.29391e+21
22.3467  3.23081e+21
22.464  3.15669e+21
22.5813  3.07192e+21
22.6986  2.97896e+21
22.8159  2.88068e+21
22.9332  2.78128e+21
23.0505  2.68504e+21
23.1678  2.5963e+21
23.2851  2.51881e+21
23.4024  2.4555e+21
23.5198  2.40824e+21
23.6371  2.37783e+21
23.7544  2.36368e+21
23.8717  2.36396e+21
23.989  2.37609e+21
24.1063  2.39663e+21
24.2236  2.42154e+21
24.3409  2.44639e+21
24.4582  2.46722e+21
24.5755  2.48009e+21
24.6928  2.48196e+21
24.8101  2.47062e+21
24.9274  2.44525e+21
25.0447  2.40591e+21
25.162  2.35404e+21
25.2793  2.29173e+21
25.3966  2.22186e+21
25.5139  2.14734e+21
25.6312  2.07127e+21
25.7485  1.99628e+21
25.8658  1.92443e+21
25.9832  1.85729e+21
26.1005  1.79534e+21
26.2178  1.73907e+21
26.3351  1.68816e+21
26.4524  1.64218e+21
26.5697  1.6005e+21
26.687  1.56263e+21
26.8043  1.52809e+21
26.9216  1.49671e+21
27.0389  1.46858e+21
27.1562  1.44403e+21
27.2735  1.42329e+21
27.3908  1.40702e+21
27.5081  1.39541e+21
27.6254  1.38843e+21
27.7427  1.38575e+21
27.86  1.3865e+21
27.9773  1.38941e+21
28.0946  1.39291e+21
28.212  1.39548e+21
28.3293  1.39573e+21
28.4466  1.39255e+21
28.5639  1.38552e+21
28.6812  1.37447e+21
28.7985  1.36005e+21
28.9158  1.34284e+21
29.0331  1.32368e+21
29.1504  1.30338e+21
29.2677  1.2823e+21
29.385  1.26058e+21
29.5023  1.23801e+21
29.6196  1.21415e+21
29.7369  1.18847e+21
29.8542  1.16043e+21
29.9715  1.12962e+21
30.0888  1.09584e+21
30.2061  1.05904e+21
30.3234  1.01955e+21
30.4407  9.77872e+20
30.558  9.34866e+20
30.6754  8.91445e+20
30.7927  8.48695e+20
30.91  8.07846e+20
31.0273  7.69938e+20
31.1446  7.35734e+20
31.2619  7.05846e+20
31.3792  6.80308e+20
31.4965  6.58787e+20
31.6138  6.40664e+20
31.7311  6.24979e+20
31.8484  6.10788e+20
31.9657  5.97157e+20
32.083  5.83568e+20
32.2003  5.69725e+20
32.3176  5.55639e+20
32.4349  5.4191e+20
32.5522  5.29113e+20
32.6695  5.18265e+20
32.7868  5.10386e+20
32.9042  5.06457e+20
33.0215  5.0748e+20
33.1388  5.1418e+20
33.2561  5.27048e+20
33.3734  5.46009e+20
33.4907  5.70517e+20
33.608  5.99503e+20
33.7253  6.30936e+20
33.8426  6.62617e+20
33.9599  6.92122e+20
34.0772  7.16886e+20
34.1945  7.35066e+20
34.3118  7.45228e+20
34.4291  7.47242e+20
34.5464  7.4156e+20
34.6637  7.29586e+20
34.781  7.13398e+20
34.8983  6.95149e+20
35.0156  6.77103e+20
35.1329  6.61146e+20
35.2503  6.48446e+20
35.3676  6.39762e+20
35.4849  6.3514e+20
35.6022  6.34412e+20
35.7195  6.36622e+20
35.8368  6.40786e+20
35.9541  6.45611e+20
36.0714  6.49599e+20
36.1887  6.51679e+20
36.306  6.50729e+20
36.4233  6.45894e+20
36.5406  6.37254e+20
36.6579  6.25332e+20
36.7752  6.11278e+20
36.8925  5.96616e+20
37.0098  5.8335e+20
37.1271  5.73057e+20
37.2444  5.67014e+20
37.3617  5.65556e+20
37.479  5.68345e+20
37.5964  5.74003e+20
37.7137  5.80413e+20
37.831  5.85512e+20
37.9483  5.86894e+20
38.0656  5.83276e+20
38.1829  5.7371e+20
38.3002  5.58381e+20
38.4175  5.38288e+20
38.5348  5.15094e+20
38.6521  4.90914e+20
38.7694  4.67749e+20
38.8867  4.4756e+20
39.004  4.31892e+20
39.1213  4.21737e+20
39.2386  4.1758e+20
39.3559  4.19301e+20
39.4732  4.26428e+20
39.5905  4.38013e+20
39.7078  4.52925e+20
39.8251  4.69731e+20
39.9425  4.86722e+20
40.0598  5.02599e+20
40.1771  5.15544e+20
40.2944  5.24677e+20
40.4117  5.29183e+20
40.529  5.28852e+20
40.6463  5.23804e+20
40.7636  5.14903e+20
40.8809  5.03257e+20
40.9982  4.90045e+20
41.1155  4.76658e+20
41.2328  4.64333e+20
41.3501  4.541e+20
41.4674  4.4647e+20
41.5847  4.41714e+20
41.702  4.39672e+20
41.8193  4.39508e+20
41.9366  4.40587e+20
42.0539  4.41607e+20
42.1712  4.41501e+20
42.2885  4.39387e+20
42.4059  4.34566e+20
42.5232  4.27029e+20
42.6405  4.1704e+20
42.7578  4.05808e+20
42.8751  3.94623e+20
42.9924  3.85073e+20
43.1097  3.78915e+20
43.227  3.77223e+20
43.3443  3.80593e+20
43.4616  3.88808e+20
43.5789  4.00846e+20
43.6962  4.15062e+20
43.8135  4.29259e+20
43.9308  4.41291e+20
44.0481  4.49089e+20
44.1654  4.51266e+20
44.2827  4.47047e+20
44.4  4.36518e+20
44.5173  4.20513e+20
44.6347  4.00667e+20
44.752  3.7898e+20
44.8693  3.57533e+20
44.9866  3.38428e+20
45.1039  3.23615e+20
45.2212  3.14372e+20
45.3385  3.11412e+20
45.4558  3.14928e+20
45.5731  3.24092e+20
45.6904  3.37563e+20
45.8077  3.53443e+20
45.925  3.69431e+20
46.0423  3.83177e+20
46.1596  3.92458e+20
46.2769  3.95654e+20
46.3942  3.91816e+20
46.5115  3.80818e+20
46.6288  3.63414e+20
46.7461  3.40984e+20
46.8634  3.15358e+20
46.9808  2.88556e+20
47.0981  2.62623e+20
47.2154  2.39092e+20
47.3327  2.19151e+20
47.45  2.03324e+20
47.5673  1.91914e+20
47.6846  1.84685e+20
47.8019  1.81373e+20
47.9192  1.81515e+20
48.0365  1.84747e+20
48.1538  1.90774e+20
48.2711  1.99312e+20
48.3884  2.10149e+20
48.5057  2.23e+20
48.623  2.37573e+20
48.7403  2.53464e+20
48.8576  2.70208e+20
48.9749  2.87195e+20
49.0922  3.03719e+20
49.2095  3.19108e+20
49.3269  3.32675e+20
49.4442  3.43734e+20
49.5615  3.51667e+20
49.6788  3.56e+20
49.7961  3.56479e+20
49.9134  3.52975e+20
50.0307  3.45581e+20
50.148  3.34618e+20
50.2653  3.2042e+20
50.3826  3.03547e+20
50.4999  2.84577e+20
50.6172  2.64153e+20
50.7345  2.42867e+20
