#S 1 spectral density
#N 2
#UFWHM 21.5841
#L  abscissas [um]  spectral density
-58.5938  6.13623e+19
-58.4764  6.04245e+19
-58.3591  5.96505e+19
-58.2418  5.87545e+19
-58.1245  5.74746e+19
-58.0072  5.58109e+19
-57.8899  5.39765e+19
-57.7726  5.22793e+19
-57.6553  5.11325e+19
-57.538  5.08466e+19
-57.4207  5.15457e+19
-57.3034  5.31917e+19
-57.1861  5.5551e+19
-57.0688  5.83687e+19
-56.9515  6.1281e+19
-56.8342  6.40311e+19
-56.7169  6.63872e+19
-56.5996  6.818e+19
-56.4823  6.9251e+19
-56.365  6.93948e+19
-56.2477  6.84987e+19
-56.1303  6.64049e+19
-56.013  6.32089e+19
-55.8957  5.91526e+19
-55.7784  5.48459e+19
-55.6611  5.10316e+19
-55.5438  4.85692e+19
-55.4265  4.83108e+19
-55.3092  5.0695e+19
-55.1919  5.57733e+19
-55.0746  6.30175e+19
-54.9573  7.14569e+19
-54.84  7.9781e+19
-54.7227  8.66237e+19
-54.6054  9.08802e+19
-54.4881  9.18722e+19
-54.3708  8.95218e+19
-54.2535  8.42453e+19
-54.1362  7.6942e+19
-54.0189  6.8618e+19
-53.9016  6.03539e+19
-53.7842  5.29909e+19
-53.6669  4.70636e+19
-53.5496  4.28164e+19
-53.4323  4.02755e+19
-53.315  3.93568e+19
-53.1977  3.99383e+19
-53.0804  4.19586e+19
-52.9631  4.542e+19
-52.8458  5.02922e+19
-52.7285  5.65443e+19
-52.6112  6.39818e+19
-52.4939  7.23503e+19
-52.3766  8.12158e+19
-52.2593  9.01997e+19
-52.142  9.88993e+19
-52.0247  1.06995e+20
-51.9074  1.14324e+20
-51.7901  1.20742e+20
-51.6728  1.2628e+20
-51.5555  1.30882e+20
-51.4381  1.34433e+20
-51.3208  1.36886e+20
-51.2035  1.37993e+20
-51.0862  1.37679e+20
-50.9689  1.35779e+20
-50.8516  1.32322e+20
-50.7343  1.27479e+20
-50.617  1.21504e+20
-50.4997  1.14707e+20
-50.3824  1.07505e+20
-50.2651  1.00201e+20
-50.1478  9.31614e+19
-50.0305  8.657e+19
-49.9132  8.06919e+19
-49.7959  7.56811e+19
-49.6786  7.17734e+19
-49.5613  6.91691e+19
-49.444  6.81472e+19
-49.3267  6.89745e+19
-49.2094  7.19275e+19
-49.092  7.71905e+19
-48.9747  8.48949e+19
-48.8574  9.49686e+19
-48.7401  1.0723e+20
-48.6228  1.21246e+20
-48.5055  1.36393e+20
-48.3882  1.51948e+20
-48.2709  1.6698e+20
-48.1536  1.80588e+20
-48.0363  1.91941e+20
-47.919  2.0045e+20
-47.8017  2.05787e+20
-47.6844  2.07989e+20
-47.5671  2.07447e+20
-47.4498  2.04892e+20
-47.3325  2.0105e+20
-47.2152  1.96822e+20
-47.0979  1.92886e+20
-46.9806  1.89591e+20
-46.8633  1.87127e+20
-46.7459  1.85473e+20
-46.6286  1.84353e+20
-46.5113  1.83585e+20
-46.394  1.82953e+20
-46.2767  1.82486e+20
-46.1594  1.8221e+20
-46.0421  1.82173e+20
-45.9248  1.82306e+20
-45.8075  1.82385e+20
-45.6902  1.81851e+20
-45.5729  1.80084e+20
-45.4556  1.76251e+20
-45.3383  1.69815e+20
-45.221  1.60475e+20
-45.1037  1.48535e+20
-44.9864  1.34838e+20
-44.8691  1.20817e+20
-44.7518  1.08192e+20
-44.6345  9.87844e+19
-44.5172  9.42402e+19
-44.3998  9.56762e+19
-44.2825  1.03561e+20
-44.1652  1.1766e+20
-44.0479  1.37111e+20
-43.9306  1.60573e+20
-43.8133  1.86455e+20
-43.696  2.13114e+20
-43.5787  2.39115e+20
-43.4614  2.63288e+20
-43.3441  2.84882e+20
-43.2268  3.03412e+20
-43.1095  3.18781e+20
-42.9922  3.31071e+20
-42.8749  3.40654e+20
-42.7576  3.47854e+20
-42.6403  3.53211e+20
-42.523  3.57042e+20
-42.4057  3.59741e+20
-42.2884  3.6145e+20
-42.171  3.62094e+20
-42.0537  3.61567e+20
-41.9364  3.59512e+20
-41.8191  3.55688e+20
-41.7018  3.49762e+20
-41.5845  3.41775e+20
-41.4672  3.31985e+20
-41.3499  3.21048e+20
-41.2326  3.09762e+20
-41.1153  2.99302e+20
-40.998  2.90807e+20
-40.8807  2.85178e+20
-40.7634  2.83179e+20
-40.6461  2.8502e+20
-40.5288  2.90621e+20
-40.4115  2.99473e+20
-40.2942  3.10569e+20
-40.1769  3.22908e+20
-40.0596  3.35372e+20
-39.9423  3.46863e+20
-39.825  3.56371e+20
-39.7076  3.63092e+20
-39.5903  3.66672e+20
-39.473  3.67011e+20
-39.3557  3.64133e+20
-39.2384  3.58677e+20
-39.1211  3.51436e+20
-39.0038  3.43319e+20
-38.8865  3.35341e+20
-38.7692  3.28538e+20
-38.6519  3.23426e+20
-38.5346  3.20459e+20
-38.4173  3.1936e+20
-38.3  3.19831e+20
-38.1827  3.21046e+20
-38.0654  3.22187e+20
-37.9481  3.22524e+20
-37.8308  3.21409e+20
-37.7135  3.18555e+20
-37.5962  3.13981e+20
-37.4789  3.07805e+20
-37.3615  3.00414e+20
-37.2442  2.92125e+20
-37.1269  2.83446e+20
-37.0096  2.74831e+20
-36.8923  2.6675e+20
-36.775  2.59913e+20
-36.6577  2.5496e+20
-36.5404  2.52797e+20
-36.4231  2.54209e+20
-36.3058  2.59693e+20
-36.1885  2.69539e+20
-36.0712  2.83518e+20
-35.9539  3.00971e+20
-35.8366  3.20822e+20
-35.7193  3.41824e+20
-35.602  3.62738e+20
-35.4847  3.82865e+20
-35.3674  4.01899e+20
-35.2501  4.20191e+20
-35.1328  4.38459e+20
-35.0154  4.57772e+20
-34.8981  4.79039e+20
-34.7808  5.03035e+20
-34.6635  5.29662e+20
-34.5462  5.58281e+20
-34.4289  5.87752e+20
-34.3116  6.16113e+20
-34.1943  6.41269e+20
-34.077  6.61103e+20
-33.9597  6.736e+20
-33.8424  6.77369e+20
-33.7251  6.71468e+20
-33.6078  6.55647e+20
-33.4905  6.30419e+20
-33.3732  5.96931e+20
-33.2559  5.57129e+20
-33.1386  5.13285e+20
-33.0213  4.68234e+20
-32.904  4.24934e+20
-32.7867  3.86085e+20
-32.6693  3.53901e+20
-32.552  3.2998e+20
-32.4347  3.14749e+20
-32.3174  3.08075e+20
-32.2001  3.08615e+20
-32.0828  3.14634e+20
-31.9655  3.24023e+20
-31.8482  3.34801e+20
-31.7309  3.45367e+20
-31.6136  3.54558e+20
-31.4963  3.61876e+20
-31.379  3.67493e+20
-31.2617  3.71953e+20
-31.1444  3.76108e+20
-31.0271  3.80703e+20
-30.9098  3.86823e+20
-30.7925  3.94813e+20
-30.6752  4.05161e+20
-30.5579  4.17952e+20
-30.4406  4.32847e+20
-30.3232  4.49422e+20
-30.2059  4.66638e+20
-30.0886  4.83565e+20
-29.9713  4.99215e+20
-29.854  5.12446e+20
-29.7367  5.22392e+20
-29.6194  5.28761e+20
-29.5021  5.31556e+20
-29.3848  5.31201e+20
-29.2675  5.28767e+20
-29.1502  5.25466e+20
-29.0329  5.22751e+20
-28.9156  5.21824e+20
-28.7983  5.23648e+20
-28.681  5.28861e+20
-28.5637  5.37589e+20
-28.4464  5.4957e+20
-28.3291  5.64178e+20
-28.2118  5.80565e+20
-28.0944  5.97863e+20
-27.9771  6.15224e+20
-27.8598  6.31942e+20
-27.7425  6.47367e+20
-27.6252  6.61182e+20
-27.5079  6.73413e+20
-27.3906  6.84286e+20
-27.2733  6.94439e+20
-27.156  7.04391e+20
-27.0387  7.15147e+20
-26.9214  7.27416e+20
-26.8041  7.41965e+20
-26.6868  7.59172e+20
-26.5695  7.79222e+20
-26.4522  8.01936e+20
-26.3349  8.26975e+20
-26.2176  8.54033e+20
-26.1003  8.82378e+20
-25.983  9.11749e+20
-25.8657  9.41818e+20
-25.7483  9.7244e+20
-25.631  1.00366e+21
-25.5137  1.03524e+21
-25.3964  1.06707e+21
-25.2791  1.09873e+21
-25.1618  1.12963e+21
-25.0445  1.15874e+21
-24.9272  1.18523e+21
-24.8099  1.20793e+21
-24.6926  1.22598e+21
-24.5753  1.23859e+21
-24.458  1.24536e+21
-24.3407  1.24619e+21
-24.2234  1.24185e+21
-24.1061  1.2333e+21
-23.9888  1.22236e+21
-23.8715  1.21132e+21
-23.7542  1.20303e+21
-23.6369  1.20032e+21
-23.5196  1.20611e+21
-23.4023  1.22282e+21
-23.2849  1.2521e+21
-23.1676  1.2944e+21
-23.0503  1.34908e+21
-22.933  1.41407e+21
-22.8157  1.48631e+21
-22.6984  1.56194e+21
-22.5811  1.63675e+21
-22.4638  1.70662e+21
-22.3465  1.76827e+21
-22.2292  1.81921e+21
-22.1119  1.85832e+21
-21.9946  1.88586e+21
-21.8773  1.90325e+21
-21.76  1.91314e+21
-21.6427  1.91894e+21
-21.5254  1.92444e+21
-21.4081  1.9338e+21
-21.2908  1.95071e+21
-21.1735  1.9784e+21
-21.0561  2.01934e+21
-20.9388  2.07471e+21
-20.8215  2.1445e+21
-20.7042  2.22773e+21
-20.5869  2.32176e+21
-20.4696  2.42358e+21
-20.3523  2.52936e+21
-20.235  2.63517e+21
-20.1177  2.73711e+21
-20.0004  2.83246e+21
-19.8831  2.91909e+21
-19.7658  2.99622e+21
-19.6485  3.06397e+21
-19.5312  3.12407e+21
-19.4139  3.1784e+21
-19.2966  3.22985e+21
-19.1793  3.28128e+21
-19.062  3.33542e+21
-18.9447  3.39417e+21
-18.8274  3.45902e+21
-18.71  3.53068e+21
-18.5927  3.60865e+21
-18.4754  3.69184e+21
-18.3581  3.77855e+21
-18.2408  3.86689e+21
-18.1235  3.95463e+21
-18.0062  4.04007e+21
-17.8889  4.12156e+21
-17.7716  4.19902e+21
-17.6543  4.27258e+21
-17.537  4.34334e+21
-17.4197  4.41336e+21
-17.3024  4.48509e+21
-17.1851  4.56123e+21
-17.0678  4.64389e+21
-16.9505  4.73503e+21
-16.8332  4.83568e+21
-16.7159  4.9458e+21
-16.5986  5.06433e+21
-16.4813  5.18981e+21
-16.364  5.31985e+21
-16.2466  5.45214e+21
-16.1293  5.58405e+21
-16.012  5.71417e+21
-15.8947  5.8412e+21
-15.7774  5.96512e+21
-15.6601  6.0868e+21
-15.5428  6.2078e+21
-15.4255  6.33e+21
-15.3082  6.45604e+21
-15.1909  6.58855e+21
-15.0736  6.72914e+21
-14.9563  6.87906e+21
-14.839  7.03867e+21
-14.7217  7.20659e+21
-14.6044  7.38052e+21
-14.4871  7.55739e+21
-14.3698  7.73284e+21
-14.2525  7.90208e+21
-14.1352  8.06051e+21
-14.0178  8.20491e+21
-13.9005  8.33214e+21
-13.7832  8.44111e+21
-13.6659  8.53198e+21
-13.5486  8.60676e+21
-13.4313  8.66838e+21
-13.314  8.72067e+21
-13.1967  8.76759e+21
-13.0794  8.81382e+21
-12.9621  8.86185e+21
-12.8448  8.91507e+21
-12.7275  8.97404e+21
-12.6102  9.03962e+21
-12.4929  9.11079e+21
-12.3756  9.18554e+21
-12.2583  9.26223e+21
-12.141  9.33851e+21
-12.0237  9.41196e+21
-11.9064  9.48086e+21
-11.7891  9.54459e+21
-11.6718  9.60337e+21
-11.5544  9.6593e+21
-11.4371  9.71562e+21
-11.3198  9.77619e+21
-11.2025  9.84638e+21
-11.0852  9.93237e+21
-10.9679  1.00397e+22
-10.8506  1.01737e+22
-10.7333  1.03381e+22
-10.616  1.05359e+22
-10.4987  1.07685e+22
-10.3814  1.10338e+22
-10.2641  1.13292e+22
-10.1468  1.16501e+22
-10.0295  1.199e+22
-9.91217  1.23412e+22
-9.79487  1.26958e+22
-9.67756  1.30448e+22
-9.56026  1.33798e+22
-9.44295  1.36924e+22
-9.32565  1.39769e+22
-9.20834  1.42271e+22
-9.09104  1.44395e+22
-8.97373  1.46128e+22
-8.85643  1.4747e+22
-8.73913  1.48434e+22
-8.62182  1.49058e+22
-8.50452  1.49385e+22
-8.38721  1.49474e+22
-8.26991  1.49369e+22
-8.1526  1.49139e+22
-8.03529  1.48832e+22
-7.91799  1.48505e+22
-7.80069  1.48203e+22
-7.68338  1.47964e+22
-7.56608  1.47828e+22
-7.44877  1.47823e+22
-7.33146  1.47968e+22
-7.21416  1.4827e+22
-7.09685  1.48734e+22
-6.97955  1.49353e+22
-6.86224  1.50116e+22
-6.74494  1.51009e+22
-6.62763  1.51994e+22
-6.51033  1.53051e+22
-6.39302  1.54147e+22
-6.27572  1.55252e+22
-6.15842  1.56337e+22
-6.04111  1.57382e+22
-5.92381  1.58366e+22
-5.8065  1.59294e+22
-5.68919  1.60162e+22
-5.57189  1.60992e+22
-5.45458  1.61812e+22
-5.33728  1.6266e+22
-5.21997  1.63575e+22
-5.10267  1.64603e+22
-4.98536  1.6578e+22
-4.86806  1.67137e+22
-4.75075  1.68692e+22
-4.63345  1.70453e+22
-4.51614  1.72401e+22
-4.39884  1.74507e+22
-4.28154  1.76733e+22
-4.16423  1.79017e+22
-4.04692  1.81296e+22
-3.92962  1.83503e+22
-3.81231  1.8558e+22
-3.69501  1.87472e+22
-3.5777  1.89138e+22
-3.4604  1.90559e+22
-3.34309  1.91733e+22
-3.22579  1.92679e+22
-3.10849  1.93436e+22
-2.99118  1.94056e+22
-2.87387  1.94602e+22
-2.75657  1.95138e+22
-2.63926  1.95722e+22
-2.52196  1.96397e+22
-2.40465  1.97186e+22
-2.28735  1.98084e+22
-2.17005  1.99064e+22
-2.05274  2.0008e+22
-1.93544  2.01045e+22
-1.81813  2.01881e+22
-1.70083  2.02489e+22
-1.58352  2.02784e+22
-1.46622  2.02692e+22
-1.34891  2.02168e+22
-1.2316  2.0119e+22
-1.1143  1.99784e+22
-0.996995  1.97999e+22
-0.87969  1.95929e+22
-0.762385  1.93678e+22
-0.64508  1.91393e+22
-0.527775  1.89208e+22
-0.41047  1.87262e+22
-0.293165  1.85679e+22
-0.17586  1.84563e+22
-0.058555  1.83988e+22
0.05875  1.83991e+22
0.176055  1.84567e+22
0.29336  1.85682e+22
0.410665  1.87265e+22
0.52797  1.89208e+22
0.645275  1.91388e+22
0.76258  1.93665e+22
0.879885  1.95903e+22
0.99719  1.9796e+22
1.1145  1.99728e+22
1.2318  2.01116e+22
1.3491  2.02075e+22
1.46641  2.02578e+22
1.58371  2.02647e+22
1.70102  2.02332e+22
1.81832  2.01702e+22
1.93563  2.00846e+22
2.05294  1.99858e+22
2.17024  1.98829e+22
2.28754  1.97831e+22
2.40485  1.96915e+22
2.52216  1.96109e+22
2.63946  1.95419e+22
2.75677  1.94815e+22
2.87407  1.9426e+22
2.99137  1.93692e+22
3.10868  1.93051e+22
3.22599  1.92271e+22
3.34329  1.91306e+22
3.4606  1.90113e+22
3.5779  1.88671e+22
3.69521  1.86985e+22
3.81251  1.8508e+22
3.92982  1.82984e+22
4.04712  1.80762e+22
4.16443  1.78473e+22
4.28173  1.7618e+22
4.39903  1.73947e+22
4.51634  1.71832e+22
4.63364  1.69881e+22
4.75095  1.68114e+22
4.86825  1.66551e+22
4.98556  1.65187e+22
5.10286  1.64003e+22
5.22017  1.62967e+22
5.33748  1.62043e+22
5.45478  1.61186e+22
5.57209  1.60359e+22
5.68939  1.59516e+22
5.8067  1.58638e+22
5.924  1.57703e+22
6.0413  1.5671e+22
6.15861  1.55658e+22
6.27591  1.54565e+22
6.39322  1.53459e+22
6.51052  1.52361e+22
6.62783  1.51301e+22
6.74514  1.50314e+22
6.86244  1.49429e+22
6.97975  1.48666e+22
7.09705  1.4805e+22
7.21436  1.4759e+22
7.33166  1.4729e+22
7.44897  1.4715e+22
7.56627  1.47158e+22
7.68358  1.47292e+22
7.80088  1.47526e+22
7.91819  1.47821e+22
8.03549  1.48143e+22
8.1528  1.48442e+22
8.2701  1.48658e+22
8.38741  1.48744e+22
8.50471  1.48641e+22
8.62202  1.48294e+22
8.73932  1.47647e+22
8.85662  1.46662e+22
8.97393  1.45305e+22
9.09123  1.43552e+22
9.20854  1.41412e+22
9.32584  1.38901e+22
9.44315  1.36047e+22
9.56045  1.32912e+22
9.67776  1.29565e+22
9.79506  1.26077e+22
9.91237  1.22539e+22
10.0297  1.19037e+22
10.147  1.15652e+22
10.2643  1.12459e+22
10.3816  1.09517e+22
10.4989  1.0688e+22
10.6162  1.04571e+22
10.7335  1.02603e+22
10.8508  1.00968e+22
10.9681  9.96356e+21
11.0854  9.85698e+21
11.2027  9.77142e+21
11.32  9.70105e+21
11.4373  9.64026e+21
11.5546  9.5839e+21
11.6719  9.52745e+21
11.7893  9.46838e+21
11.9066  9.40452e+21
12.0239  9.33521e+21
12.1412  9.26205e+21
12.2585  9.18617e+21
12.3758  9.10982e+21
12.4931  9.03545e+21
12.6104  8.96494e+21
12.7277  8.90028e+21
12.845  8.84209e+21
12.9623  8.78959e+21
13.0796  8.74211e+21
13.1969  8.69651e+21
13.3142  8.64992e+21
13.4315  8.59775e+21
13.5488  8.5362e+21
13.6661  8.46131e+21
13.7834  8.37001e+21
13.9007  8.26067e+21
14.018  8.13316e+21
14.1354  7.98839e+21
14.2527  7.82945e+21
14.37  7.66022e+21
14.4873  7.48472e+21
14.6046  7.30805e+21
14.7219  7.13423e+21
14.8392  6.96679e+21
14.9565  6.80787e+21
15.0738  6.65839e+21
15.1911  6.51865e+21
15.3084  6.38692e+21
15.4257  6.26144e+21
15.543  6.13994e+21
15.6603  6.01983e+21
15.7776  5.89916e+21
15.8949  5.77602e+21
16.0122  5.64994e+21
16.1295  5.52072e+21
16.2468  5.38964e+21
16.3641  5.25844e+21
16.4815  5.12949e+21
16.5988  5.00516e+21
16.7161  4.88732e+21
16.8334  4.77844e+21
16.9507  4.67877e+21
17.068  4.58857e+21
17.1853  4.50669e+21
17.3026  4.43146e+21
17.4199  4.36039e+21
17.5372  4.29097e+21
17.6545  4.22067e+21
17.7718  4.14785e+21
17.8891  4.071e+21
18.0064  3.99013e+21
18.1237  3.90555e+21
18.241  3.81858e+21
18.3583  3.73115e+21
18.4756  3.64532e+21
18.5929  3.56301e+21
18.7102  3.48594e+21
18.8275  3.41526e+21
18.9449  3.35115e+21
19.0622  3.29319e+21
19.1795  3.23973e+21
19.2968  3.18879e+21
19.4141  3.13771e+21
19.5314  3.0838e+21
19.6487  3.02409e+21
19.766  2.95666e+21
19.8833  2.87998e+21
20.0006  2.79378e+21
20.1179  2.699e+21
20.2352  2.59772e+21
20.3525  2.49289e+21
20.4698  2.38824e+21
20.5871  2.28764e+21
20.7044  2.19483e+21
20.8217  2.11299e+21
20.939  2.04447e+21
21.0563  1.99036e+21
21.1736  1.95057e+21
21.291  1.92387e+21
21.4083  1.90776e+21
21.5256  1.89915e+21
21.6429  1.89404e+21
21.7602  1.88867e+21
21.8775  1.87898e+21
21.9948  1.86173e+21
22.1121  1.83437e+21
22.2294  1.79531e+21
22.3467  1.7446e+21
22.464  1.68336e+21
22.5813  1.61387e+21
22.6986  1.53979e+21
22.8159  1.46498e+21
22.9332  1.39363e+21
23.0505  1.32963e+21
23.1678  1.27607e+21
23.2851  1.23484e+21
23.4024  1.20661e+21
23.5198  1.19079e+21
23.6371  1.18585e+21
23.7544  1.18917e+21
23.8717  1.198e+21
23.989  1.20939e+21
24.1063  1.22059e+21
24.2236  1.2293e+21
24.3409  1.23378e+21
24.4582  1.23297e+21
24.5755  1.22632e+21
24.6928  1.21383e+21
24.8101  1.19595e+21
24.9274  1.17338e+21
25.0447  1.14714e+21
25.162  1.11837e+21
25.2793  1.08795e+21
25.3966  1.0567e+21
25.5139  1.02529e+21
25.6312  9.94119e+20
25.7485  9.63405e+20
25.8658  9.33211e+20
25.9832  9.03546e+20
26.1005  8.74587e+20
26.2178  8.46652e+20
26.3351  8.20095e+20
26.4524  7.95303e+20
26.5697  7.72938e+20
26.687  7.53232e+20
26.8043  7.36289e+20
26.9216  7.22124e+20
27.0389  7.10031e+20
27.1562  6.99494e+20
27.2735  6.89641e+20
27.3908  6.79716e+20
27.5081  6.68898e+20
27.6254  6.56763e+20
27.7427  6.43077e+20
27.86  6.27773e+20
27.9773  6.11218e+20
28.0946  5.9402e+20
28.212  5.76899e+20
28.3293  5.60744e+20
28.4466  5.46415e+20
28.5639  5.34737e+20
28.6812  5.26278e+20
28.7985  5.21352e+20
28.9158  5.19787e+20
29.0331  5.20916e+20
29.1504  5.23783e+20
29.2677  5.272e+20
29.385  5.29661e+20
29.5023  5.30005e+20
29.6196  5.2717e+20
29.7369  5.20761e+20
29.8542  5.10759e+20
29.9715  4.97499e+20
30.0888  4.81936e+20
30.2061  4.64938e+20
30.3234  4.47754e+20
30.4407  4.31404e+20
30.558  4.16577e+20
30.6754  4.0402e+20
30.7927  3.93702e+20
30.91  3.85824e+20
31.0273  3.79916e+20
31.1446  3.75305e+20
31.2619  3.71249e+20
31.3792  3.6674e+20
31.4965  3.61101e+20
31.6138  3.53721e+20
31.7311  3.44438e+20
31.8484  3.33835e+20
31.9657  3.23062e+20
32.083  3.1372e+20
32.2003  3.07815e+20
32.3176  3.07463e+20
32.4349  3.14398e+20
32.5522  3.29839e+20
32.6695  3.54028e+20
32.7868  3.8637e+20
32.9042  4.25388e+20
33.0215  4.68692e+20
33.1388  5.13726e+20
33.2561  5.57379e+20
33.3734  5.97014e+20
33.4907  6.30203e+20
33.608  6.55097e+20
33.7253  6.70627e+20
33.8426  6.7615e+20
33.9599  6.72137e+20
34.0772  6.59287e+20
34.1945  6.39248e+20
34.3118  6.13965e+20
34.4291  5.85536e+20
34.5464  5.56112e+20
34.6637  5.27397e+20
34.781  5.00872e+20
34.8983  4.77009e+20
35.0156  4.5578e+20
35.1329  4.36516e+20
35.2503  4.1823e+20
35.3676  4.00009e+20
35.4849  3.80886e+20
35.6022  3.60706e+20
35.7195  3.39751e+20
35.8368  3.18846e+20
35.9541  2.99045e+20
36.0714  2.81726e+20
36.1887  2.67853e+20
36.306  2.58103e+20
36.4233  2.52725e+20
36.5406  2.51448e+20
36.6579  2.53699e+20
36.7752  2.58692e+20
36.8925  2.65574e+20
37.0098  2.73684e+20
37.1271  2.82309e+20
37.2444  2.91031e+20
37.3617  2.99339e+20
37.479  3.06763e+20
37.5964  3.12935e+20
37.7137  3.17554e+20
37.831  3.20394e+20
37.9483  3.21494e+20
38.0656  3.21144e+20
38.1829  3.19989e+20
38.3002  3.18758e+20
38.4175  3.18324e+20
38.5348  3.19418e+20
38.6521  3.22417e+20
38.7694  3.27511e+20
38.8867  3.3433e+20
39.004  3.42252e+20
39.1213  3.50289e+20
39.2386  3.57445e+20
39.3559  3.62795e+20
39.4732  3.65549e+20
39.5905  3.65203e+20
39.7078  3.6155e+20
39.8251  3.54689e+20
39.9425  3.45146e+20
40.0598  3.33688e+20
40.1771  3.21279e+20
40.2944  3.08961e+20
40.4117  2.97918e+20
40.529  2.89222e+20
40.6463  2.83717e+20
40.7636  2.81993e+20
40.8809  2.84087e+20
40.9982  2.89737e+20
41.1155  2.98345e+20
41.2328  3.08829e+20
41.3501  3.20036e+20
41.4674  3.30957e+20
41.5847  3.40694e+20
41.702  3.48565e+20
41.8193  3.54406e+20
41.9366  3.58195e+20
42.0539  3.60205e+20
42.1712  3.60693e+20
42.2885  3.59981e+20
42.4059  3.58281e+20
42.5232  3.55528e+20
42.6405  3.51674e+20
42.7578  3.46257e+20
42.8751  3.38994e+20
42.9924  3.29346e+20
43.1097  3.16956e+20
43.227  3.01554e+20
43.3443  2.82978e+20
43.4616  2.61393e+20
43.5789  2.37235e+20
43.6962  2.11284e+20
43.8135  1.84712e+20
43.9308  1.58967e+20
44.0481  1.35687e+20
44.1654  1.16434e+20
44.2827  1.0257e+20
44.4  9.49044e+19
44.5173  9.36684e+19
44.6347  9.83785e+19
44.752  1.07848e+20
44.8693  1.20507e+20
44.9866  1.34506e+20
45.1039  1.48101e+20
45.2212  1.59898e+20
45.3385  1.69114e+20
45.4558  1.75462e+20
45.5731  1.79189e+20
45.6904  1.80948e+20
45.8077  1.81474e+20
45.925  1.81441e+20
46.0423  1.81352e+20
46.1596  1.81475e+20
46.2769  1.81833e+20
46.3942  1.82338e+20
46.5115  1.83023e+20
46.6288  1.8383e+20
46.7461  1.8498e+20
46.8634  1.86693e+20
46.9808  1.89151e+20
47.0981  1.92473e+20
47.2154  1.96425e+20
47.3327  2.00651e+20
47.45  2.04388e+20
47.5673  2.06864e+20
47.6846  2.07321e+20
47.8019  2.04976e+20
47.9192  1.99536e+20
48.0365  1.90921e+20
48.1538  1.79477e+20
48.2711  1.65849e+20
48.3884  1.50821e+20
48.5057  1.35337e+20
48.623  1.20223e+20
48.7403  1.06307e+20
48.8576  9.41489e+19
48.9749  8.41762e+19
49.0922  7.65948e+19
49.2095  7.14505e+19
49.3269  6.85822e+19
49.4442  6.78167e+19
49.5615  6.89008e+19
49.6788  7.15567e+19
49.7961  7.54914e+19
49.9134  8.05217e+19
50.0307  8.64315e+19
50.148  9.29879e+19
50.2653  1.00037e+20
50.3826  1.07298e+20
50.4999  1.14477e+20
50.6172  1.21206e+20
50.7345  1.27138e+20
