#S 1 spectral density
#N 2
#UFWHM 7.62483
#L  abscissas [um]  spectral density
-58.5938  9.26687e+19
-58.4764  8.77977e+19
-58.3591  8.46729e+19
-58.2418  8.37015e+19
-58.1245  8.51836e+19
-58.0072  8.92872e+19
-57.8899  9.58357e+19
-57.7726  1.0443e+20
-57.6553  1.14218e+20
-57.538  1.24112e+20
-57.4207  1.32997e+20
-57.3034  1.3968e+20
-57.1861  1.43416e+20
-57.0688  1.43791e+20
-56.9515  1.41091e+20
-56.8342  1.35919e+20
-56.7169  1.29347e+20
-56.5996  1.22559e+20
-56.4823  1.16711e+20
-56.365  1.12675e+20
-56.2477  1.10955e+20
-56.1303  1.11586e+20
-56.013  1.14315e+20
-55.8957  1.18467e+20
-55.7784  1.23389e+20
-55.6611  1.28314e+20
-55.5438  1.32653e+20
-55.4265  1.36237e+20
-55.3092  1.39014e+20
-55.1919  1.41387e+20
-55.0746  1.43867e+20
-54.9573  1.47119e+20
-54.84  1.51797e+20
-54.7227  1.58254e+20
-54.6054  1.66536e+20
-54.4881  1.76097e+20
-54.3708  1.85949e+20
-54.2535  1.94758e+20
-54.1362  2.01007e+20
-54.0189  2.03281e+20
-53.9016  2.00644e+20
-53.7842  1.92887e+20
-53.6669  1.8064e+20
-53.5496  1.65439e+20
-53.4323  1.49445e+20
-53.315  1.35177e+20
-53.1977  1.2496e+20
-53.0804  1.20495e+20
-52.9631  1.22568e+20
-52.8458  1.30785e+20
-52.7285  1.43598e+20
-52.6112  1.58816e+20
-52.4939  1.7366e+20
-52.3766  1.85598e+20
-52.2593  1.92539e+20
-52.142  1.93377e+20
-52.0247  1.87964e+20
-51.9074  1.77127e+20
-51.7901  1.62356e+20
-51.6728  1.45515e+20
-51.5555  1.28362e+20
-51.4381  1.1247e+20
-51.3208  9.86975e+19
-51.2035  8.74253e+19
-51.0862  7.84293e+19
-50.9689  7.11796e+19
-50.8516  6.50319e+19
-50.7343  5.9272e+19
-50.617  5.34707e+19
-50.4997  4.7412e+19
-50.3824  4.11069e+19
-50.2651  3.48142e+19
-50.1478  2.88216e+19
-50.0305  2.34753e+19
-49.9132  1.90201e+19
-49.7959  1.5635e+19
-49.6786  1.33437e+19
-49.5613  1.21098e+19
-49.444  1.18485e+19
-49.3267  1.24002e+19
-49.2094  1.36304e+19
-49.092  1.54766e+19
-48.9747  1.78677e+19
-48.8574  2.08553e+19
-48.7401  2.45193e+19
-48.6228  2.90351e+19
-48.5055  3.45168e+19
-48.3882  4.11253e+19
-48.2709  4.89011e+19
-48.1536  5.7717e+19
-48.0363  6.72623e+19
-47.919  7.69382e+19
-47.8017  8.59724e+19
-47.6844  9.33915e+19
-47.5671  9.82648e+19
-47.4498  9.97854e+19
-47.3325  9.74945e+19
-47.2152  9.14585e+19
-47.0979  8.23855e+19
-46.9806  7.15184e+19
-46.8633  6.0627e+19
-46.7459  5.17063e+19
-46.6286  4.66222e+19
-46.5113  4.68197e+19
-46.394  5.29701e+19
-46.2767  6.48819e+19
-46.1594  8.13679e+19
-46.0421  1.00461e+20
-45.9248  1.19779e+20
-45.8075  1.3688e+20
-45.6902  1.49653e+20
-45.5729  1.56854e+20
-45.4556  1.5807e+20
-45.3383  1.53926e+20
-45.221  1.45841e+20
-45.1037  1.35606e+20
-44.9864  1.25142e+20
-44.8691  1.16046e+20
-44.7518  1.09356e+20
-44.6345  1.05317e+20
-44.5172  1.03562e+20
-44.3998  1.0331e+20
-44.2825  1.03554e+20
-44.1652  1.03558e+20
-44.0479  1.02745e+20
-43.9306  1.01212e+20
-43.8133  9.92795e+19
-43.696  9.75947e+19
-43.5787  9.68412e+19
-43.4614  9.74091e+19
-43.3441  9.92997e+19
-43.2268  1.02238e+20
-43.1095  1.05467e+20
-42.9922  1.08186e+20
-42.8749  1.09679e+20
-42.7576  1.0945e+20
-42.6403  1.07485e+20
-42.523  1.04277e+20
-42.4057  1.00642e+20
-42.2884  9.76591e+19
-42.171  9.63975e+19
-42.0537  9.7688e+19
-41.9364  1.02072e+20
-41.8191  1.0961e+20
-41.7018  1.19965e+20
-41.5845  1.325e+20
-41.4672  1.46371e+20
-41.3499  1.60735e+20
-41.2326  1.74804e+20
-41.1153  1.8797e+20
-40.998  1.99859e+20
-40.8807  2.10335e+20
-40.7634  2.19352e+20
-40.6461  2.2718e+20
-40.5288  2.34081e+20
-40.4115  2.4041e+20
-40.2942  2.4653e+20
-40.1769  2.5258e+20
-40.0596  2.58663e+20
-39.9423  2.64582e+20
-39.825  2.69972e+20
-39.7076  2.74198e+20
-39.5903  2.76509e+20
-39.473  2.76121e+20
-39.3557  2.72455e+20
-39.2384  2.65086e+20
-39.1211  2.53967e+20
-39.0038  2.3952e+20
-38.8865  2.22425e+20
-38.7692  2.03584e+20
-38.6519  1.84135e+20
-38.5346  1.65014e+20
-38.4173  1.47043e+20
-38.3  1.30771e+20
-38.1827  1.16405e+20
-38.0654  1.03918e+20
-37.9481  9.31481e+19
-37.8308  8.37427e+19
-37.7135  7.55129e+19
-37.5962  6.8268e+19
-37.4789  6.20065e+19
-37.3615  5.68377e+19
-37.2442  5.30005e+19
-37.1269  5.09068e+19
-37.0096  5.09299e+19
-36.8923  5.34847e+19
-36.775  5.885e+19
-36.6577  6.71832e+19
-36.5404  7.8433e+19
-36.4231  9.21256e+19
-36.3058  1.07514e+20
-36.1885  1.23467e+20
-36.0712  1.38642e+20
-35.9539  1.5149e+20
-35.8366  1.60605e+20
-35.7193  1.64836e+20
-35.602  1.63381e+20
-35.4847  1.56227e+20
-35.3674  1.43786e+20
-35.2501  1.27096e+20
-35.1328  1.07584e+20
-35.0154  8.69088e+19
-34.8981  6.66614e+19
-34.7808  4.8243e+19
-34.6635  3.2629e+19
-34.5462  2.04347e+19
-34.4289  1.18058e+19
-34.3116  6.56606e+18
-34.1943  4.29435e+18
-34.077  4.44482e+18
-33.9597  6.42822e+18
-33.8424  9.70139e+18
-33.7251  1.3777e+19
-33.6078  1.82409e+19
-33.4905  2.27925e+19
-33.3732  2.71537e+19
-33.2559  3.11494e+19
-33.1386  3.46692e+19
-33.0213  3.76493e+19
-32.904  4.00884e+19
-32.7867  4.2018e+19
-32.6693  4.34417e+19
-32.552  4.44032e+19
-32.4347  4.48687e+19
-32.3174  4.48137e+19
-32.2001  4.41775e+19
-32.0828  4.29159e+19
-31.9655  4.09991e+19
-31.8482  3.85526e+19
-31.7309  3.57626e+19
-31.6136  3.29142e+19
-31.4963  3.03727e+19
-31.379  2.85297e+19
-31.2617  2.77539e+19
-31.1444  2.83099e+19
-31.0271  3.02933e+19
-30.9098  3.36686e+19
-30.7925  3.82329e+19
-30.6752  4.37471e+19
-30.5579  4.99626e+19
-30.4406  5.67236e+19
-30.3232  6.41319e+19
-30.2059  7.24502e+19
-30.0886  8.22147e+19
-29.9713  9.40706e+19
-29.854  1.08624e+20
-29.7367  1.26276e+20
-29.6194  1.47076e+20
-29.5021  1.70546e+20
-29.3848  1.95667e+20
-29.2675  2.21047e+20
-29.1502  2.44995e+20
-29.0329  2.66004e+20
-28.9156  2.8293e+20
-28.7983  2.95135e+20
-28.681  3.02928e+20
-28.5637  3.07216e+20
-28.4464  3.09557e+20
-28.3291  3.11704e+20
-28.2118  3.15159e+20
-28.0944  3.21044e+20
-27.9771  3.29503e+20
-27.8598  3.40012e+20
-27.7425  3.51061e+20
-27.6252  3.60648e+20
-27.5079  3.66724e+20
-27.3906  3.67545e+20
-27.2733  3.62064e+20
-27.156  3.50011e+20
-27.0387  3.32041e+20
-26.9214  3.09577e+20
-26.8041  2.84428e+20
-26.6868  2.58616e+20
-26.5695  2.3392e+20
-26.4522  2.11757e+20
-26.3349  1.92964e+20
-26.2176  1.77889e+20
-26.1003  1.66515e+20
-25.983  1.58544e+20
-25.8657  1.53665e+20
-25.7483  1.51631e+20
-25.631  1.52269e+20
-25.5137  1.557e+20
-25.3964  1.62035e+20
-25.2791  1.71356e+20
-25.1618  1.83784e+20
-25.0445  1.9922e+20
-24.9272  2.17302e+20
-24.8099  2.37656e+20
-24.6926  2.59566e+20
-24.5753  2.82168e+20
-24.458  3.04596e+20
-24.3407  3.25926e+20
-24.2234  3.45205e+20
-24.1061  3.61685e+20
-23.9888  3.74734e+20
-23.8715  3.84083e+20
-23.7542  3.89361e+20
-23.6369  3.9105e+20
-23.5196  3.89418e+20
-23.4023  3.8483e+20
-23.2849  3.78032e+20
-23.1676  3.69296e+20
-23.0503  3.58917e+20
-22.933  3.46939e+20
-22.8157  3.32952e+20
-22.6984  3.16681e+20
-22.5811  2.9771e+20
-22.4638  2.75793e+20
-22.3465  2.50903e+20
-22.2292  2.23596e+20
-22.1119  1.94718e+20
-21.9946  1.65661e+20
-21.8773  1.37989e+20
-21.76  1.13379e+20
-21.6427  9.3234e+19
-21.5254  7.8652e+19
-21.4081  7.00285e+19
-21.2908  6.7191e+19
-21.1735  6.92844e+19
-21.0561  7.49253e+19
-20.9388  8.25865e+19
-20.8215  9.05026e+19
-20.7042  9.73311e+19
-20.5869  1.01998e+20
-20.4696  1.04016e+20
-20.3523  1.03408e+20
-20.235  1.00741e+20
-20.1177  9.68141e+19
-20.0004  9.2733e+19
-19.8831  8.9462e+19
-19.7658  8.80159e+19
-19.6485  8.90221e+19
-19.5312  9.29617e+19
-19.4139  1.00039e+20
-19.2966  1.10332e+20
-19.1793  1.23666e+20
-19.062  1.39778e+20
-18.9447  1.58244e+20
-18.8274  1.78463e+20
-18.71  1.99546e+20
-18.5927  2.20575e+20
-18.4754  2.40083e+20
-18.3581  2.56783e+20
-18.2408  2.69231e+20
-18.1235  2.76386e+20
-18.0062  2.77441e+20
-17.8889  2.7224e+20
-17.7716  2.61316e+20
-17.6543  2.45848e+20
-17.537  2.27572e+20
-17.4197  2.08577e+20
-17.3024  1.91136e+20
-17.1851  1.77258e+20
-17.0678  1.68522e+20
-16.9505  1.65874e+20
-16.8332  1.6962e+20
-16.7159  1.79302e+20
-16.5986  1.94051e+20
-16.4813  2.12614e+20
-16.364  2.33729e+20
-16.2466  2.56398e+20
-16.1293  2.80026e+20
-16.012  3.04278e+20
-15.8947  3.29411e+20
-15.7774  3.56006e+20
-15.6601  3.84668e+20
-15.5428  4.16017e+20
-15.4255  4.50406e+20
-15.3082  4.87602e+20
-15.1909  5.27391e+20
-15.0736  5.68565e+20
-14.9563  6.10006e+20
-14.839  6.5043e+20
-14.7217  6.88762e+20
-14.6044  7.24234e+20
-14.4871  7.56564e+20
-14.3698  7.86155e+20
-14.2525  8.13922e+20
-14.1352  8.4117e+20
-14.0178  8.69312e+20
-13.9005  8.99643e+20
-13.7832  9.33079e+20
-13.6659  9.70066e+20
-13.5486  1.00991e+21
-13.4313  1.05186e+21
-13.314  1.09385e+21
-13.1967  1.1341e+21
-13.0794  1.17028e+21
-12.9621  1.20051e+21
-12.8448  1.22351e+21
-12.7275  1.23878e+21
-12.6102  1.24643e+21
-12.4929  1.24801e+21
-12.3756  1.24579e+21
-12.2583  1.24251e+21
-12.141  1.24191e+21
-12.0237  1.24786e+21
-11.9064  1.26425e+21
-11.7891  1.29437e+21
-11.6718  1.34107e+21
-11.5544  1.40601e+21
-11.4371  1.48954e+21
-11.3198  1.5909e+21
-11.2025  1.70753e+21
-11.0852  1.83567e+21
-10.9679  1.97074e+21
-10.8506  2.10743e+21
-10.7333  2.24059e+21
-10.616  2.36565e+21
-10.4987  2.47863e+21
-10.3814  2.5774e+21
-10.2641  2.66131e+21
-10.1468  2.73121e+21
-10.0295  2.78908e+21
-9.91217  2.83822e+21
-9.79487  2.88202e+21
-9.67756  2.92424e+21
-9.56026  2.96822e+21
-9.44295  3.01638e+21
-9.32565  3.07098e+21
-9.20834  3.13315e+21
-9.09104  3.20356e+21
-8.97373  3.28248e+21
-8.85643  3.36999e+21
-8.73913  3.46611e+21
-8.62182  3.57112e+21
-8.50452  3.68505e+21
-8.38721  3.80831e+21
-8.26991  3.94116e+21
-8.1526  4.08385e+21
-8.03529  4.23679e+21
-7.91799  4.39963e+21
-7.80069  4.57185e+21
-7.68338  4.75316e+21
-7.56608  4.94275e+21
-7.44877  5.13997e+21
-7.33146  5.3441e+21
-7.21416  5.55497e+21
-7.09685  5.77263e+21
-6.97955  5.99792e+21
-6.86224  6.23165e+21
-6.74494  6.47548e+21
-6.62763  6.73152e+21
-6.51033  7.00201e+21
-6.39302  7.28944e+21
-6.27572  7.59615e+21
-6.15842  7.92475e+21
-6.04111  8.27703e+21
-5.92381  8.6548e+21
-5.8065  9.05951e+21
-5.68919  9.49216e+21
-5.57189  9.95363e+21
-5.45458  1.04451e+22
-5.33728  1.09666e+22
-5.21997  1.15193e+22
-5.10267  1.21035e+22
-4.98536  1.27201e+22
-4.86806  1.33684e+22
-4.75075  1.40492e+22
-4.63345  1.47613e+22
-4.51614  1.55034e+22
-4.39884  1.62738e+22
-4.28154  1.70701e+22
-4.16423  1.78901e+22
-4.04692  1.87302e+22
-3.92962  1.95873e+22
-3.81231  2.04594e+22
-3.69501  2.13435e+22
-3.5777  2.22383e+22
-3.4604  2.31421e+22
-3.34309  2.40532e+22
-3.22579  2.49707e+22
-3.10849  2.58945e+22
-2.99118  2.68217e+22
-2.87387  2.77512e+22
-2.75657  2.86805e+22
-2.63926  2.96059e+22
-2.52196  3.05236e+22
-2.40465  3.14288e+22
-2.28735  3.23164e+22
-2.17005  3.31796e+22
-2.05274  3.40125e+22
-1.93544  3.48072e+22
-1.81813  3.55571e+22
-1.70083  3.62551e+22
-1.58352  3.68954e+22
-1.46622  3.74719e+22
-1.34891  3.79808e+22
-1.2316  3.84211e+22
-1.1143  3.87913e+22
-0.996995  3.90947e+22
-0.87969  3.93361e+22
-0.762385  3.95203e+22
-0.64508  3.96568e+22
-0.527775  3.97532e+22
-0.41047  3.98184e+22
-0.293165  3.98601e+22
-0.17586  3.98857e+22
-0.058555  3.98991e+22
0.05875  3.99034e+22
0.176055  3.98984e+22
0.29336  3.98822e+22
0.410665  3.9849e+22
0.52797  3.97923e+22
0.645275  3.9704e+22
0.76258  3.9576e+22
0.879885  3.9399e+22
0.99719  3.91658e+22
1.1145  3.88697e+22
1.2318  3.85064e+22
1.3491  3.80726e+22
1.46641  3.75698e+22
1.58371  3.69985e+22
1.70102  3.63636e+22
1.81832  3.56699e+22
1.93563  3.49239e+22
2.05294  3.41326e+22
2.17024  3.33031e+22
2.28754  3.24425e+22
2.40485  3.15575e+22
2.52216  3.0654e+22
2.63946  2.9738e+22
2.75677  2.88141e+22
2.87407  2.78863e+22
2.99137  2.69579e+22
3.10868  2.60312e+22
3.22599  2.51084e+22
3.34329  2.4191e+22
3.4606  2.32793e+22
3.5779  2.2375e+22
3.69521  2.14793e+22
3.81251  2.05935e+22
3.92982  1.97191e+22
4.04712  1.88591e+22
4.16443  1.8016e+22
4.28173  1.71925e+22
4.39903  1.63918e+22
4.51634  1.56172e+22
4.63364  1.48704e+22
4.75095  1.41539e+22
4.86825  1.34685e+22
4.98556  1.28153e+22
5.10286  1.21945e+22
5.22017  1.16055e+22
5.33748  1.10488e+22
5.45478  1.05231e+22
5.57209  1.0028e+22
5.68939  9.56305e+21
5.8067  9.12723e+21
5.924  8.71961e+21
6.0413  8.33945e+21
6.15861  7.98486e+21
6.27591  7.65423e+21
6.39322  7.34566e+21
6.51052  7.05657e+21
6.62783  6.78445e+21
6.74514  6.52687e+21
6.86244  6.28166e+21
6.97975  6.04651e+21
7.09705  5.82001e+21
7.21436  5.60117e+21
7.33166  5.38904e+21
7.44897  5.18399e+21
7.56627  4.98592e+21
7.68358  4.79559e+21
7.80088  4.61358e+21
7.91819  4.44066e+21
8.03549  4.27746e+21
8.1528  4.12425e+21
8.2701  3.98119e+21
8.38741  3.8481e+21
8.50471  3.72459e+21
8.62202  3.61086e+21
8.73932  3.5058e+21
8.85662  3.40949e+21
8.97393  3.32188e+21
9.09123  3.24293e+21
9.20854  3.1722e+21
9.32584  3.10955e+21
9.44315  3.05429e+21
9.56045  3.00514e+21
9.67776  2.95985e+21
9.79506  2.91601e+21
9.91237  2.87015e+21
10.0297  2.81865e+21
10.147  2.75797e+21
10.2643  2.68506e+21
10.3816  2.59812e+21
10.4989  2.49603e+21
10.6162  2.38003e+21
10.7335  2.2523e+21
10.8508  2.11675e+21
10.9681  1.97797e+21
11.0854  1.84142e+21
11.2027  1.71216e+21
11.32  1.59498e+21
11.4373  1.49349e+21
11.5546  1.41002e+21
11.6719  1.34552e+21
11.7893  1.2994e+21
11.9066  1.26979e+21
12.0239  1.25423e+21
12.1412  1.24877e+21
12.2585  1.24984e+21
12.3758  1.2534e+21
12.4931  1.25595e+21
12.6104  1.25448e+21
12.7277  1.24677e+21
12.845  1.23151e+21
12.9623  1.20844e+21
13.0796  1.17803e+21
13.1969  1.14181e+21
13.3142  1.10154e+21
13.4315  1.05946e+21
13.5488  1.01763e+21
13.6661  9.77703e+20
13.7834  9.40818e+20
13.9007  9.07252e+20
14.018  8.76737e+20
14.1354  8.48313e+20
14.2527  8.20634e+20
14.37  7.92233e+20
14.4873  7.61933e+20
14.6046  7.28869e+20
14.7219  6.92636e+20
14.8392  6.53491e+20
14.9565  6.12373e+20
15.0738  5.70202e+20
15.1911  5.28483e+20
15.3084  4.88246e+20
15.4257  4.50598e+20
15.543  4.15905e+20
15.6603  3.84288e+20
15.7776  3.55448e+20
15.8949  3.28746e+20
16.0122  3.03453e+20
16.1295  2.79151e+20
16.2468  2.55566e+20
16.3641  2.32904e+20
16.4815  2.11917e+20
16.5988  1.93607e+20
16.7161  1.79104e+20
16.8334  1.69732e+20
16.9507  1.663e+20
17.068  1.69257e+20
17.1853  1.782e+20
17.3026  1.9223e+20
17.4199  2.09707e+20
17.5372  2.28649e+20
17.6545  2.46724e+20
17.7718  2.61997e+20
17.8891  2.72703e+20
18.0064  2.77593e+20
18.1237  2.76231e+20
18.241  2.68889e+20
18.3583  2.56198e+20
18.4756  2.39432e+20
18.5929  2.19867e+20
18.7102  1.98948e+20
18.8275  1.77873e+20
18.9449  1.57755e+20
19.0622  1.39382e+20
19.1795  1.23387e+20
19.2968  1.10131e+20
19.4141  9.99393e+19
19.5314  9.29444e+19
19.6487  8.90931e+19
19.766  8.81664e+19
19.8833  8.97013e+19
20.0006  9.29845e+19
20.1179  9.70923e+19
20.2352  1.00981e+20
20.3525  1.03622e+20
20.4698  1.04174e+20
20.5871  1.02122e+20
20.7044  9.74332e+19
20.8217  9.06169e+19
20.939  8.27456e+19
21.0563  7.52941e+19
21.1736  6.98619e+19
21.291  6.80717e+19
21.4083  7.12314e+19
21.5256  8.01671e+19
21.6429  9.50546e+19
21.7602  1.15358e+20
21.8775  1.40061e+20
21.9948  1.67701e+20
22.1121  1.96556e+20
22.2294  2.25162e+20
22.3467  2.52135e+20
22.464  2.76572e+20
22.5813  2.98119e+20
22.6986  3.16717e+20
22.8159  3.32584e+20
22.9332  3.46304e+20
23.0505  3.58152e+20
23.1678  3.68355e+20
23.2851  3.77059e+20
23.4024  3.83869e+20
23.5198  3.88425e+20
23.6371  3.90179e+20
23.7544  3.88565e+20
23.8717  3.83259e+20
23.989  3.74036e+20
24.1063  3.6111e+20
24.2236  3.44718e+20
24.3409  3.2549e+20
24.4582  3.04402e+20
24.5755  2.82041e+20
24.6928  2.59618e+20
24.8101  2.37927e+20
24.9274  2.17831e+20
25.0447  1.99913e+20
25.162  1.84675e+20
25.2793  1.72437e+20
25.3966  1.63243e+20
25.5139  1.57094e+20
25.6312  1.53811e+20
25.7485  1.5319e+20
25.8658  1.55298e+20
25.9832  1.60211e+20
26.1005  1.68239e+20
26.2178  1.79629e+20
26.3351  1.94685e+20
26.4524  2.13439e+20
26.5697  2.35544e+20
26.687  2.60082e+20
26.8043  2.85638e+20
26.9216  3.10493e+20
27.0389  3.32577e+20
27.1562  3.5009e+20
27.2735  3.61695e+20
27.3908  3.66756e+20
27.5081  3.65563e+20
27.6254  3.5923e+20
27.7427  3.49652e+20
27.86  3.38679e+20
27.9773  3.28443e+20
28.0946  3.20271e+20
28.212  3.14732e+20
28.3293  3.11617e+20
28.4466  3.09748e+20
28.5639  3.07565e+20
28.6812  3.03366e+20
28.7985  2.95546e+20
28.9158  2.83229e+20
29.0331  2.66153e+20
29.1504  2.44953e+20
29.2677  2.20857e+20
29.385  1.95423e+20
29.5023  1.70239e+20
29.6196  1.46765e+20
29.7369  1.25999e+20
29.8542  1.08357e+20
29.9715  9.37972e+19
30.0888  8.19693e+19
30.2061  7.21729e+19
30.3234  6.38149e+19
30.4407  5.63933e+19
30.558  4.96079e+19
30.6754  4.34343e+19
30.7927  3.79462e+19
30.91  3.34301e+19
31.0273  3.01559e+19
31.1446  2.82776e+19
31.2619  2.78216e+19
31.3792  2.8675e+19
31.4965  3.05862e+19
31.6138  3.31701e+19
31.7311  3.60302e+19
31.8484  3.88081e+19
31.9657  4.12168e+19
32.083  4.30765e+19
32.2003  4.42793e+19
32.3176  4.48661e+19
32.4349  4.48503e+19
32.5522  4.43259e+19
32.6695  4.33059e+19
32.7868  4.18371e+19
32.9042  3.98813e+19
33.0215  3.74156e+19
33.1388  3.44228e+19
33.2561  3.08998e+19
33.3734  2.68954e+19
33.4907  2.25435e+19
33.608  1.80147e+19
33.7253  1.35605e+19
33.8426  9.51939e+18
33.9599  6.28921e+18
34.0772  4.36272e+18
34.1945  4.29255e+18
34.3118  6.66233e+18
34.4291  1.20264e+19
34.5464  2.07792e+19
34.6637  3.31178e+19
34.781  4.88343e+19
34.8983  6.73499e+19
35.0156  8.76086e+19
35.1329  1.08248e+20
35.2503  1.27655e+20
35.3676  1.44169e+20
35.4849  1.56418e+20
35.6022  1.63343e+20
35.7195  1.64497e+20
35.8368  1.60077e+20
35.9541  1.50747e+20
36.0714  1.37774e+20
36.1887  1.22599e+20
36.306  1.06689e+20
36.4233  9.14007e+19
36.5406  7.78625e+19
36.6579  6.68496e+19
36.7752  5.8694e+19
36.8925  5.35193e+19
37.0098  5.11689e+19
37.1271  5.13215e+19
37.2444  5.356e+19
37.3617  5.74937e+19
37.479  6.27457e+19
37.5964  6.90398e+19
37.7137  7.63033e+19
37.831  8.45501e+19
37.9483  9.39374e+19
38.0656  1.04726e+20
38.1829  1.17173e+20
38.3002  1.31524e+20
38.4175  1.47774e+20
38.5348  1.65641e+20
38.6521  1.84664e+20
38.7694  2.03995e+20
38.8867  2.22629e+20
39.004  2.39541e+20
39.1213  2.53826e+20
39.2386  2.64686e+20
39.3559  2.71892e+20
39.4732  2.75449e+20
39.5905  2.75776e+20
39.7078  2.73496e+20
39.8251  2.69415e+20
39.9425  2.6415e+20
40.0598  2.5838e+20
40.1771  2.52499e+20
40.2944  2.46631e+20
40.4117  2.40656e+20
40.529  2.34439e+20
40.6463  2.27593e+20
40.7636  2.19781e+20
40.8809  2.1064e+20
40.9982  2.00112e+20
41.1155  1.88118e+20
41.2328  1.74834e+20
41.3501  1.6065e+20
41.4674  1.46205e+20
41.5847  1.32251e+20
41.702  1.19704e+20
41.8193  1.09333e+20
41.9366  1.01812e+20
42.0539  9.7454e+19
42.1712  9.61653e+19
42.2885  9.74199e+19
42.4059  1.00353e+20
42.5232  1.03884e+20
42.6405  1.06963e+20
42.7578  1.08804e+20
42.8751  1.08923e+20
42.9924  1.07368e+20
43.1097  1.04609e+20
43.227  1.01404e+20
43.3443  9.85793e+19
43.4616  9.68011e+19
43.5789  9.63786e+19
43.6962  9.72916e+19
43.8135  9.90633e+19
43.9308  1.01093e+20
44.0481  1.02709e+20
44.1654  1.03501e+20
44.2827  1.03593e+20
44.4  1.03382e+20
44.5173  1.03704e+20
44.6347  1.05567e+20
44.752  1.0977e+20
44.8693  1.16612e+20
44.9866  1.25765e+20
45.1039  1.36223e+20
45.2212  1.46373e+20
45.3385  1.54288e+20
45.4558  1.58124e+20
45.5731  1.56577e+20
45.6904  1.49033e+20
45.8077  1.35911e+20
45.925  1.18593e+20
46.0423  9.9172e+19
46.1596  8.01291e+19
46.2769  6.38032e+19
46.3942  5.21305e+19
46.5115  4.62851e+19
46.6288  4.63813e+19
46.7461  5.17226e+19
46.8634  6.08246e+19
46.9808  7.17769e+19
47.0981  8.25998e+19
47.2154  9.15988e+19
47.3327  9.7475e+19
47.45  9.95913e+19
47.5673  9.78977e+19
47.6846  9.28727e+19
47.8019  8.53341e+19
47.9192  7.62575e+19
48.0365  6.65715e+19
48.1538  5.70807e+19
48.2711  4.83099e+19
48.3884  4.06245e+19
48.5057  3.4085e+19
48.623  2.86876e+19
48.7403  2.42746e+19
48.8576  2.06594e+19
48.9749  1.77408e+19
49.0922  1.54043e+19
49.2095  1.36245e+19
49.3269  1.24322e+19
49.4442  1.1952e+19
49.5615  1.22859e+19
49.6788  1.35785e+19
49.7961  1.59258e+19
49.9134  1.93812e+19
50.0307  2.38838e+19
50.148  2.92805e+19
50.2653  3.5276e+19
50.3826  4.1588e+19
50.4999  4.78474e+19
50.6172  5.38814e+19
50.7345  5.96645e+19
50.8518  6.54103e+19
