#S 1 spectral density
#N 2
#UFWHM 7.62483
#L  abscissas [um]  spectral density
-58.5938  2.8316e+20
-58.4764  2.99105e+20
-58.3591  3.16312e+20
-58.2418  3.32805e+20
-58.1245  3.45893e+20
-58.0072  3.52826e+20
-57.8899  3.51278e+20
-57.7726  3.4003e+20
-57.6553  3.196e+20
-57.538  2.91754e+20
-57.4207  2.5984e+20
-57.3034  2.27798e+20
-57.1861  1.99761e+20
-57.0688  1.79089e+20
-56.9515  1.67996e+20
-56.8342  1.67025e+20
-56.7169  1.75073e+20
-56.5996  1.89632e+20
-56.4823  2.07332e+20
-56.365  2.24555e+20
-56.2477  2.37958e+20
-56.1303  2.4517e+20
-56.013  2.45107e+20
-55.8957  2.3761e+20
-55.7784  2.23905e+20
-55.6611  2.05751e+20
-55.5438  1.85395e+20
-55.4265  1.65144e+20
-55.3092  1.46928e+20
-55.1919  1.32231e+20
-55.0746  1.22057e+20
-54.9573  1.16657e+20
-54.84  1.16108e+20
-54.7227  1.19889e+20
-54.6054  1.27394e+20
-54.4881  1.37709e+20
-54.3708  1.49929e+20
-54.2535  1.6305e+20
-54.1362  1.76184e+20
-54.0189  1.88639e+20
-53.9016  2.00076e+20
-53.7842  2.1049e+20
-53.6669  2.20409e+20
-53.5496  2.30708e+20
-53.4323  2.42693e+20
-53.315  2.57741e+20
-53.1977  2.77268e+20
-53.0804  3.02288e+20
-52.9631  3.33404e+20
-52.8458  3.70328e+20
-52.7285  4.12177e+20
-52.6112  4.57191e+20
-52.4939  5.03098e+20
-52.3766  5.47139e+20
-52.2593  5.86214e+20
-52.142  6.17564e+20
-52.0247  6.38555e+20
-51.9074  6.4725e+20
-51.7901  6.42497e+20
-51.6728  6.23817e+20
-51.5555  5.91726e+20
-51.4381  5.47898e+20
-51.3208  4.94811e+20
-51.2035  4.35503e+20
-51.0862  3.73676e+20
-50.9689  3.13097e+20
-50.8516  2.57451e+20
-50.7343  2.09462e+20
-50.617  1.71292e+20
-50.4997  1.43697e+20
-50.3824  1.2627e+20
-50.2651  1.17426e+20
-50.1478  1.14742e+20
-50.0305  1.1523e+20
-49.9132  1.16023e+20
-49.7959  1.14556e+20
-49.6786  1.09209e+20
-49.5613  9.93951e+19
-49.444  8.56303e+19
-49.3267  6.93757e+19
-49.2094  5.27927e+19
-49.092  3.82953e+19
-48.9747  2.81092e+19
-48.8574  2.38568e+19
-48.7401  2.63495e+19
-48.6228  3.53677e+19
-48.5055  4.98254e+19
-48.3882  6.79157e+19
-48.2709  8.74191e+19
-48.1536  1.06084e+20
-48.0363  1.22079e+20
-47.919  1.34197e+20
-47.8017  1.41973e+20
-47.6844  1.45908e+20
-47.5671  1.47052e+20
-47.4498  1.46967e+20
-47.3325  1.4719e+20
-47.2152  1.49176e+20
-47.0979  1.53714e+20
-46.9806  1.6109e+20
-46.8633  1.70844e+20
-46.7459  1.81987e+20
-46.6286  1.93406e+20
-46.5113  2.03905e+20
-46.394  2.12615e+20
-46.2767  2.19032e+20
-46.1594  2.23332e+20
-46.0421  2.259e+20
-45.9248  2.27521e+20
-45.8075  2.28894e+20
-45.6902  2.30561e+20
-45.5729  2.32644e+20
-45.4556  2.34968e+20
-45.3383  2.37108e+20
-45.221  2.38439e+20
-45.1037  2.38594e+20
-44.9864  2.37601e+20
-44.8691  2.35725e+20
-44.7518  2.33862e+20
-44.6345  2.3306e+20
-44.5172  2.34391e+20
-44.3998  2.38655e+20
-44.2825  2.46141e+20
-44.1652  2.563e+20
-44.0479  2.67905e+20
-43.9306  2.79174e+20
-43.8133  2.87893e+20
-43.696  2.92007e+20
-43.5787  2.8979e+20
-43.4614  2.80354e+20
-43.3441  2.63612e+20
-43.2268  2.40556e+20
-43.1095  2.13033e+20
-42.9922  1.83226e+20
-42.8749  1.53816e+20
-42.7576  1.272e+20
-42.6403  1.05257e+20
-42.523  8.92645e+19
-42.4057  7.96986e+19
-42.2884  7.62316e+19
-42.171  7.7885e+19
-42.0537  8.33533e+19
-41.9364  9.11198e+19
-41.8191  9.97682e+19
-41.7018  1.08266e+20
-41.5845  1.16011e+20
-41.4672  1.23168e+20
-41.3499  1.30313e+20
-41.2326  1.38696e+20
-41.1153  1.49787e+20
-40.998  1.65238e+20
-40.8807  1.86429e+20
-40.7634  2.14307e+20
-40.6461  2.49003e+20
-40.5288  2.89707e+20
-40.4115  3.34764e+20
-40.2942  3.81541e+20
-40.1769  4.26652e+20
-40.0596  4.66622e+20
-39.9423  4.97913e+20
-39.825  5.17723e+20
-39.7076  5.24079e+20
-39.5903  5.1647e+20
-39.473  4.95355e+20
-39.3557  4.62779e+20
-39.2384  4.2151e+20
-39.1211  3.75001e+20
-39.0038  3.26873e+20
-38.8865  2.80473e+20
-38.7692  2.38417e+20
-38.6519  2.02525e+20
-38.5346  1.73575e+20
-38.4173  1.51547e+20
-38.3  1.35573e+20
-38.1827  1.24424e+20
-38.0654  1.1662e+20
-37.9481  1.10672e+20
-37.8308  1.05353e+20
-37.7135  9.98018e+19
-37.5962  9.3589e+19
-37.4789  8.66392e+19
-37.3615  7.93297e+19
-37.2442  7.24339e+19
-37.1269  6.69388e+19
-37.0096  6.40711e+19
-36.8923  6.51185e+19
-36.775  7.12624e+19
-36.6577  8.33212e+19
-36.5404  1.01783e+20
-36.4231  1.26311e+20
-36.3058  1.55882e+20
-36.1885  1.88724e+20
-36.0712  2.22519e+20
-35.9539  2.54549e+20
-35.8366  2.82199e+20
-35.7193  3.03222e+20
-35.602  3.16246e+20
-35.4847  3.20812e+20
-35.3674  3.17614e+20
-35.2501  3.08201e+20
-35.1328  2.94925e+20
-35.0154  2.80329e+20
-34.8981  2.66773e+20
-34.7808  2.56209e+20
-34.6635  2.498e+20
-34.5462  2.47903e+20
-34.4289  2.50192e+20
-34.3116  2.55657e+20
-34.1943  2.63054e+20
-34.077  2.71042e+20
-33.9597  2.78453e+20
-33.8424  2.84154e+20
-33.7251  2.87382e+20
-33.6078  2.87328e+20
-33.4905  2.83698e+20
-33.3732  2.7629e+20
-33.2559  2.65106e+20
-33.1386  2.50733e+20
-33.0213  2.34108e+20
-32.904  2.16558e+20
-32.7867  1.99815e+20
-32.6693  1.85733e+20
-32.552  1.75891e+20
-32.4347  1.71428e+20
-32.3174  1.72556e+20
-32.2001  1.7857e+20
-32.0828  1.87841e+20
-31.9655  1.98e+20
-31.8482  2.06459e+20
-31.7309  2.10712e+20
-31.6136  2.09076e+20
-31.4963  2.00841e+20
-31.379  1.86558e+20
-31.2617  1.67896e+20
-31.1444  1.47358e+20
-31.0271  1.27794e+20
-30.9098  1.11954e+20
-30.7925  1.01907e+20
-30.6752  9.87555e+19
-30.5579  1.02478e+20
-30.4406  1.12105e+20
-30.3232  1.25956e+20
-30.2059  1.41807e+20
-30.0886  1.57846e+20
-29.9713  1.72526e+20
-29.854  1.85133e+20
-29.7367  1.95725e+20
-29.6194  2.05088e+20
-29.5021  2.14493e+20
-29.3848  2.25322e+20
-29.2675  2.3883e+20
-29.1502  2.55872e+20
-29.0329  2.76967e+20
-28.9156  3.01787e+20
-28.7983  3.29833e+20
-28.681  3.60331e+20
-28.5637  3.92382e+20
-28.4464  4.25126e+20
-28.3291  4.58101e+20
-28.2118  4.90633e+20
-28.0944  5.223e+20
-27.9771  5.52402e+20
-27.8598  5.8002e+20
-27.7425  6.03907e+20
-27.6252  6.22225e+20
-27.5079  6.33351e+20
-27.3906  6.35526e+20
-27.2733  6.27195e+20
-27.156  6.0779e+20
-27.0387  5.77272e+20
-26.9214  5.36792e+20
-26.8041  4.88321e+20
-26.6868  4.34579e+20
-26.5695  3.78737e+20
-26.4522  3.23961e+20
-26.3349  2.7321e+20
-26.2176  2.28764e+20
-26.1003  1.92115e+20
-25.983  1.63792e+20
-25.8657  1.43579e+20
-25.7483  1.30439e+20
-25.631  1.22912e+20
-25.5137  1.19431e+20
-25.3964  1.18521e+20
-25.2791  1.19037e+20
-25.1618  1.20451e+20
-25.0445  1.22865e+20
-24.9272  1.26759e+20
-24.8099  1.33222e+20
-24.6926  1.43369e+20
-24.5753  1.58126e+20
-24.458  1.78037e+20
-24.3407  2.02983e+20
-24.2234  2.32056e+20
-24.1061  2.63649e+20
-23.9888  2.9538e+20
-23.8715  3.24863e+20
-23.7542  3.49332e+20
-23.6369  3.66668e+20
-23.5196  3.75453e+20
-23.4023  3.74967e+20
-23.2849  3.65876e+20
-23.1676  3.49453e+20
-23.0503  3.28015e+20
-22.933  3.04232e+20
-22.8157  2.80764e+20
-22.6984  2.60117e+20
-22.5811  2.44261e+20
-22.4638  2.34186e+20
-22.3465  2.30129e+20
-22.2292  2.31382e+20
-22.1119  2.36589e+20
-21.9946  2.44133e+20
-21.8773  2.52181e+20
-21.76  2.59307e+20
-21.6427  2.64601e+20
-21.5254  2.67744e+20
-21.4081  2.69374e+20
-21.2908  2.70444e+20
-21.1735  2.72393e+20
-21.0561  2.76735e+20
-20.9388  2.84747e+20
-20.8215  2.97112e+20
-20.7042  3.13868e+20
-20.5869  3.34273e+20
-20.4696  3.57108e+20
-20.3523  3.80684e+20
-20.235  4.03086e+20
-20.1177  4.22715e+20
-20.0004  4.38376e+20
-19.8831  4.49418e+20
-19.7658  4.55939e+20
-19.6485  4.58552e+20
-19.5312  4.58222e+20
-19.4139  4.563e+20
-19.2966  4.54043e+20
-19.1793  4.52369e+20
-19.062  4.52003e+20
-18.9447  4.53318e+20
-18.8274  4.56016e+20
-18.71  4.59754e+20
-18.5927  4.6369e+20
-18.4754  4.66938e+20
-18.3581  4.68627e+20
-18.2408  4.67475e+20
-18.1235  4.62851e+20
-18.0062  4.54026e+20
-17.8889  4.40429e+20
-17.7716  4.22025e+20
-17.6543  3.99082e+20
-17.537  3.7252e+20
-17.4197  3.43938e+20
-17.3024  3.15434e+20
-17.1851  2.89614e+20
-17.0678  2.69358e+20
-16.9505  2.575e+20
-16.8332  2.56571e+20
-16.7159  2.68477e+20
-16.5986  2.94128e+20
-16.4813  3.33442e+20
-16.364  3.85051e+20
-16.2466  4.46627e+20
-16.1293  5.14915e+20
-16.012  5.8605e+20
-15.8947  6.55903e+20
-15.7774  7.20563e+20
-15.6601  7.76685e+20
-15.5428  8.2169e+20
-15.4255  8.54274e+20
-15.3082  8.74024e+20
-15.1909  8.82402e+20
-15.0736  8.81432e+20
-14.9563  8.74452e+20
-14.839  8.65016e+20
-14.7217  8.56954e+20
-14.6044  8.53443e+20
-14.4871  8.56681e+20
-14.3698  8.67638e+20
-14.2525  8.86147e+20
-14.1352  9.10369e+20
-14.0178  9.37398e+20
-13.9005  9.63813e+20
-13.7832  9.86205e+20
-13.6659  1.00147e+21
-13.5486  1.00743e+21
-13.4313  1.00344e+21
-13.314  9.90078e+20
-13.1967  9.69034e+20
-13.0794  9.42967e+20
-12.9621  9.15419e+20
-12.8448  8.89737e+20
-12.7275  8.69187e+20
-12.6102  8.56073e+20
-12.4929  8.52465e+20
-12.3756  8.58999e+20
-12.2583  8.75437e+20
-12.141  9.00717e+20
-12.0237  9.33162e+20
-11.9064  9.70275e+20
-11.7891  1.00883e+21
-11.6718  1.04582e+21
-11.5544  1.07777e+21
-11.4371  1.10132e+21
-11.3198  1.11384e+21
-11.2025  1.11326e+21
-11.0852  1.0983e+21
-10.9679  1.06891e+21
-10.8506  1.02632e+21
-10.7333  9.73153e+20
-10.616  9.12905e+20
-10.4987  8.50121e+20
-10.3814  7.90228e+20
-10.2641  7.38772e+20
-10.1468  7.01379e+20
-10.0295  6.83025e+20
-9.91217  6.8828e+20
-9.79487  7.2063e+20
-9.67756  7.82382e+20
-9.56026  8.74659e+20
-9.44295  9.97553e+20
-9.32565  1.15015e+21
-9.20834  1.33036e+21
-9.09104  1.53547e+21
-8.97373  1.76201e+21
-8.85643  2.00598e+21
-8.73913  2.26321e+21
-8.62182  2.52876e+21
-8.50452  2.79798e+21
-8.38721  3.06633e+21
-8.26991  3.32937e+21
-8.1526  3.58349e+21
-8.03529  3.82591e+21
-7.91799  4.05455e+21
-7.80069  4.26801e+21
-7.68338  4.46684e+21
-7.56608  4.65097e+21
-7.44877  4.82244e+21
-7.33146  4.98204e+21
-7.21416  5.13214e+21
-7.09685  5.27378e+21
-6.97955  5.40862e+21
-6.86224  5.53704e+21
-6.74494  5.6587e+21
-6.62763  5.77334e+21
-6.51033  5.87891e+21
-6.39302  5.97361e+21
-6.27572  6.05528e+21
-6.15842  6.12222e+21
-6.04111  6.17248e+21
-5.92381  6.2066e+21
-5.8065  6.22612e+21
-5.68919  6.23515e+21
-5.57189  6.24096e+21
-5.45458  6.25351e+21
-5.33728  6.28483e+21
-5.21997  6.34978e+21
-5.10267  6.46347e+21
-4.98536  6.64194e+21
-4.86806  6.89925e+21
-4.75075  7.24708e+21
-4.63345  7.69367e+21
-4.51614  8.24268e+21
-4.39884  8.89237e+21
-4.28154  9.63662e+21
-4.16423  1.04637e+22
-4.04692  1.13576e+22
-3.92962  1.22988e+22
-3.81231  1.32656e+22
-3.69501  1.42343e+22
-3.5777  1.51819e+22
-3.4604  1.60853e+22
-3.34309  1.69239e+22
-3.22579  1.768e+22
-3.10849  1.83405e+22
-2.99118  1.88951e+22
-2.87387  1.93402e+22
-2.75657  1.9676e+22
-2.63926  1.99094e+22
-2.52196  2.00516e+22
-2.40465  2.01187e+22
-2.28735  2.01305e+22
-2.17005  2.01103e+22
-2.05274  2.0082e+22
-1.93544  2.00691e+22
-1.81813  2.00954e+22
-1.70083  2.018e+22
-1.58352  2.03378e+22
-1.46622  2.05774e+22
-1.34891  2.09021e+22
-1.2316  2.13083e+22
-1.1143  2.17846e+22
-0.996995  2.23158e+22
-0.87969  2.28808e+22
-0.762385  2.34544e+22
-0.64508  2.40116e+22
-0.527775  2.45248e+22
-0.41047  2.49703e+22
-0.293165  2.53255e+22
-0.17586  2.55727e+22
-0.058555  2.57001e+22
0.05875  2.57012e+22
0.176055  2.55758e+22
0.29336  2.53305e+22
0.410665  2.49772e+22
0.52797  2.4534e+22
0.645275  2.40231e+22
0.76258  2.34693e+22
0.879885  2.28987e+22
0.99719  2.23377e+22
1.1145  2.18107e+22
1.2318  2.13387e+22
1.3491  2.09373e+22
1.46641  2.06179e+22
1.58371  2.0383e+22
1.70102  2.02308e+22
1.81832  2.0151e+22
1.93563  2.0129e+22
2.05294  2.01458e+22
2.17024  2.01782e+22
2.28754  2.02017e+22
2.40485  2.01922e+22
2.52216  2.0127e+22
2.63946  1.99858e+22
2.75677  1.97526e+22
2.87407  1.94163e+22
2.99137  1.89704e+22
3.10868  1.84133e+22
3.22599  1.77507e+22
3.34329  1.69915e+22
3.4606  1.6149e+22
3.5779  1.52416e+22
3.69521  1.42902e+22
3.81251  1.33169e+22
3.92982  1.23461e+22
4.04712  1.14011e+22
4.16443  1.05038e+22
4.28173  9.67368e+21
4.39903  8.92662e+21
4.51634  8.27467e+21
4.63364  7.7238e+21
4.75095  7.27562e+21
4.86825  6.92653e+21
4.98556  6.66805e+21
5.10286  6.48853e+21
5.22017  6.37369e+21
5.33748  6.30778e+21
5.45478  6.27544e+21
5.57209  6.26198e+21
5.68939  6.25545e+21
5.8067  6.24566e+21
5.924  6.22573e+21
6.0413  6.19174e+21
6.15861  6.14147e+21
6.27591  6.07497e+21
6.39322  5.99375e+21
6.51052  5.89941e+21
6.62783  5.79438e+21
6.74514  5.68041e+21
6.86244  5.55911e+21
6.97975  5.431e+21
7.09705  5.29638e+21
7.21436  5.15451e+21
7.33166  5.00435e+21
7.44897  4.84438e+21
7.56627  4.67243e+21
7.68358  4.48747e+21
7.80088  4.28777e+21
7.91819  4.07296e+21
8.03549  3.84304e+21
8.1528  3.59913e+21
8.2701  3.34344e+21
8.38741  3.07891e+21
8.50471  2.80906e+21
8.62202  2.53878e+21
8.73932  2.27208e+21
8.85662  2.01392e+21
8.97393  1.76918e+21
9.09123  1.54223e+21
9.20854  1.33674e+21
9.32584  1.15621e+21
9.44315  1.00358e+21
9.56045  8.80578e+20
9.67776  7.88252e+20
9.79506  7.26525e+20
9.91237  6.94277e+20
10.0297  6.89076e+20
10.147  7.07341e+20
10.2643  7.44772e+20
10.3816  7.96211e+20
10.4989  8.5598e+20
10.6162  9.18635e+20
10.7335  9.7876e+20
10.8508  1.03164e+21
10.9681  1.07392e+21
11.0854  1.10292e+21
11.2027  1.11755e+21
11.32  1.11782e+21
11.4373  1.10505e+21
11.5546  1.08122e+21
11.6719  1.04913e+21
11.7893  1.0121e+21
11.9066  9.7343e+20
12.0239  9.36612e+20
12.1412  9.04345e+20
12.2585  8.79294e+20
12.3758  8.63212e+20
12.4931  8.5711e+20
12.6104  8.61251e+20
12.7277  8.74689e+20
12.845  8.95617e+20
12.9623  9.21636e+20
13.0796  9.49367e+20
13.1969  9.75396e+20
13.3142  9.96483e+20
13.4315  1.00982e+21
13.5488  1.01359e+21
13.6661  1.00729e+21
13.7834  9.91798e+20
13.9007  9.69221e+20
14.018  9.42547e+20
14.1354  9.15451e+20
14.2527  8.91225e+20
14.37  8.72668e+20
14.4873  8.61753e+20
14.6046  8.58625e+20
14.7219  8.62286e+20
14.8392  8.70399e+20
14.9565  8.79795e+20
15.0738  8.86665e+20
15.1911  8.87443e+20
15.3084  8.78781e+20
15.4257  8.5858e+20
15.543  8.25549e+20
15.6603  7.79992e+20
15.7776  7.23342e+20
15.8949  6.58132e+20
16.0122  5.8768e+20
16.1295  5.16157e+20
16.2468  4.47538e+20
16.3641  3.85735e+20
16.4815  3.33896e+20
16.5988  2.94473e+20
16.7161  2.68678e+20
16.8334  2.56687e+20
16.9507  2.57458e+20
17.068  2.69164e+20
17.1853  2.89207e+20
17.3026  3.14782e+20
17.4199  3.42993e+20
17.5372  3.71379e+20
17.6545  3.97738e+20
17.7718  4.20658e+20
17.8891  4.39183e+20
18.0064  4.52983e+20
18.1237  4.62022e+20
18.241  4.66964e+20
18.3583  4.68446e+20
18.4756  4.67314e+20
18.5929  4.64505e+20
18.7102  4.61157e+20
18.8275  4.5785e+20
18.9449  4.55713e+20
19.0622  4.54838e+20
19.1795  4.55563e+20
19.2968  4.57486e+20
19.4141  4.59896e+20
19.5314  4.61771e+20
19.6487  4.61823e+20
19.766  4.58798e+20
19.8833  4.51706e+20
20.0006  4.39877e+20
20.1179  4.23382e+20
20.2352  4.02886e+20
20.3525  3.79698e+20
20.4698  3.55618e+20
20.5871  3.32393e+20
20.7044  3.11813e+20
20.8217  2.95087e+20
20.939  2.82967e+20
21.0563  2.75283e+20
21.1736  2.71218e+20
21.291  2.69504e+20
21.4083  2.68555e+20
21.5256  2.6695e+20
21.6429  2.63613e+20
21.7602  2.58094e+20
21.8775  2.50655e+20
21.9948  2.42298e+20
22.1121  2.3459e+20
22.2294  2.29295e+20
22.3467  2.28116e+20
22.464  2.32359e+20
22.5813  2.42773e+20
22.6986  2.59023e+20
22.8159  2.80014e+20
22.9332  3.03879e+20
23.0505  3.28012e+20
23.1678  3.49646e+20
23.2851  3.66194e+20
23.4024  3.75291e+20
23.5198  3.75617e+20
23.6371  3.6673e+20
23.7544  3.49212e+20
23.8717  3.2461e+20
23.989  2.95036e+20
24.1063  2.63203e+20
24.2236  2.31628e+20
24.3409  2.02576e+20
24.4582  1.7775e+20
24.5755  1.57889e+20
24.6928  1.43237e+20
24.8101  1.33207e+20
24.9274  1.26839e+20
25.0447  1.22991e+20
25.162  1.20737e+20
25.2793  1.1948e+20
25.3966  1.19159e+20
25.5139  1.20363e+20
25.6312  1.24174e+20
25.7485  1.32029e+20
25.8658  1.45468e+20
25.9832  1.65956e+20
26.1005  1.94398e+20
26.2178  2.31132e+20
26.3351  2.75473e+20
26.4524  3.25971e+20
26.5697  3.80412e+20
26.687  4.35846e+20
26.8043  4.89147e+20
26.9216  5.3724e+20
27.0389  5.77428e+20
27.1562  6.07844e+20
27.2735  6.27424e+20
27.3908  6.35894e+20
27.5081  6.34134e+20
27.6254  6.23411e+20
27.7427  6.05477e+20
27.86  5.81946e+20
27.9773  5.54535e+20
28.0946  5.24506e+20
28.212  4.92634e+20
28.3293  4.59796e+20
28.4466  4.26349e+20
28.5639  3.93058e+20
28.6812  3.60515e+20
28.7985  3.29505e+20
28.9158  3.01034e+20
29.0331  2.75899e+20
29.1504  2.54684e+20
29.2677  2.37489e+20
29.385  2.23975e+20
29.5023  2.13167e+20
29.6196  2.03805e+20
29.7369  1.94473e+20
29.8542  1.83923e+20
29.9715  1.71394e+20
30.0888  1.56844e+20
30.2061  1.41017e+20
30.3234  1.25418e+20
30.4407  1.11995e+20
30.558  1.02801e+20
30.6754  9.95306e+19
30.7927  1.03165e+20
30.91  1.13628e+20
31.0273  1.29799e+20
31.1446  1.49532e+20
31.2619  1.70119e+20
31.3792  1.88674e+20
31.4965  2.02753e+20
31.6138  2.10704e+20
31.7311  2.12046e+20
31.8484  2.07502e+20
31.9657  1.9887e+20
32.083  1.88569e+20
32.2003  1.7922e+20
32.3176  1.73156e+20
32.4349  1.72021e+20
32.5522  1.76435e+20
32.6695  1.86155e+20
32.7868  2.00097e+20
32.9042  2.16601e+20
33.0215  2.33937e+20
33.1388  2.50274e+20
33.2561  2.6445e+20
33.3734  2.75385e+20
33.4907  2.82677e+20
33.608  2.86222e+20
33.7253  2.86192e+20
33.8426  2.83045e+20
33.9599  2.774e+20
34.0772  2.70016e+20
34.1945  2.62072e+20
34.3118  2.54715e+20
34.4291  2.49311e+20
34.5464  2.47109e+20
34.6637  2.4906e+20
34.781  2.55529e+20
34.8983  2.66161e+20
35.0156  2.79738e+20
35.1329  2.94359e+20
35.2503  3.07561e+20
35.3676  3.1685e+20
35.4849  3.19936e+20
35.6022  3.15232e+20
35.7195  3.02076e+20
35.8368  2.80913e+20
35.9541  2.53198e+20
36.0714  2.2118e+20
36.1887  1.87491e+20
36.306  1.54819e+20
36.4233  1.25448e+20
36.5406  1.0118e+20
36.6579  8.30423e+19
36.7752  7.11976e+19
36.8925  6.53216e+19
37.0098  6.44882e+19
37.1271  6.75156e+19
37.2444  7.3115e+19
37.3617  8.00753e+19
37.479  8.74057e+19
37.5964  9.43137e+19
37.7137  1.00468e+20
37.831  1.05899e+20
37.9483  1.11067e+20
38.0656  1.16906e+20
38.1829  1.24632e+20
38.3002  1.35695e+20
38.4175  1.51653e+20
38.5348  1.73755e+20
38.6521  2.02805e+20
38.7694  2.38859e+20
38.8867  2.81115e+20
39.004  3.27712e+20
39.1213  3.75914e+20
39.2386  4.22461e+20
39.3559  4.63736e+20
39.4732  4.96296e+20
39.5905  5.17285e+20
39.7078  5.24784e+20
39.8251  5.18215e+20
39.9425  4.98221e+20
40.0598  4.66737e+20
40.1771  4.26756e+20
40.2944  3.81614e+20
40.4117  3.34923e+20
40.529  2.89864e+20
40.6463  2.49159e+20
40.7636  2.14459e+20
40.8809  1.86487e+20
40.9982  1.65182e+20
41.1155  1.49548e+20
41.2328  1.38243e+20
41.3501  1.29653e+20
41.4674  1.22317e+20
41.5847  1.15013e+20
41.702  1.07156e+20
41.8193  9.86866e+19
41.9366  9.01381e+19
42.0539  8.25819e+19
42.1712  7.7411e+19
42.2885  7.61098e+19
42.4059  8.00141e+19
42.5232  9.00185e+19
42.6405  1.06419e+20
42.7578  1.2879e+20
42.8751  1.55709e+20
42.9924  1.85296e+20
43.1097  2.15144e+20
43.227  2.42652e+20
43.3443  2.6557e+20
43.4616  2.82035e+20
43.5789  2.91241e+20
43.6962  2.9323e+20
43.8135  2.88931e+20
43.9308  2.80094e+20
44.0481  2.68844e+20
44.1654  2.57224e+20
44.2827  2.47171e+20
44.4  2.39768e+20
44.5173  2.35502e+20
44.6347  2.34122e+20
44.752  2.34758e+20
44.8693  2.36404e+20
44.9866  2.37939e+20
45.1039  2.38674e+20
45.2212  2.3816e+20
45.3385  2.36633e+20
45.4558  2.34464e+20
45.5731  2.32167e+20
45.6904  2.30185e+20
45.8077  2.28751e+20
45.925  2.27568e+20
46.0423  2.26111e+20
46.1596  2.23574e+20
46.2769  2.19298e+20
46.3942  2.12742e+20
46.5115  2.03894e+20
46.6288  1.93206e+20
46.7461  1.81619e+20
46.8634  1.70314e+20
46.9808  1.60548e+20
47.0981  1.53204e+20
47.2154  1.48691e+20
47.3327  1.46802e+20
47.45  1.46629e+20
47.5673  1.46748e+20
47.6846  1.45567e+20
47.8019  1.41534e+20
47.9192  1.33573e+20
48.0365  1.21272e+20
48.1538  1.05118e+20
48.2711  8.63307e+19
48.3884  6.68358e+19
48.5057  4.88411e+19
48.623  3.4602e+19
48.7403  2.59044e+19
48.8576  2.38318e+19
48.9749  2.84835e+19
49.0922  3.90588e+19
49.2095  5.38764e+19
49.3269  7.06465e+19
49.4442  8.69756e+19
49.5615  1.00702e+20
49.6788  1.10395e+20
49.7961  1.15546e+20
49.9134  1.16836e+20
50.0307  1.15908e+20
50.148  1.15303e+20
50.2653  1.17981e+20
50.3826  1.26921e+20
50.4999  1.44473e+20
50.6172  1.72268e+20
50.7345  2.10599e+20
50.8518  2.58711e+20
