#S 1 spectral density
#N 2
#UFWHM 30.4993
#L  abscissas [um]  spectral density
-58.5938  1.95536e+20
-58.4764  2.01246e+20
-58.3591  2.05682e+20
-58.2418  2.08586e+20
-58.1245  2.09851e+20
-58.0072  2.09574e+20
-57.8899  2.08071e+20
-57.7726  2.05712e+20
-57.6553  2.02924e+20
-57.538  1.99923e+20
-57.4207  1.968e+20
-57.3034  1.93441e+20
-57.1861  1.89596e+20
-57.0688  1.8497e+20
-56.9515  1.79408e+20
-56.8342  1.729e+20
-56.7169  1.65583e+20
-56.5996  1.57821e+20
-56.4823  1.49979e+20
-56.365  1.42411e+20
-56.2477  1.35453e+20
-56.1303  1.29381e+20
-56.013  1.24382e+20
-55.8957  1.20779e+20
-55.7784  1.18991e+20
-55.6611  1.19534e+20
-55.5438  1.22999e+20
-55.4265  1.29833e+20
-55.3092  1.40312e+20
-55.1919  1.54274e+20
-55.0746  1.71136e+20
-54.9573  1.89803e+20
-54.84  2.08807e+20
-54.7227  2.26707e+20
-54.6054  2.42031e+20
-54.4881  2.53662e+20
-54.3708  2.60954e+20
-54.2535  2.63828e+20
-54.1362  2.62593e+20
-54.0189  2.57875e+20
-53.9016  2.50602e+20
-53.7842  2.41505e+20
-53.6669  2.31462e+20
-53.5496  2.21027e+20
-53.4323  2.10676e+20
-53.315  2.00801e+20
-53.1977  1.91651e+20
-53.0804  1.83427e+20
-52.9631  1.76254e+20
-52.8458  1.70267e+20
-52.7285  1.6546e+20
-52.6112  1.61913e+20
-52.4939  1.59606e+20
-52.3766  1.58778e+20
-52.2593  1.59632e+20
-52.142  1.62551e+20
-52.0247  1.68009e+20
-51.9074  1.76315e+20
-51.7901  1.87707e+20
-51.6728  2.02038e+20
-51.5555  2.18753e+20
-51.4381  2.37037e+20
-51.3208  2.55586e+20
-51.2035  2.73217e+20
-51.0862  2.88642e+20
-50.9689  3.01093e+20
-50.8516  3.10146e+20
-50.7343  3.15917e+20
-50.617  3.19027e+20
-50.4997  3.20567e+20
-50.3824  3.21561e+20
-50.2651  3.23211e+20
-50.1478  3.26236e+20
-50.0305  3.31221e+20
-49.9132  3.38098e+20
-49.7959  3.46542e+20
-49.6786  3.55759e+20
-49.5613  3.64789e+20
-49.444  3.7266e+20
-49.3267  3.78395e+20
-49.2094  3.81165e+20
-49.092  3.80493e+20
-48.9747  3.76257e+20
-48.8574  3.6873e+20
-48.7401  3.58368e+20
-48.6228  3.46057e+20
-48.5055  3.32757e+20
-48.3882  3.19313e+20
-48.2709  3.06665e+20
-48.1536  2.95475e+20
-48.0363  2.86028e+20
-47.919  2.78506e+20
-47.8017  2.72755e+20
-47.6844  2.68544e+20
-47.5671  2.65522e+20
-47.4498  2.63321e+20
-47.3325  2.61731e+20
-47.2152  2.60523e+20
-47.0979  2.59689e+20
-46.9806  2.59301e+20
-46.8633  2.59625e+20
-46.7459  2.61007e+20
-46.6286  2.64052e+20
-46.5113  2.69585e+20
-46.394  2.78537e+20
-46.2767  2.91866e+20
-46.1594  3.10392e+20
-46.0421  3.34665e+20
-45.9248  3.64709e+20
-45.8075  3.99864e+20
-45.6902  4.38817e+20
-45.5729  4.79497e+20
-45.4556  5.19487e+20
-45.3383  5.56143e+20
-45.221  5.87022e+20
-45.1037  6.10102e+20
-44.9864  6.24046e+20
-44.8691  6.28538e+20
-44.7518  6.24237e+20
-44.6345  6.12512e+20
-44.5172  5.95179e+20
-44.3998  5.74677e+20
-44.2825  5.5321e+20
-44.1652  5.33118e+20
-44.0479  5.16016e+20
-43.9306  5.03245e+20
-43.8133  4.95443e+20
-43.696  4.92626e+20
-43.5787  4.94349e+20
-43.4614  4.99622e+20
-43.3441  5.07167e+20
-43.2268  5.15511e+20
-43.1095  5.23269e+20
-42.9922  5.29335e+20
-42.8749  5.32987e+20
-42.7576  5.34055e+20
-42.6403  5.32885e+20
-42.523  5.30396e+20
-42.4057  5.2768e+20
-42.2884  5.26133e+20
-42.171  5.26954e+20
-42.0537  5.30619e+20
-41.9364  5.37513e+20
-41.8191  5.46949e+20
-41.7018  5.58125e+20
-41.5845  5.694e+20
-41.4672  5.79168e+20
-41.3499  5.85859e+20
-41.2326  5.88123e+20
-41.1153  5.85061e+20
-40.998  5.76361e+20
-40.8807  5.62193e+20
-40.7634  5.43605e+20
-40.6461  5.21791e+20
-40.5288  4.98682e+20
-40.4115  4.75875e+20
-40.2942  4.5537e+20
-40.1769  4.38625e+20
-40.0596  4.2686e+20
-39.9423  4.20565e+20
-39.825  4.19613e+20
-39.7076  4.233e+20
-39.5903  4.30203e+20
-39.473  4.38698e+20
-39.3557  4.47058e+20
-39.2384  4.53659e+20
-39.1211  4.57328e+20
-39.0038  4.57565e+20
-38.8865  4.54337e+20
-38.7692  4.48247e+20
-38.6519  4.40425e+20
-38.5346  4.32306e+20
-38.4173  4.25447e+20
-38.3  4.21363e+20
-38.1827  4.21472e+20
-38.0654  4.27083e+20
-37.9481  4.39026e+20
-37.8308  4.57995e+20
-37.7135  4.83992e+20
-37.5962  5.16694e+20
-37.4789  5.55e+20
-37.3615  5.97255e+20
-37.2442  6.41283e+20
-37.1269  6.84386e+20
-37.0096  7.24103e+20
-36.8923  7.58064e+20
-36.775  7.84707e+20
-36.6577  8.03269e+20
-36.5404  8.14114e+20
-36.4231  8.18361e+20
-36.3058  8.17702e+20
-36.1885  8.14318e+20
-36.0712  8.09975e+20
-35.9539  8.06071e+20
-35.8366  8.03205e+20
-35.7193  8.01259e+20
-35.602  7.99785e+20
-35.4847  7.97517e+20
-35.3674  7.93371e+20
-35.2501  7.86588e+20
-35.1328  7.76794e+20
-35.0154  7.6406e+20
-34.8981  7.48869e+20
-34.7808  7.32154e+20
-34.6635  7.15204e+20
-34.5462  6.99111e+20
-34.4289  6.85118e+20
-34.3116  6.74318e+20
-34.1943  6.675e+20
-34.077  6.65072e+20
-33.9597  6.67194e+20
-33.8424  6.73537e+20
-33.7251  6.83396e+20
-33.6078  6.9553e+20
-33.4905  7.08548e+20
-33.3732  7.20912e+20
-33.2559  7.31247e+20
-33.1386  7.38663e+20
-33.0213  7.42683e+20
-32.904  7.43526e+20
-32.7867  7.42037e+20
-32.6693  7.39657e+20
-32.552  7.37995e+20
-32.4347  7.38603e+20
-32.3174  7.42867e+20
-32.2001  7.518e+20
-32.0828  7.6586e+20
-31.9655  7.84979e+20
-31.8482  8.08709e+20
-31.7309  8.36333e+20
-31.6136  8.66899e+20
-31.4963  8.99409e+20
-31.379  9.32822e+20
-31.2617  9.66411e+20
-31.1444  9.99241e+20
-31.0271  1.03084e+21
-30.9098  1.06102e+21
-30.7925  1.08953e+21
-30.6752  1.11656e+21
-30.5579  1.14252e+21
-30.4406  1.16777e+21
-30.3232  1.1927e+21
-30.2059  1.21741e+21
-30.0886  1.24199e+21
-29.9713  1.26612e+21
-29.854  1.2894e+21
-29.7367  1.31112e+21
-29.6194  1.33065e+21
-29.5021  1.34746e+21
-29.3848  1.36126e+21
-29.2675  1.3719e+21
-29.1502  1.37957e+21
-29.0329  1.38463e+21
-28.9156  1.38772e+21
-28.7983  1.3894e+21
-28.681  1.39053e+21
-28.5637  1.39207e+21
-28.4464  1.39498e+21
-28.3291  1.40022e+21
-28.2118  1.40877e+21
-28.0944  1.42148e+21
-27.9771  1.43893e+21
-27.8598  1.46126e+21
-27.7425  1.48807e+21
-27.6252  1.51882e+21
-27.5079  1.55233e+21
-27.3906  1.58733e+21
-27.2733  1.62267e+21
-27.156  1.65717e+21
-27.0387  1.69039e+21
-26.9214  1.72208e+21
-26.8041  1.75255e+21
-26.6868  1.78264e+21
-26.5695  1.81336e+21
-26.4522  1.84587e+21
-26.3349  1.88126e+21
-26.2176  1.92055e+21
-26.1003  1.96414e+21
-25.983  2.01244e+21
-25.8657  2.06533e+21
-25.7483  2.12226e+21
-25.631  2.18254e+21
-25.5137  2.24473e+21
-25.3964  2.30793e+21
-25.2791  2.37058e+21
-25.1618  2.43165e+21
-25.0445  2.48988e+21
-24.9272  2.54486e+21
-24.8099  2.59612e+21
-24.6926  2.6439e+21
-24.5753  2.68839e+21
-24.458  2.7303e+21
-24.3407  2.77002e+21
-24.2234  2.80819e+21
-24.1061  2.84471e+21
-23.9888  2.87968e+21
-23.8715  2.91278e+21
-23.7542  2.94363e+21
-23.6369  2.9716e+21
-23.5196  2.99613e+21
-23.4023  3.01715e+21
-23.2849  3.03447e+21
-23.1676  3.04827e+21
-23.0503  3.0591e+21
-22.933  3.06797e+21
-22.8157  3.07609e+21
-22.6984  3.08518e+21
-22.5811  3.09719e+21
-22.4638  3.11444e+21
-22.3465  3.13908e+21
-22.2292  3.17325e+21
-22.1119  3.21851e+21
-21.9946  3.27608e+21
-21.8773  3.34603e+21
-21.76  3.4277e+21
-21.6427  3.51956e+21
-21.5254  3.61952e+21
-21.4081  3.72472e+21
-21.2908  3.8323e+21
-21.1735  3.93964e+21
-21.0561  4.04455e+21
-20.9388  4.14585e+21
-20.8215  4.24251e+21
-20.7042  4.33496e+21
-20.5869  4.42386e+21
-20.4696  4.51066e+21
-20.3523  4.59672e+21
-20.235  4.6839e+21
-20.1177  4.7729e+21
-20.0004  4.8647e+21
-19.8831  4.95927e+21
-19.7658  5.0556e+21
-19.6485  5.15191e+21
-19.5312  5.24614e+21
-19.4139  5.33489e+21
-19.2966  5.41528e+21
-19.1793  5.48441e+21
-19.062  5.54014e+21
-18.9447  5.58085e+21
-18.8274  5.60637e+21
-18.71  5.61846e+21
-18.5927  5.61967e+21
-18.4754  5.61389e+21
-18.3581  5.60621e+21
-18.2408  5.60173e+21
-18.1235  5.60614e+21
-18.0062  5.62424e+21
-17.8889  5.65972e+21
-17.7716  5.71579e+21
-17.6543  5.79287e+21
-17.537  5.89084e+21
-17.4197  6.00727e+21
-17.3024  6.13892e+21
-17.1851  6.28104e+21
-17.0678  6.42814e+21
-16.9505  6.57505e+21
-16.8332  6.71685e+21
-16.7159  6.84897e+21
-16.5986  6.96806e+21
-16.4813  7.07261e+21
-16.364  7.16247e+21
-16.2466  7.23931e+21
-16.1293  7.30601e+21
-16.012  7.36625e+21
-15.8947  7.4245e+21
-15.7774  7.48539e+21
-15.6601  7.55286e+21
-15.5428  7.63022e+21
-15.4255  7.71882e+21
-15.3082  7.81948e+21
-15.1909  7.93214e+21
-15.0736  8.05385e+21
-14.9563  8.18183e+21
-14.839  8.31265e+21
-14.7217  8.44177e+21
-14.6044  8.56539e+21
-14.4871  8.68002e+21
-14.3698  8.78295e+21
-14.2525  8.87238e+21
-14.1352  8.94763e+21
-14.0178  9.01046e+21
-13.9005  9.06251e+21
-13.7832  9.10696e+21
-13.6659  9.14798e+21
-13.5486  9.18881e+21
-13.4313  9.23335e+21
-13.314  9.2837e+21
-13.1967  9.34108e+21
-13.0794  9.40599e+21
-12.9621  9.4759e+21
-12.8448  9.54924e+21
-12.7275  9.62224e+21
-12.6102  9.69218e+21
-12.4929  9.75603e+21
-12.3756  9.81157e+21
-12.2583  9.85884e+21
-12.141  9.89857e+21
-12.0237  9.93263e+21
-11.9064  9.96423e+21
-11.7891  9.99742e+21
-11.6718  1.00366e+22
-11.5544  1.00861e+22
-11.4371  1.01504e+22
-11.3198  1.02316e+22
-11.2025  1.03315e+22
-11.0852  1.04504e+22
-10.9679  1.05864e+22
-10.8506  1.07363e+22
-10.7333  1.08952e+22
-10.616  1.10573e+22
-10.4987  1.12179e+22
-10.3814  1.13694e+22
-10.2641  1.15075e+22
-10.1468  1.16279e+22
-10.0295  1.17287e+22
-9.91217  1.18084e+22
-9.79487  1.18687e+22
-9.67756  1.19116e+22
-9.56026  1.19405e+22
-9.44295  1.19592e+22
-9.32565  1.19726e+22
-9.20834  1.19842e+22
-9.09104  1.19974e+22
-8.97373  1.20155e+22
-8.85643  1.20393e+22
-8.73913  1.20698e+22
-8.62182  1.21064e+22
-8.50452  1.2148e+22
-8.38721  1.21934e+22
-8.26991  1.22396e+22
-8.1526  1.22861e+22
-8.03529  1.23307e+22
-7.91799  1.23734e+22
-7.80069  1.24146e+22
-7.68338  1.24555e+22
-7.56608  1.24988e+22
-7.44877  1.25482e+22
-7.33146  1.2607e+22
-7.21416  1.26787e+22
-7.09685  1.27668e+22
-6.97955  1.2873e+22
-6.86224  1.29983e+22
-6.74494  1.31431e+22
-6.62763  1.33035e+22
-6.51033  1.34761e+22
-6.39302  1.36551e+22
-6.27572  1.38337e+22
-6.15842  1.40042e+22
-6.04111  1.41594e+22
-5.92381  1.4292e+22
-5.8065  1.43976e+22
-5.68919  1.44715e+22
-5.57189  1.45133e+22
-5.45458  1.45234e+22
-5.33728  1.45063e+22
-5.21997  1.44667e+22
-5.10267  1.44121e+22
-4.98536  1.43499e+22
-4.86806  1.42879e+22
-4.75075  1.42331e+22
-4.63345  1.41916e+22
-4.51614  1.41671e+22
-4.39884  1.41616e+22
-4.28154  1.4176e+22
-4.16423  1.42075e+22
-4.04692  1.4253e+22
-3.92962  1.43078e+22
-3.81231  1.4367e+22
-3.69501  1.44251e+22
-3.5777  1.44775e+22
-3.4604  1.45213e+22
-3.34309  1.45541e+22
-3.22579  1.4576e+22
-3.10849  1.45887e+22
-2.99118  1.45953e+22
-2.87387  1.46006e+22
-2.75657  1.46095e+22
-2.63926  1.46277e+22
-2.52196  1.46595e+22
-2.40465  1.47081e+22
-2.28735  1.47747e+22
-2.17005  1.48585e+22
-2.05274  1.49576e+22
-1.93544  1.5066e+22
-1.81813  1.51778e+22
-1.70083  1.52855e+22
-1.58352  1.53817e+22
-1.46622  1.54591e+22
-1.34891  1.55127e+22
-1.2316  1.55384e+22
-1.1143  1.55352e+22
-0.996995  1.55039e+22
-0.87969  1.54489e+22
-0.762385  1.53751e+22
-0.64508  1.52907e+22
-0.527775  1.52036e+22
-0.41047  1.51217e+22
-0.293165  1.50526e+22
-0.17586  1.50029e+22
-0.058555  1.49769e+22
0.05875  1.49769e+22
0.176055  1.5003e+22
0.29336  1.50525e+22
0.410665  1.51215e+22
0.52797  1.52032e+22
0.645275  1.529e+22
0.76258  1.53736e+22
0.879885  1.54463e+22
0.99719  1.55003e+22
1.1145  1.55301e+22
1.2318  1.5532e+22
1.3491  1.55049e+22
1.46641  1.545e+22
1.58371  1.53707e+22
1.70102  1.5273e+22
1.81832  1.51639e+22
1.93563  1.50504e+22
2.05294  1.49407e+22
2.17024  1.48408e+22
2.28754  1.47555e+22
2.40485  1.46878e+22
2.52216  1.46381e+22
2.63946  1.46055e+22
2.75677  1.45861e+22
2.87407  1.4576e+22
2.99137  1.45695e+22
3.10868  1.45618e+22
3.22599  1.45481e+22
3.34329  1.45255e+22
3.4606  1.44922e+22
3.5779  1.4448e+22
3.69521  1.43948e+22
3.81251  1.43365e+22
3.92982  1.42771e+22
4.04712  1.42222e+22
4.16443  1.41769e+22
4.28173  1.41454e+22
4.39903  1.41313e+22
4.51634  1.41365e+22
4.63364  1.4161e+22
4.75095  1.42022e+22
4.86825  1.42563e+22
4.98556  1.43175e+22
5.10286  1.43785e+22
5.22017  1.44321e+22
5.33748  1.44702e+22
5.45478  1.4486e+22
5.57209  1.44741e+22
5.68939  1.44309e+22
5.8067  1.43555e+22
5.924  1.42489e+22
6.0413  1.41152e+22
6.15861  1.39593e+22
6.27591  1.37881e+22
6.39322  1.36095e+22
6.51052  1.34307e+22
6.62783  1.32579e+22
6.74514  1.30977e+22
6.86244  1.29537e+22
6.97975  1.28282e+22
7.09705  1.27224e+22
7.21436  1.26346e+22
7.33166  1.25629e+22
7.44897  1.25039e+22
7.56627  1.24545e+22
7.68358  1.24104e+22
7.80088  1.23687e+22
7.91819  1.23268e+22
8.03549  1.22835e+22
8.1528  1.22381e+22
8.2701  1.21908e+22
8.38741  1.21432e+22
8.50471  1.20973e+22
8.62202  1.20545e+22
8.73932  1.20169e+22
8.85662  1.19857e+22
8.97393  1.19611e+22
9.09123  1.19423e+22
9.20854  1.19281e+22
9.32584  1.19161e+22
9.44315  1.19019e+22
9.56045  1.18821e+22
9.67776  1.18527e+22
9.79506  1.18089e+22
9.91237  1.17479e+22
10.0297  1.16673e+22
10.147  1.15661e+22
10.2643  1.14453e+22
10.3816  1.13067e+22
10.4989  1.11551e+22
10.6162  1.0995e+22
10.7335  1.08327e+22
10.8508  1.06739e+22
10.9681  1.05246e+22
11.0854  1.03894e+22
11.2027  1.02713e+22
11.32  1.01718e+22
11.4373  1.0091e+22
11.5546  1.00275e+22
11.6719  9.9781e+21
11.7893  9.9394e+21
11.9066  9.90636e+21
12.0239  9.87464e+21
12.1412  9.84066e+21
12.2585  9.80092e+21
12.3758  9.75325e+21
12.4931  9.69716e+21
12.6104  9.63298e+21
12.7277  9.56298e+21
12.845  9.48979e+21
12.9623  9.4161e+21
13.0796  9.34582e+21
13.1969  9.28101e+21
13.3142  9.22314e+21
13.4315  9.17239e+21
13.5488  9.12767e+21
13.6661  9.08631e+21
13.7834  9.04478e+21
13.9007  8.99962e+21
14.018  8.94728e+21
14.1354  8.88379e+21
14.2527  8.8077e+21
14.37  8.71796e+21
14.4873  8.61452e+21
14.6046  8.49962e+21
14.7219  8.37579e+21
14.8392  8.24665e+21
14.9565  8.11629e+21
15.0738  7.9882e+21
15.1911  7.86695e+21
15.3084  7.75482e+21
15.4257  7.65421e+21
15.543  7.56567e+21
15.6603  7.48878e+21
15.7776  7.42179e+21
15.8949  7.36117e+21
16.0122  7.303e+21
16.1295  7.24276e+21
16.2468  7.17622e+21
16.3641  7.09944e+21
16.4815  7.00989e+21
16.5988  6.9057e+21
16.7161  6.78674e+21
16.8334  6.65557e+21
16.9507  6.51462e+21
17.068  6.36851e+21
17.1853  6.22229e+21
17.3026  6.08123e+21
17.4199  5.95082e+21
17.5372  5.83565e+21
17.6545  5.73858e+21
17.7718  5.66259e+21
17.8891  5.60758e+21
18.0064  5.57276e+21
18.1237  5.55519e+21
18.241  5.55115e+21
18.3583  5.55569e+21
18.4756  5.56334e+21
18.5929  5.56893e+21
18.7102  5.56762e+21
18.8275  5.55503e+21
18.9449  5.52903e+21
19.0622  5.48807e+21
19.1795  5.43209e+21
19.2968  5.36277e+21
19.4141  5.28215e+21
19.5314  5.19351e+21
19.6487  5.09962e+21
19.766  5.0034e+21
19.8833  4.9075e+21
20.0006  4.81326e+21
20.1179  4.72177e+21
20.2352  4.63303e+21
20.3525  4.5464e+21
20.4698  4.46077e+21
20.5871  4.37445e+21
20.7044  4.28599e+21
20.8217  4.19392e+21
20.939  4.09761e+21
21.0563  3.99689e+21
21.1736  3.89249e+21
21.291  3.78585e+21
21.4083  3.67881e+21
21.5256  3.57456e+21
21.6429  3.47551e+21
21.7602  3.38453e+21
21.8775  3.3037e+21
21.9948  3.23459e+21
22.1121  3.17784e+21
22.2294  3.13333e+21
22.3467  3.09967e+21
22.464  3.07566e+21
22.5813  3.05881e+21
22.6986  3.04723e+21
22.8159  3.03842e+21
22.9332  3.03057e+21
23.0505  3.02198e+21
23.1678  3.01141e+21
23.2851  2.9979e+21
23.4024  2.9809e+21
23.5198  2.96015e+21
23.6371  2.93589e+21
23.7544  2.9084e+21
23.8717  2.87793e+21
23.989  2.84517e+21
24.1063  2.81059e+21
24.2236  2.7745e+21
24.3409  2.73673e+21
24.4582  2.69737e+21
24.5755  2.65591e+21
24.6928  2.61164e+21
24.8101  2.56421e+21
24.9274  2.51325e+21
25.0447  2.4586e+21
25.162  2.40075e+21
25.2793  2.34021e+21
25.3966  2.27807e+21
25.5139  2.2154e+21
25.6312  2.15358e+21
25.7485  2.09396e+21
25.8658  2.03756e+21
25.9832  1.98536e+21
26.1005  1.93746e+21
26.2178  1.89438e+21
26.3351  1.85566e+21
26.4524  1.82068e+21
26.5697  1.78858e+21
26.687  1.75822e+21
26.8043  1.72845e+21
26.9216  1.69826e+21
27.0389  1.6669e+21
27.1562  1.63409e+21
27.2735  1.59982e+21
27.3908  1.56497e+21
27.5081  1.53039e+21
27.6254  1.49736e+21
27.7427  1.46715e+21
27.86  1.44085e+21
27.9773  1.4191e+21
28.0946  1.40218e+21
28.212  1.38992e+21
28.3293  1.38179e+21
28.4466  1.37691e+21
28.5639  1.37438e+21
28.6812  1.37307e+21
28.7985  1.37219e+21
28.9158  1.37068e+21
29.0331  1.36778e+21
29.1504  1.36285e+21
29.2677  1.35535e+21
29.385  1.34481e+21
29.5023  1.33114e+21
29.6196  1.31447e+21
29.7369  1.2951e+21
29.8542  1.27361e+21
29.9715  1.25057e+21
30.0888  1.22671e+21
30.2061  1.20241e+21
30.3234  1.17796e+21
30.4407  1.15333e+21
30.558  1.12841e+21
30.6754  1.10277e+21
30.7927  1.07597e+21
30.91  1.04781e+21
31.0273  1.01807e+21
31.1446  9.86767e+20
31.2619  9.54308e+20
31.3792  9.21224e+20
31.4965  8.88173e+20
31.6138  8.56131e+20
31.7311  8.26011e+20
31.8484  7.98875e+20
31.9657  7.75564e+20
32.083  7.56924e+20
32.2003  7.43323e+20
32.3176  7.34729e+20
32.4349  7.30771e+20
32.5522  7.30379e+20
32.6695  7.32235e+20
32.7868  7.3473e+20
32.9042  7.36203e+20
33.0215  7.3542e+20
33.1388  7.31405e+20
33.2561  7.24111e+20
33.3734  7.13786e+20
33.4907  7.01516e+20
33.608  6.88762e+20
33.7253  6.76854e+20
33.8426  6.6733e+20
33.9599  6.61299e+20
34.0772  6.59488e+20
34.1945  6.62259e+20
34.3118  6.69401e+20
34.4291  6.80527e+20
34.5464  6.94703e+20
34.6637  7.10912e+20
34.781  7.2803e+20
34.8983  7.44741e+20
35.0156  7.59959e+20
35.1329  7.72794e+20
35.2503  7.82639e+20
35.3676  7.89365e+20
35.4849  7.93486e+20
35.6022  7.95924e+20
35.7195  7.97637e+20
35.8368  7.99693e+20
35.9541  8.02833e+20
36.0714  8.06879e+20
36.1887  8.11383e+20
36.306  8.14973e+20
36.4233  8.15515e+20
36.5406  8.11201e+20
36.6579  8.00254e+20
36.7752  7.81548e+20
36.8925  7.54696e+20
37.0098  7.20591e+20
37.1271  6.80825e+20
37.2444  6.3769e+20
37.3617  5.93727e+20
37.479  5.51635e+20
37.5964  5.13581e+20
37.7137  4.81135e+20
37.831  4.55447e+20
37.9483  4.36775e+20
38.0656  4.25123e+20
38.1829  4.19824e+20
38.3002  4.19982e+20
38.4175  4.24252e+20
38.5348  4.3128e+20
38.6521  4.39525e+20
38.7694  4.47337e+20
38.8867  4.53386e+20
39.004  4.56568e+20
39.1213  4.56298e+20
39.2386  4.52551e+20
39.3559  4.45888e+20
39.4732  4.37525e+20
39.5905  4.28979e+20
39.7078  4.22114e+20
39.8251  4.18626e+20
39.9425  4.19647e+20
40.0598  4.26197e+20
40.1771  4.38026e+20
40.2944  4.54881e+20
40.4117  4.75485e+20
40.529  4.98333e+20
40.6463  5.21477e+20
40.7636  5.43135e+20
40.8809  5.61704e+20
40.9982  5.7571e+20
41.1155  5.84276e+20
41.2328  5.87197e+20
41.3501  5.84841e+20
41.4674  5.78039e+20
41.5847  5.682e+20
41.702  5.57e+20
41.8193  5.45858e+20
41.9366  5.36489e+20
42.0539  5.29687e+20
42.1712  5.26033e+20
42.2885  5.25403e+20
42.4059  5.26907e+20
42.5232  5.29618e+20
42.6405  5.31992e+20
42.7578  5.33136e+20
42.8751  5.32007e+20
42.9924  5.28215e+20
43.1097  5.22078e+20
43.227  5.14251e+20
43.3443  5.05906e+20
43.4616  4.98378e+20
43.5789  4.9311e+20
43.6962  4.91461e+20
43.8135  4.94279e+20
43.9308  5.02222e+20
44.0481  5.15017e+20
44.1654  5.32118e+20
44.2827  5.52228e+20
44.4  5.73564e+20
44.5173  5.93892e+20
44.6347  6.10985e+20
44.752  6.22609e+20
44.8693  6.26621e+20
44.9866  6.21748e+20
45.1039  6.07578e+20
45.2212  5.84349e+20
45.3385  5.53295e+20
45.4558  5.16626e+20
45.5731  4.76657e+20
45.6904  4.36045e+20
45.8077  3.97287e+20
45.925  3.62332e+20
46.0423  3.32554e+20
46.1596  3.08484e+20
46.2769  2.90144e+20
46.3942  2.77003e+20
46.5115  2.6818e+20
46.6288  2.62775e+20
46.7461  2.59809e+20
46.8634  2.58496e+20
46.9808  2.58205e+20
47.0981  2.58629e+20
47.2154  2.59496e+20
47.3327  2.60713e+20
47.45  2.62333e+20
47.5673  2.64541e+20
47.6846  2.67564e+20
47.8019  2.71836e+20
47.9192  2.77593e+20
48.0365  2.85153e+20
48.1538  2.94606e+20
48.2711  3.05841e+20
48.3884  3.18484e+20
48.5057  3.31838e+20
48.623  3.45126e+20
48.7403  3.57313e+20
48.8576  3.67556e+20
48.9749  3.75003e+20
49.0922  3.79067e+20
49.2095  3.79539e+20
49.3269  3.76643e+20
49.4442  3.70854e+20
49.5615  3.62937e+20
49.6788  3.53829e+20
49.7961  3.44664e+20
49.9134  3.36262e+20
50.0307  3.29424e+20
50.148  3.24565e+20
50.2653  3.2157e+20
50.3826  3.19989e+20
50.4999  3.18995e+20
50.6172  3.17485e+20
50.7345  3.14278e+20
50.8518  3.08451e+20
