#S 1 spectral density
#N 2
#UFWHM 22.6399
#L  abscissas [um]  spectral density
-58.5938  1.49159e+20
-58.4764  1.45988e+20
-58.3591  1.44474e+20
-58.2418  1.4471e+20
-58.1245  1.46548e+20
-58.0072  1.49937e+20
-57.8899  1.54748e+20
-57.7726  1.60748e+20
-57.6553  1.6772e+20
-57.538  1.7529e+20
-57.4207  1.82879e+20
-57.3034  1.89868e+20
-57.1861  1.95628e+20
-57.0688  1.99682e+20
-56.9515  2.01705e+20
-56.8342  2.01737e+20
-56.7169  1.99934e+20
-56.5996  1.96818e+20
-56.4823  1.92755e+20
-56.365  1.88131e+20
-56.2477  1.83209e+20
-56.1303  1.77975e+20
-56.013  1.72274e+20
-55.8957  1.66052e+20
-55.7784  1.59178e+20
-55.6611  1.51838e+20
-55.5438  1.44323e+20
-55.4265  1.37072e+20
-55.3092  1.307e+20
-55.1919  1.25719e+20
-55.0746  1.22532e+20
-54.9573  1.21403e+20
-54.84  1.22265e+20
-54.7227  1.25075e+20
-54.6054  1.29514e+20
-54.4881  1.35405e+20
-54.3708  1.42503e+20
-54.2535  1.50503e+20
-54.1362  1.59096e+20
-54.0189  1.67963e+20
-53.9016  1.76601e+20
-53.7842  1.84419e+20
-53.6669  1.91003e+20
-53.5496  1.95898e+20
-53.4323  1.98864e+20
-53.315  2.00019e+20
-53.1977  1.99541e+20
-53.0804  1.97978e+20
-52.9631  1.95863e+20
-52.8458  1.93769e+20
-52.7285  1.92016e+20
-52.6112  1.90805e+20
-52.4939  1.90078e+20
-52.3766  1.89665e+20
-52.2593  1.89284e+20
-52.142  1.88846e+20
-52.0247  1.88301e+20
-51.9074  1.87789e+20
-51.7901  1.87574e+20
-51.6728  1.879e+20
-51.5555  1.88927e+20
-51.4381  1.9092e+20
-51.3208  1.93763e+20
-51.2035  1.97433e+20
-51.0862  2.01626e+20
-50.9689  2.06332e+20
-50.8516  2.11478e+20
-50.7343  2.1709e+20
-50.617  2.23202e+20
-50.4997  2.30016e+20
-50.3824  2.37532e+20
-50.2651  2.45752e+20
-50.1478  2.54426e+20
-50.0305  2.63225e+20
-49.9132  2.71715e+20
-49.7959  2.79375e+20
-49.6786  2.85853e+20
-49.5613  2.90611e+20
-49.444  2.93384e+20
-49.3267  2.94015e+20
-49.2094  2.92547e+20
-49.092  2.8915e+20
-48.9747  2.84085e+20
-48.8574  2.77782e+20
-48.7401  2.70896e+20
-48.6228  2.63958e+20
-48.5055  2.57662e+20
-48.3882  2.5277e+20
-48.2709  2.49717e+20
-48.1536  2.4892e+20
-48.0363  2.50584e+20
-47.919  2.54716e+20
-47.8017  2.61176e+20
-47.6844  2.69554e+20
-47.5671  2.79496e+20
-47.4498  2.90568e+20
-47.3325  3.02216e+20
-47.2152  3.14024e+20
-47.0979  3.25494e+20
-46.9806  3.36236e+20
-46.8633  3.45813e+20
-46.7459  3.54066e+20
-46.6286  3.60925e+20
-46.5113  3.66345e+20
-46.394  3.70779e+20
-46.2767  3.74553e+20
-46.1594  3.78267e+20
-46.0421  3.825e+20
-45.9248  3.87483e+20
-45.8075  3.93466e+20
-45.6902  4.00084e+20
-45.5729  4.06923e+20
-45.4556  4.13262e+20
-45.3383  4.18401e+20
-45.221  4.21784e+20
-45.1037  4.22967e+20
-44.9864  4.22078e+20
-44.8691  4.1947e+20
-44.7518  4.15946e+20
-44.6345  4.12426e+20
-44.5172  4.09844e+20
-44.3998  4.09128e+20
-44.2825  4.1069e+20
-44.1652  4.14949e+20
-44.0479  4.21919e+20
-43.9306  4.31235e+20
-43.8133  4.42487e+20
-43.696  4.55096e+20
-43.5787  4.68407e+20
-43.4614  4.81615e+20
-43.3441  4.93896e+20
-43.2268  5.04594e+20
-43.1095  5.13036e+20
-42.9922  5.18533e+20
-42.8749  5.2082e+20
-42.7576  5.19819e+20
-42.6403  5.15662e+20
-42.523  5.08924e+20
-42.4057  5.00363e+20
-42.2884  4.91097e+20
-42.171  4.82057e+20
-42.0537  4.74161e+20
-41.9364  4.68287e+20
-41.8191  4.64722e+20
-41.7018  4.63971e+20
-41.5845  4.65748e+20
-41.4672  4.69896e+20
-41.3499  4.76009e+20
-41.2326  4.8355e+20
-41.1153  4.92132e+20
-40.998  5.01134e+20
-40.8807  5.10208e+20
-40.7634  5.19026e+20
-40.6461  5.27502e+20
-40.5288  5.35691e+20
-40.4115  5.43622e+20
-40.2942  5.516e+20
-40.1769  5.60113e+20
-40.0596  5.69573e+20
-39.9423  5.80257e+20
-39.825  5.92193e+20
-39.7076  6.05238e+20
-39.5903  6.18882e+20
-39.473  6.32553e+20
-39.3557  6.45436e+20
-39.2384  6.56671e+20
-39.1211  6.65816e+20
-39.0038  6.72267e+20
-38.8865  6.76045e+20
-38.7692  6.77198e+20
-38.6519  6.75914e+20
-38.5346  6.72712e+20
-38.4173  6.68162e+20
-38.3  6.62812e+20
-38.1827  6.5746e+20
-38.0654  6.52796e+20
-37.9481  6.49817e+20
-37.8308  6.49342e+20
-37.7135  6.52293e+20
-37.5962  6.59468e+20
-37.4789  6.71088e+20
-37.3615  6.86871e+20
-37.2442  7.06053e+20
-37.1269  7.27351e+20
-37.0096  7.49263e+20
-36.8923  7.69829e+20
-36.775  7.87591e+20
-36.6577  8.01406e+20
-36.5404  8.10867e+20
-36.4231  8.16221e+20
-36.3058  8.18263e+20
-36.1885  8.18252e+20
-36.0712  8.17532e+20
-35.9539  8.17542e+20
-35.8366  8.19346e+20
-35.7193  8.23734e+20
-35.602  8.30937e+20
-35.4847  8.41321e+20
-35.3674  8.54765e+20
-35.2501  8.71176e+20
-35.1328  8.90107e+20
-35.0154  9.11012e+20
-34.8981  9.33564e+20
-34.7808  9.56727e+20
-34.6635  9.79438e+20
-34.5462  1.00063e+21
-34.4289  1.01929e+21
-34.3116  1.03421e+21
-34.1943  1.0449e+21
-34.077  1.05112e+21
-33.9597  1.05296e+21
-33.8424  1.05094e+21
-33.7251  1.04579e+21
-33.6078  1.03845e+21
-33.4905  1.02982e+21
-33.3732  1.02059e+21
-33.2559  1.01164e+21
-33.1386  1.00336e+21
-33.0213  9.96451e+20
-32.904  9.91349e+20
-32.7867  9.88413e+20
-32.6693  9.88158e+20
-32.552  9.90723e+20
-32.4347  9.96534e+20
-32.3174  1.00559e+21
-32.2001  1.01787e+21
-32.0828  1.0334e+21
-31.9655  1.05215e+21
-31.8482  1.0742e+21
-31.7309  1.09965e+21
-31.6136  1.12886e+21
-31.4963  1.16192e+21
-31.379  1.19893e+21
-31.2617  1.23976e+21
-31.1444  1.28393e+21
-31.0271  1.33093e+21
-30.9098  1.37957e+21
-30.7925  1.42891e+21
-30.6752  1.47748e+21
-30.5579  1.52403e+21
-30.4406  1.56728e+21
-30.3232  1.60592e+21
-30.2059  1.63959e+21
-30.0886  1.66702e+21
-29.9713  1.68806e+21
-29.854  1.70266e+21
-29.7367  1.71124e+21
-29.6194  1.71444e+21
-29.5021  1.71352e+21
-29.3848  1.70976e+21
-29.2675  1.70484e+21
-29.1502  1.69999e+21
-29.0329  1.69662e+21
-28.9156  1.69554e+21
-28.7983  1.69749e+21
-28.681  1.70233e+21
-28.5637  1.7102e+21
-28.4464  1.72063e+21
-28.3291  1.73352e+21
-28.2118  1.74861e+21
-28.0944  1.7661e+21
-27.9771  1.78614e+21
-27.8598  1.80917e+21
-27.7425  1.83583e+21
-27.6252  1.86653e+21
-27.5079  1.90162e+21
-27.3906  1.94136e+21
-27.2733  1.98594e+21
-27.156  2.03537e+21
-27.0387  2.08919e+21
-26.9214  2.14734e+21
-26.8041  2.20893e+21
-26.6868  2.27324e+21
-26.5695  2.33903e+21
-26.4522  2.40487e+21
-26.3349  2.46948e+21
-26.2176  2.53117e+21
-26.1003  2.58862e+21
-25.983  2.64054e+21
-25.8657  2.68601e+21
-25.7483  2.72451e+21
-25.631  2.75585e+21
-25.5137  2.78101e+21
-25.3964  2.79995e+21
-25.2791  2.8141e+21
-25.1618  2.82463e+21
-25.0445  2.83317e+21
-24.9272  2.84105e+21
-24.8099  2.84993e+21
-24.6926  2.86121e+21
-24.5753  2.8766e+21
-24.458  2.89645e+21
-24.3407  2.92173e+21
-24.2234  2.95246e+21
-24.1061  2.98849e+21
-23.9888  3.02883e+21
-23.8715  3.07279e+21
-23.7542  3.1189e+21
-23.6369  3.16607e+21
-23.5196  3.21278e+21
-23.4023  3.25838e+21
-23.2849  3.30164e+21
-23.1676  3.34191e+21
-23.0503  3.3793e+21
-22.933  3.41316e+21
-22.8157  3.44418e+21
-22.6984  3.47266e+21
-22.5811  3.49956e+21
-22.4638  3.52659e+21
-22.3465  3.55434e+21
-22.2292  3.58527e+21
-22.1119  3.62036e+21
-21.9946  3.66104e+21
-21.8773  3.708e+21
-21.76  3.76146e+21
-21.6427  3.82164e+21
-21.5254  3.88781e+21
-21.4081  3.95905e+21
-21.2908  4.03386e+21
-21.1735  4.11068e+21
-21.0561  4.18819e+21
-20.9388  4.2649e+21
-20.8215  4.3402e+21
-20.7042  4.4121e+21
-20.5869  4.48024e+21
-20.4696  4.54378e+21
-20.3523  4.6023e+21
-20.235  4.65556e+21
-20.1177  4.70311e+21
-20.0004  4.74511e+21
-19.8831  4.78272e+21
-19.7658  4.8154e+21
-19.6485  4.84441e+21
-19.5312  4.87033e+21
-19.4139  4.894e+21
-19.2966  4.91592e+21
-19.1793  4.93681e+21
-19.062  4.9572e+21
-18.9447  4.97738e+21
-18.8274  4.99725e+21
-18.71  5.01775e+21
-18.5927  5.03866e+21
-18.4754  5.06014e+21
-18.3581  5.08297e+21
-18.2408  5.10667e+21
-18.1235  5.13193e+21
-18.0062  5.15854e+21
-17.8889  5.18697e+21
-17.7716  5.21777e+21
-17.6543  5.25052e+21
-17.537  5.28635e+21
-17.4197  5.32523e+21
-17.3024  5.36805e+21
-17.1851  5.41502e+21
-17.0678  5.46648e+21
-16.9505  5.52313e+21
-16.8332  5.58526e+21
-16.7159  5.653e+21
-16.5986  5.72607e+21
-16.4813  5.8043e+21
-16.364  5.88733e+21
-16.2466  5.97475e+21
-16.1293  6.06609e+21
-16.012  6.15993e+21
-15.8947  6.25529e+21
-15.7774  6.35095e+21
-15.6601  6.4452e+21
-15.5428  6.53667e+21
-15.4255  6.62313e+21
-15.3082  6.70322e+21
-15.1909  6.77644e+21
-15.0736  6.84139e+21
-14.9563  6.89821e+21
-14.839  6.94734e+21
-14.7217  6.98992e+21
-14.6044  7.02712e+21
-14.4871  7.06093e+21
-14.3698  7.0935e+21
-14.2525  7.1266e+21
-14.1352  7.16202e+21
-14.0178  7.20223e+21
-13.9005  7.24836e+21
-13.7832  7.30179e+21
-13.6659  7.36352e+21
-13.5486  7.43343e+21
-13.4313  7.51145e+21
-13.314  7.59637e+21
-13.1967  7.68664e+21
-13.0794  7.78027e+21
-12.9621  7.87439e+21
-12.8448  7.96675e+21
-12.7275  8.05492e+21
-12.6102  8.13735e+21
-12.4929  8.2129e+21
-12.3756  8.28135e+21
-12.2583  8.34378e+21
-12.141  8.402e+21
-12.0237  8.45817e+21
-11.9064  8.51526e+21
-11.7891  8.5763e+21
-11.6718  8.64433e+21
-11.5544  8.72233e+21
-11.4371  8.81252e+21
-11.3198  8.91647e+21
-11.2025  9.03497e+21
-11.0852  9.16797e+21
-10.9679  9.31388e+21
-10.8506  9.47081e+21
-10.7333  9.63534e+21
-10.616  9.80379e+21
-10.4987  9.97232e+21
-10.3814  1.01365e+22
-10.2641  1.02926e+22
-10.1468  1.04379e+22
-10.0295  1.05699e+22
-9.91217  1.06879e+22
-9.79487  1.07922e+22
-9.67756  1.08844e+22
-9.56026  1.09666e+22
-9.44295  1.10421e+22
-9.32565  1.11149e+22
-9.20834  1.11888e+22
-9.09104  1.12677e+22
-8.97373  1.13551e+22
-8.85643  1.14536e+22
-8.73913  1.1565e+22
-8.62182  1.169e+22
-8.50452  1.18283e+22
-8.38721  1.19778e+22
-8.26991  1.21358e+22
-8.1526  1.22986e+22
-8.03529  1.2462e+22
-7.91799  1.26213e+22
-7.80069  1.27726e+22
-7.68338  1.29118e+22
-7.56608  1.30366e+22
-7.44877  1.31455e+22
-7.33146  1.3238e+22
-7.21416  1.33153e+22
-7.09685  1.33793e+22
-6.97955  1.34334e+22
-6.86224  1.34816e+22
-6.74494  1.35279e+22
-6.62763  1.35763e+22
-6.51033  1.36309e+22
-6.39302  1.36944e+22
-6.27572  1.37685e+22
-6.15842  1.38543e+22
-6.04111  1.39513e+22
-5.92381  1.40583e+22
-5.8065  1.41733e+22
-5.68919  1.42936e+22
-5.57189  1.44169e+22
-5.45458  1.45408e+22
-5.33728  1.46631e+22
-5.21997  1.47825e+22
-5.10267  1.48983e+22
-4.98536  1.50102e+22
-4.86806  1.51187e+22
-4.75075  1.52248e+22
-4.63345  1.53298e+22
-4.51614  1.54354e+22
-4.39884  1.55434e+22
-4.28154  1.5655e+22
-4.16423  1.57721e+22
-4.04692  1.58953e+22
-3.92962  1.6025e+22
-3.81231  1.61607e+22
-3.69501  1.63012e+22
-3.5777  1.64446e+22
-3.4604  1.65881e+22
-3.34309  1.67288e+22
-3.22579  1.68632e+22
-3.10849  1.69885e+22
-2.99118  1.71013e+22
-2.87387  1.71993e+22
-2.75657  1.72813e+22
-2.63926  1.73463e+22
-2.52196  1.73947e+22
-2.40465  1.74277e+22
-2.28735  1.74472e+22
-2.17005  1.74559e+22
-2.05274  1.74562e+22
-1.93544  1.74514e+22
-1.81813  1.74447e+22
-1.70083  1.74385e+22
-1.58352  1.74353e+22
-1.46622  1.74369e+22
-1.34891  1.74447e+22
-1.2316  1.74593e+22
-1.1143  1.74808e+22
-0.996995  1.75086e+22
-0.87969  1.75418e+22
-0.762385  1.75786e+22
-0.64508  1.7617e+22
-0.527775  1.76545e+22
-0.41047  1.76885e+22
-0.293165  1.77168e+22
-0.17586  1.77371e+22
-0.058555  1.7748e+22
0.05875  1.77487e+22
0.176055  1.77391e+22
0.29336  1.77202e+22
0.410665  1.76934e+22
0.52797  1.76608e+22
0.645275  1.76249e+22
0.76258  1.75883e+22
0.879885  1.75531e+22
0.99719  1.75216e+22
1.1145  1.74955e+22
1.2318  1.74755e+22
1.3491  1.74625e+22
1.46641  1.74561e+22
1.58371  1.74559e+22
1.70102  1.74604e+22
1.81832  1.74676e+22
1.93563  1.74754e+22
2.05294  1.74808e+22
2.17024  1.74811e+22
2.28754  1.74733e+22
2.40485  1.74543e+22
2.52216  1.74218e+22
2.63946  1.73737e+22
2.75677  1.73092e+22
2.87407  1.72279e+22
2.99137  1.71304e+22
3.10868  1.70185e+22
3.22599  1.68944e+22
3.34329  1.6761e+22
3.4606  1.66216e+22
3.5779  1.64795e+22
3.69521  1.63377e+22
3.81251  1.61987e+22
3.92982  1.60647e+22
4.04712  1.59365e+22
4.16443  1.58148e+22
4.28173  1.56991e+22
4.39903  1.55885e+22
4.51634  1.54815e+22
4.63364  1.53768e+22
4.75095  1.52725e+22
4.86825  1.51669e+22
4.98556  1.50588e+22
5.10286  1.49473e+22
5.22017  1.48317e+22
5.33748  1.47125e+22
5.45478  1.45903e+22
5.57209  1.44666e+22
5.68939  1.43436e+22
5.8067  1.42235e+22
5.924  1.4109e+22
6.0413  1.40025e+22
6.15861  1.3906e+22
6.27591  1.38206e+22
6.39322  1.37471e+22
6.51052  1.36842e+22
6.62783  1.36301e+22
6.74514  1.35817e+22
6.86244  1.35356e+22
6.97975  1.34874e+22
7.09705  1.34331e+22
7.21436  1.33687e+22
7.33166  1.32911e+22
7.44897  1.31983e+22
7.56627  1.3089e+22
7.68358  1.29636e+22
7.80088  1.2824e+22
7.91819  1.26726e+22
8.03549  1.25131e+22
8.1528  1.235e+22
8.2701  1.21873e+22
8.38741  1.20297e+22
8.50471  1.18805e+22
8.62202  1.17427e+22
8.73932  1.1618e+22
8.85662  1.15069e+22
8.97393  1.14087e+22
9.09123  1.13213e+22
9.20854  1.12423e+22
9.32584  1.11682e+22
9.44315  1.10948e+22
9.56045  1.10184e+22
9.67776  1.09353e+22
9.79506  1.08421e+22
9.91237  1.07365e+22
10.0297  1.06173e+22
10.147  1.04841e+22
10.2643  1.03378e+22
10.3816  1.01806e+22
10.4989  1.00157e+22
10.6162  9.84657e+21
10.7335  9.6775e+21
10.8508  9.51265e+21
10.9681  9.3557e+21
11.0854  9.20997e+21
11.2027  9.0774e+21
11.32  8.95901e+21
11.4373  8.85524e+21
11.5546  8.76527e+21
11.6719  8.68738e+21
11.7893  8.61935e+21
11.9066  8.5582e+21
12.0239  8.50066e+21
12.1412  8.44423e+21
12.2585  8.38551e+21
12.3758  8.32227e+21
12.4931  8.2529e+21
12.6104  8.17656e+21
12.7277  8.09335e+21
12.845  8.00455e+21
12.9623  7.91125e+21
13.0796  7.81657e+21
13.1969  7.72254e+21
13.3142  7.63187e+21
13.4315  7.54649e+21
13.5488  7.4683e+21
13.6661  7.39814e+21
13.7834  7.33633e+21
13.9007  7.2827e+21
14.018  7.23659e+21
14.1354  7.19617e+21
14.2527  7.16029e+21
14.37  7.12696e+21
14.4873  7.09401e+21
14.6046  7.05969e+21
14.7219  7.02177e+21
14.8392  6.97879e+21
14.9565  6.92907e+21
15.0738  6.87133e+21
15.1911  6.80588e+21
15.3084  6.73201e+21
15.4257  6.65095e+21
15.543  6.56362e+21
15.6603  6.47167e+21
15.7776  6.37695e+21
15.8949  6.28082e+21
16.0122  6.18466e+21
16.1295  6.09013e+21
16.2468  5.99842e+21
16.3641  5.91033e+21
16.4815  5.82682e+21
16.5988  5.74803e+21
16.7161  5.6743e+21
16.8334  5.60635e+21
16.9507  5.54369e+21
17.068  5.48647e+21
17.1853  5.43447e+21
17.3026  5.38707e+21
17.4199  5.34408e+21
17.5372  5.30513e+21
17.6545  5.26893e+21
17.7718  5.23596e+21
17.8891  5.20528e+21
18.0064  5.17672e+21
18.1237  5.15002e+21
18.241  5.12494e+21
18.3583  5.10133e+21
18.4756  5.07872e+21
18.5929  5.05715e+21
18.7102  5.03666e+21
18.8275  5.01621e+21
18.9449  4.9962e+21
19.0622  4.97624e+21
19.1795  4.95582e+21
19.2968  4.93498e+21
19.4141  4.91289e+21
19.5314  4.88933e+21
19.6487  4.86347e+21
19.766  4.83416e+21
19.8833  4.80143e+21
20.0006  4.76394e+21
20.1179  4.72157e+21
20.2352  4.67366e+21
20.3525  4.62035e+21
20.4698  4.56174e+21
20.5871  4.49808e+21
20.7044  4.42954e+21
20.8217  4.35722e+21
20.939  4.28195e+21
21.0563  4.20478e+21
21.1736  4.12716e+21
21.291  4.04999e+21
21.4083  3.97507e+21
21.5256  3.90392e+21
21.6429  3.83773e+21
21.7602  3.7775e+21
21.8775  3.72397e+21
21.9948  3.67703e+21
22.1121  3.63671e+21
22.2294  3.60201e+21
22.3467  3.57125e+21
22.464  3.54346e+21
22.5813  3.51687e+21
22.6986  3.48989e+21
22.8159  3.46153e+21
22.9332  3.43066e+21
23.0505  3.39685e+21
23.1678  3.35951e+21
23.2851  3.31905e+21
23.4024  3.27592e+21
23.5198  3.23021e+21
23.6371  3.18322e+21
23.7544  3.13596e+21
23.8717  3.08961e+21
23.989  3.04564e+21
24.1063  3.00511e+21
24.2236  2.9691e+21
24.3409  2.93842e+21
24.4582  2.91311e+21
24.5755  2.89327e+21
24.6928  2.87817e+21
24.8101  2.86694e+21
24.9274  2.85815e+21
25.0447  2.85028e+21
25.162  2.84186e+21
25.2793  2.83135e+21
25.3966  2.81701e+21
25.5139  2.79789e+21
25.6312  2.77277e+21
25.7485  2.74087e+21
25.8658  2.70212e+21
25.9832  2.65617e+21
26.1005  2.60392e+21
26.2178  2.54599e+21
26.3351  2.48387e+21
26.4524  2.41881e+21
26.5697  2.35252e+21
26.687  2.28634e+21
26.8043  2.22186e+21
26.9216  2.16004e+21
27.0389  2.10179e+21
27.1562  2.0477e+21
27.2735  1.99824e+21
27.3908  1.95353e+21
27.5081  1.91371e+21
27.6254  1.87861e+21
27.7427  1.84793e+21
27.86  1.82121e+21
27.9773  1.79807e+21
28.0946  1.77799e+21
28.212  1.76039e+21
28.3293  1.74513e+21
28.4466  1.73211e+21
28.5639  1.7215e+21
28.6812  1.71354e+21
28.7985  1.70855e+21
28.9158  1.70654e+21
29.0331  1.70745e+21
29.1504  1.71071e+21
29.2677  1.71532e+21
29.385  1.72013e+21
29.5023  1.72369e+21
29.6196  1.72442e+21
29.7369  1.72088e+21
29.8542  1.71195e+21
29.9715  1.69705e+21
30.0888  1.67553e+21
30.2061  1.64779e+21
30.3234  1.61399e+21
30.4407  1.57477e+21
30.558  1.53126e+21
30.6754  1.48433e+21
30.7927  1.43557e+21
30.91  1.38602e+21
31.0273  1.33711e+21
31.1446  1.28996e+21
31.2619  1.2456e+21
31.3792  1.20466e+21
31.4965  1.16758e+21
31.6138  1.13448e+21
31.7311  1.10529e+21
31.8484  1.07971e+21
31.9657  1.05763e+21
32.083  1.03884e+21
32.2003  1.02331e+21
32.3176  1.01103e+21
32.4349  1.002e+21
32.5522  9.96227e+20
32.6695  9.93652e+20
32.7868  9.93937e+20
32.9042  9.96792e+20
33.0215  1.00188e+21
33.1388  1.00865e+21
33.2561  1.01689e+21
33.3734  1.02569e+21
33.4907  1.03474e+21
33.608  1.04322e+21
33.7253  1.0504e+21
33.8426  1.05532e+21
33.9599  1.05704e+21
34.0772  1.05498e+21
34.1945  1.04859e+21
34.3118  1.03774e+21
34.4291  1.02252e+21
34.5464  1.00372e+21
34.6637  9.82359e+20
34.781  9.59567e+20
34.8983  9.36461e+20
35.0156  9.14016e+20
35.1329  8.92987e+20
35.2503  8.74112e+20
35.3676  8.57787e+20
35.4849  8.44474e+20
35.6022  8.34063e+20
35.7195  8.26859e+20
35.8368  8.22615e+20
35.9541  8.20789e+20
36.0714  8.20809e+20
36.1887  8.21457e+20
36.306  8.21313e+20
36.4233  8.19206e+20
36.5406  8.13634e+20
36.6579  8.04018e+20
36.7752  7.899e+20
36.8925  7.72013e+20
37.0098  7.51392e+20
37.1271  7.29457e+20
37.2444  7.08199e+20
37.3617  6.89088e+20
37.479  6.73397e+20
37.5964  6.61973e+20
37.7137  6.54919e+20
37.831  6.52045e+20
37.9483  6.526e+20
38.0656  6.55666e+20
38.1829  6.60352e+20
38.3002  6.65683e+20
38.4175  6.71004e+20
38.5348  6.75544e+20
38.6521  6.78622e+20
38.7694  6.79809e+20
38.8867  6.78593e+20
39.004  6.74784e+20
39.1213  6.68164e+20
39.2386  6.58972e+20
39.3559  6.47542e+20
39.4732  6.34634e+20
39.5905  6.20952e+20
39.7078  6.07285e+20
39.8251  5.94252e+20
39.9425  5.82284e+20
40.0598  5.71722e+20
40.1771  5.62282e+20
40.2944  5.53662e+20
40.4117  5.45642e+20
40.529  5.37698e+20
40.6463  5.29505e+20
40.7636  5.20998e+20
40.8809  5.12144e+20
40.9982  5.0298e+20
41.1155  4.93984e+20
41.2328  4.8541e+20
41.3501  4.77893e+20
41.4674  4.71787e+20
41.5847  4.67703e+20
41.702  4.66042e+20
41.8193  4.66908e+20
41.9366  4.70535e+20
42.0539  4.76511e+20
42.1712  4.84378e+20
42.2885  4.9352e+20
42.4059  5.02752e+20
42.5232  5.11234e+20
42.6405  5.17862e+20
42.7578  5.21918e+20
42.8751  5.2283e+20
42.9924  5.20381e+20
43.1097  5.14708e+20
43.227  5.06201e+20
43.3443  4.9541e+20
43.4616  4.83042e+20
43.5789  4.6983e+20
43.6962  4.56593e+20
43.8135  4.44028e+20
43.9308  4.32866e+20
44.0481  4.2362e+20
44.1654  4.16825e+20
44.2827  4.1264e+20
44.4  4.11185e+20
44.5173  4.12122e+20
44.6347  4.14738e+20
44.752  4.18318e+20
44.8693  4.21804e+20
44.9866  4.24316e+20
45.1039  4.25112e+20
45.2212  4.23798e+20
45.3385  4.20324e+20
45.4558  4.15023e+20
45.5731  4.08545e+20
45.6904  4.01581e+20
45.8077  3.94873e+20
45.925  3.88848e+20
46.0423  3.83775e+20
46.1596  3.79523e+20
46.2769  3.75737e+20
46.3942  3.71885e+20
46.5115  3.67421e+20
46.6288  3.61904e+20
46.7461  3.54988e+20
46.8634  3.46635e+20
46.9808  3.37019e+20
47.0981  3.26237e+20
47.2154  3.1474e+20
47.3327  3.02934e+20
47.45  2.91261e+20
47.5673  2.80238e+20
47.6846  2.70304e+20
47.8019  2.61925e+20
47.9192  2.55544e+20
48.0365  2.51469e+20
48.1538  2.49868e+20
48.2711  2.50731e+20
48.3884  2.53835e+20
48.5057  2.5884e+20
48.623  2.65122e+20
48.7403  2.7208e+20
48.8576  2.79019e+20
48.9749  2.85241e+20
49.0922  2.90263e+20
49.2095  2.93691e+20
49.3269  2.95095e+20
49.4442  2.94355e+20
49.5615  2.91492e+20
49.6788  2.86705e+20
49.7961  2.80185e+20
49.9134  2.72451e+20
50.0307  2.63948e+20
50.148  2.5509e+20
50.2653  2.46381e+20
50.3826  2.38187e+20
50.4999  2.30627e+20
50.6172  2.23815e+20
50.7345  2.17643e+20
50.8518  2.12089e+20
