#S 1 spectral density
#N 2
#UFWHM 5.98256
#L  abscissas [um]  spectral density
-58.5938  2.9848e+20
-58.4764  2.97772e+20
-58.3591  2.88837e+20
-58.2418  2.73018e+20
-58.1245  2.52135e+20
-58.0072  2.28479e+20
-57.8899  2.0433e+20
-57.7726  1.81387e+20
-57.6553  1.60684e+20
-57.538  1.42454e+20
-57.4207  1.26521e+20
-57.3034  1.12256e+20
-57.1861  9.91906e+19
-57.0688  8.7232e+19
-56.9515  7.68233e+19
-56.8342  6.89565e+19
-56.7169  6.49428e+19
-56.5996  6.61616e+19
-56.4823  7.35738e+19
-56.365  8.74351e+19
-56.2477  1.07162e+20
-56.1303  1.31335e+20
-56.013  1.57904e+20
-55.8957  1.84493e+20
-55.7784  2.08708e+20
-55.6611  2.28565e+20
-55.5438  2.42769e+20
-55.4265  2.50604e+20
-55.3092  2.51993e+20
-55.1919  2.47345e+20
-55.0746  2.37489e+20
-54.9573  2.23249e+20
-54.84  2.0566e+20
-54.7227  1.85633e+20
-54.6054  1.64125e+20
-54.4881  1.42077e+20
-54.3708  1.20462e+20
-54.2535  1.00227e+20
-54.1362  8.21911e+19
-54.0189  6.71775e+19
-53.9016  5.58154e+19
-53.7842  4.85436e+19
-53.6669  4.56997e+19
-53.5496  4.74507e+19
-53.4323  5.37527e+19
-53.315  6.45468e+19
-53.1977  7.95314e+19
-53.0804  9.83281e+19
-52.9631  1.2026e+20
-52.8458  1.4434e+20
-52.7285  1.69481e+20
-52.6112  1.94111e+20
-52.4939  2.16771e+20
-52.3766  2.35836e+20
-52.2593  2.50124e+20
-52.142  2.58645e+20
-52.0247  2.61013e+20
-51.9074  2.57458e+20
-51.7901  2.48695e+20
-51.6728  2.35918e+20
-51.5555  2.20646e+20
-51.4381  2.04309e+20
-51.3208  1.88432e+20
-51.2035  1.74166e+20
-51.0862  1.62379e+20
-50.9689  1.53586e+20
-50.8516  1.48174e+20
-50.7343  1.46128e+20
-50.617  1.47504e+20
-50.4997  1.52407e+20
-50.3824  1.60649e+20
-50.2651  1.72293e+20
-50.1478  1.86949e+20
-50.0305  2.04184e+20
-49.9132  2.22882e+20
-49.7959  2.41783e+20
-49.6786  2.59291e+20
-49.5613  2.73476e+20
-49.444  2.82546e+20
-49.3267  2.85141e+20
-49.2094  2.80366e+20
-49.092  2.6815e+20
-48.9747  2.49255e+20
-48.8574  2.25062e+20
-48.7401  1.97494e+20
-48.6228  1.68715e+20
-48.5055  1.40954e+20
-48.3882  1.16079e+20
-48.2709  9.54996e+19
-48.1536  8.01818e+19
-48.0363  7.0695e+19
-47.919  6.72184e+19
-47.8017  6.97413e+19
-47.6844  7.81403e+19
-47.5671  9.21988e+19
-47.4498  1.11623e+20
-47.3325  1.3597e+20
-47.2152  1.64546e+20
-47.0979  1.96399e+20
-46.9806  2.30304e+20
-46.8633  2.64913e+20
-46.7459  2.98533e+20
-46.6286  3.29907e+20
-46.5113  3.57739e+20
-46.394  3.81088e+20
-46.2767  3.99319e+20
-46.1594  4.12077e+20
-46.0421  4.19149e+20
-45.9248  4.20463e+20
-45.8075  4.15921e+20
-45.6902  4.05424e+20
-45.5729  3.88925e+20
-45.4556  3.66698e+20
-45.3383  3.39102e+20
-45.221  3.07003e+20
-45.1037  2.71614e+20
-44.9864  2.34526e+20
-44.8691  1.97666e+20
-44.7518  1.63046e+20
-44.6345  1.32474e+20
-44.5172  1.07465e+20
-44.3998  8.91875e+19
-44.2825  7.82612e+19
-44.1652  7.48308e+19
-44.0479  7.86005e+19
-43.9306  8.88505e+19
-43.8133  1.04577e+20
-43.696  1.24451e+20
-43.5787  1.46955e+20
-43.4614  1.70261e+20
-43.3441  1.92571e+20
-43.2268  2.11953e+20
-43.1095  2.26824e+20
-42.9922  2.35762e+20
-42.8749  2.38053e+20
-42.7576  2.337e+20
-42.6403  2.23225e+20
-42.523  2.07892e+20
-42.4057  1.89383e+20
-42.2884  1.69399e+20
-42.171  1.49628e+20
-42.0537  1.31426e+20
-41.9364  1.15516e+20
-41.8191  1.02262e+20
-41.7018  9.14248e+19
-41.5845  8.26296e+19
-41.4672  7.53571e+19
-41.3499  6.92179e+19
-41.2326  6.40738e+19
-41.1153  5.99241e+19
-40.998  5.70662e+19
-40.8807  5.57571e+19
-40.7634  5.62419e+19
-40.6461  5.86312e+19
-40.5288  6.27462e+19
-40.4115  6.81853e+19
-40.2942  7.42922e+19
-40.1769  8.02687e+19
-40.0596  8.52588e+19
-39.9423  8.83713e+19
-39.825  8.89393e+19
-39.7076  8.65848e+19
-39.5903  8.11936e+19
-39.473  7.33309e+19
-39.3557  6.38167e+19
-39.2384  5.40202e+19
-39.1211  4.55511e+19
-39.0038  3.99346e+19
-38.8865  3.84774e+19
-38.7692  4.19523e+19
-38.6519  5.02885e+19
-38.5346  6.27439e+19
-38.4173  7.78377e+19
-38.3  9.37548e+19
-38.1827  1.08727e+20
-38.0654  1.21188e+20
-37.9481  1.30378e+20
-37.8308  1.36283e+20
-37.7135  1.39417e+20
-37.5962  1.40807e+20
-37.4789  1.41454e+20
-37.3615  1.42079e+20
-37.2442  1.42972e+20
-37.1269  1.4372e+20
-37.0096  1.43684e+20
-36.8923  1.42135e+20
-36.775  1.38643e+20
-36.6577  1.33336e+20
-36.5404  1.27074e+20
-36.4231  1.21221e+20
-36.3058  1.17419e+20
-36.1885  1.17067e+20
-36.0712  1.20994e+20
-35.9539  1.29146e+20
-35.8366  1.40554e+20
-35.7193  1.53612e+20
-35.602  1.66653e+20
-35.4847  1.78302e+20
-35.3674  1.88215e+20
-35.2501  1.97125e+20
-35.1328  2.07014e+20
-35.0154  2.20626e+20
-34.8981  2.40872e+20
-34.7808  2.70002e+20
-34.6635  3.08946e+20
-34.5462  3.56797e+20
-34.4289  4.10906e+20
-34.3116  4.66611e+20
-34.1943  5.18434e+20
-34.077  5.60596e+20
-33.9597  5.882e+20
-33.8424  5.97502e+20
-33.7251  5.87366e+20
-33.6078  5.58475e+20
-33.4905  5.13782e+20
-33.3732  4.57925e+20
-33.2559  3.96233e+20
-33.1386  3.34118e+20
-33.0213  2.76469e+20
-32.904  2.2696e+20
-32.7867  1.87914e+20
-32.6693  1.60222e+20
-32.552  1.43663e+20
-32.4347  1.37353e+20
-32.3174  1.39868e+20
-32.2001  1.49867e+20
-32.0828  1.66123e+20
-31.9655  1.87708e+20
-31.8482  2.13768e+20
-31.7309  2.43415e+20
-31.6136  2.75686e+20
-31.4963  3.09052e+20
-31.379  3.41857e+20
-31.2617  3.71961e+20
-31.1444  3.97366e+20
-31.0271  4.16149e+20
-30.9098  4.27252e+20
-30.7925  4.30052e+20
-30.6752  4.25148e+20
-30.5579  4.13743e+20
-30.4406  3.98124e+20
-30.3232  3.80887e+20
-30.2059  3.6432e+20
-30.0886  3.50678e+20
-29.9713  3.41343e+20
-29.854  3.36682e+20
-29.7367  3.35942e+20
-29.6194  3.37442e+20
-29.5021  3.38948e+20
-29.3848  3.37805e+20
-29.2675  3.31717e+20
-29.1502  3.19144e+20
-29.0329  2.99759e+20
-28.9156  2.74377e+20
-28.7983  2.45164e+20
-28.681  2.15348e+20
-28.5637  1.88403e+20
-28.4464  1.67599e+20
-28.3291  1.55451e+20
-28.2118  1.52929e+20
-28.0944  1.5941e+20
-27.9771  1.72702e+20
-27.8598  1.89429e+20
-27.7425  2.05685e+20
-27.6252  2.17745e+20
-27.5079  2.22874e+20
-27.3906  2.19698e+20
-27.2733  2.08512e+20
-27.156  1.91165e+20
-27.0387  1.70336e+20
-26.9214  1.49277e+20
-26.8041  1.30805e+20
-26.6868  1.16834e+20
-26.5695  1.08074e+20
-26.4522  1.04003e+20
-26.3349  1.03052e+20
-26.2176  1.03082e+20
-26.1003  1.02237e+20
-25.983  9.89961e+19
-25.8657  9.27844e+19
-25.7483  8.40563e+19
-25.631  7.40003e+19
-25.5137  6.42186e+19
-25.3964  5.64282e+19
-25.2791  5.18266e+19
-25.1618  5.09651e+19
-25.0445  5.3526e+19
-24.9272  5.85105e+19
-24.8099  6.44113e+19
-24.6926  6.95677e+19
-24.5753  7.26434e+19
-24.458  7.27987e+19
-24.3407  6.98295e+19
-24.2234  6.43274e+19
-24.1061  5.73628e+19
-23.9888  5.03589e+19
-23.8715  4.47551e+19
-23.7542  4.17685e+19
-23.6369  4.22062e+19
-23.5196  4.64276e+19
-23.4023  5.43767e+19
-23.2849  6.57939e+19
-23.1676  8.03739e+19
-23.0503  9.79656e+19
-22.933  1.18766e+20
-22.8157  1.4315e+20
-22.6984  1.71697e+20
-22.5811  2.04867e+20
-22.4638  2.42679e+20
-22.3465  2.84417e+20
-22.2292  3.28497e+20
-22.1119  3.72255e+20
-21.9946  4.12515e+20
-21.8773  4.45677e+20
-21.76  4.68514e+20
-21.6427  4.78499e+20
-21.5254  4.748e+20
-21.4081  4.58323e+20
-21.2908  4.31916e+20
-21.1735  4.00052e+20
-21.0561  3.68203e+20
-20.9388  3.41933e+20
-20.8215  3.2617e+20
-20.7042  3.24266e+20
-20.5869  3.37527e+20
-20.4696  3.6506e+20
-20.3523  4.03991e+20
-20.235  4.50076e+20
-20.1177  4.98428e+20
-20.0004  5.4459e+20
-19.8831  5.85142e+20
-19.7658  6.17997e+20
-19.6485  6.42997e+20
-19.5312  6.61081e+20
-19.4139  6.74432e+20
-19.2966  6.85536e+20
-19.1793  6.96311e+20
-19.062  7.08188e+20
-18.9447  7.21734e+20
-18.8274  7.36215e+20
-18.71  7.50673e+20
-18.5927  7.63561e+20
-18.4754  7.73373e+20
-18.3581  7.79293e+20
-18.2408  7.80455e+20
-18.1235  7.77237e+20
-18.0062  7.69806e+20
-17.8889  7.58468e+20
-17.7716  7.43808e+20
-17.6543  7.25448e+20
-17.537  7.03409e+20
-17.4197  6.77267e+20
-17.3024  6.47025e+20
-17.1851  6.12805e+20
-17.0678  5.75863e+20
-16.9505  5.37909e+20
-16.8332  5.01667e+20
-16.7159  4.7011e+20
-16.5986  4.46481e+20
-16.4813  4.33539e+20
-16.364  4.33312e+20
-16.2466  4.46577e+20
-16.1293  4.72829e+20
-16.012  5.10017e+20
-15.8947  5.5534e+20
-15.7774  6.04893e+20
-15.6601  6.54803e+20
-15.5428  7.0146e+20
-15.4255  7.41878e+20
-15.3082  7.74024e+20
-15.1909  7.96795e+20
-15.0736  8.10199e+20
-14.9563  8.15009e+20
-14.839  8.12094e+20
-14.7217  8.02935e+20
-14.6044  7.88405e+20
-14.4871  7.69208e+20
-14.3698  7.45808e+20
-14.2525  7.18554e+20
-14.1352  6.87608e+20
-14.0178  6.53301e+20
-13.9005  6.16387e+20
-13.7832  5.77826e+20
-13.6659  5.39116e+20
-13.5486  5.01907e+20
-13.4313  4.67902e+20
-13.314  4.38684e+20
-13.1967  4.15544e+20
-13.0794  3.99068e+20
-12.9621  3.89445e+20
-12.8448  3.86089e+20
-12.7275  3.88155e+20
-12.6102  3.94253e+20
-12.4929  4.03184e+20
-12.3756  4.13946e+20
-12.2583  4.25729e+20
-12.141  4.38482e+20
-12.0237  4.52675e+20
-11.9064  4.69338e+20
-11.7891  4.89719e+20
-11.6718  5.15418e+20
-11.5544  5.4781e+20
-11.4371  5.87902e+20
-11.3198  6.36564e+20
-11.2025  6.93861e+20
-11.0852  7.59631e+20
-10.9679  8.33295e+20
-10.8506  9.14326e+20
-10.7333  1.00233e+21
-10.616  1.09688e+21
-10.4987  1.19777e+21
-10.3814  1.30495e+21
-10.2641  1.41812e+21
-10.1468  1.53669e+21
-10.0295  1.6593e+21
-9.91217  1.78453e+21
-9.79487  1.90988e+21
-9.67756  2.03321e+21
-9.56026  2.15264e+21
-9.44295  2.26681e+21
-9.32565  2.37584e+21
-9.20834  2.48122e+21
-9.09104  2.58624e+21
-8.97373  2.69528e+21
-8.85643  2.81348e+21
-8.73913  2.94666e+21
-8.62182  3.09976e+21
-8.50452  3.27656e+21
-8.38721  3.47925e+21
-8.26991  3.70806e+21
-8.1526  3.96176e+21
-8.03529  4.23768e+21
-7.91799  4.5319e+21
-7.80069  4.84049e+21
-7.68338  5.15934e+21
-7.56608  5.48511e+21
-7.44877  5.81521e+21
-7.33146  6.14778e+21
-7.21416  6.48134e+21
-7.09685  6.81497e+21
-6.97955  7.14788e+21
-6.86224  7.4786e+21
-6.74494  7.80519e+21
-6.62763  8.126e+21
-6.51033  8.43829e+21
-6.39302  8.73921e+21
-6.27572  9.02684e+21
-6.15842  9.29865e+21
-6.04111  9.55251e+21
-5.92381  9.78725e+21
-5.8065  1.00013e+22
-5.68919  1.01935e+22
-5.57189  1.03636e+22
-5.45458  1.0511e+22
-5.33728  1.06351e+22
-5.21997  1.07363e+22
-5.10267  1.08155e+22
-4.98536  1.08748e+22
-4.86806  1.09167e+22
-4.75075  1.09466e+22
-4.63345  1.09699e+22
-4.51614  1.09956e+22
-4.39884  1.10319e+22
-4.28154  1.10902e+22
-4.16423  1.11832e+22
-4.04692  1.13231e+22
-3.92962  1.15227e+22
-3.81231  1.17959e+22
-3.69501  1.21542e+22
-3.5777  1.26093e+22
-3.4604  1.317e+22
-3.34309  1.38418e+22
-3.22579  1.46264e+22
-3.10849  1.55234e+22
-2.99118  1.65249e+22
-2.87387  1.76206e+22
-2.75657  1.87948e+22
-2.63926  2.0028e+22
-2.52196  2.1298e+22
-2.40465  2.25801e+22
-2.28735  2.38499e+22
-2.17005  2.50827e+22
-2.05274  2.62562e+22
-1.93544  2.73498e+22
-1.81813  2.8348e+22
-1.70083  2.92382e+22
-1.58352  3.0013e+22
-1.46622  3.06689e+22
-1.34891  3.12066e+22
-1.2316  3.16325e+22
-1.1143  3.19534e+22
-0.996995  3.21819e+22
-0.87969  3.23317e+22
-0.762385  3.24166e+22
-0.64508  3.24534e+22
-0.527775  3.24571e+22
-0.41047  3.24413e+22
-0.293165  3.24185e+22
-0.17586  3.23995e+22
-0.058555  3.23904e+22
0.05875  3.23948e+22
0.176055  3.24123e+22
0.29336  3.24405e+22
0.410665  3.24709e+22
0.52797  3.24942e+22
0.645275  3.24975e+22
0.76258  3.24678e+22
0.879885  3.2388e+22
0.99719  3.22437e+22
1.1145  3.20195e+22
1.2318  3.17019e+22
1.3491  3.12788e+22
1.46641  3.07434e+22
1.58371  3.00889e+22
1.70102  2.93151e+22
1.81832  2.84254e+22
1.93563  2.74272e+22
2.05294  2.63335e+22
2.17024  2.51601e+22
2.28754  2.39265e+22
2.40485  2.26562e+22
2.52216  2.13735e+22
2.63946  2.01032e+22
2.75677  1.8869e+22
2.87407  1.76947e+22
2.99137  1.65986e+22
3.10868  1.55964e+22
3.22599  1.46996e+22
3.34329  1.39149e+22
3.4606  1.3243e+22
3.5779  1.26826e+22
3.69521  1.22277e+22
3.81251  1.1869e+22
3.92982  1.15957e+22
4.04712  1.13959e+22
4.16443  1.12558e+22
4.28173  1.11623e+22
4.39903  1.11027e+22
4.51634  1.10653e+22
4.63364  1.10383e+22
4.75095  1.10132e+22
4.86825  1.09813e+22
4.98556  1.0937e+22
5.10286  1.08758e+22
5.22017  1.07938e+22
5.33748  1.069e+22
5.45478  1.05634e+22
5.57209  1.04136e+22
5.68939  1.02414e+22
5.8067  1.00466e+22
5.924  9.83043e+21
6.0413  9.59418e+21
6.15861  9.33854e+21
6.27591  9.0656e+21
6.39322  8.77684e+21
6.51052  8.4748e+21
6.62783  8.16179e+21
6.74514  7.84044e+21
6.86244  7.51328e+21
6.97975  7.18226e+21
7.09705  6.84908e+21
7.21436  6.51495e+21
7.33166  6.18075e+21
7.44897  5.84777e+21
7.56627  5.51704e+21
7.68358  5.19075e+21
7.80088  4.87117e+21
7.91819  4.56193e+21
8.03549  4.26716e+21
8.1528  3.99063e+21
8.2701  3.73625e+21
8.38741  3.50682e+21
8.50471  3.30341e+21
8.62202  3.12612e+21
8.73932  2.97219e+21
8.85662  2.8378e+21
8.97393  2.71829e+21
9.09123  2.60811e+21
9.20854  2.50163e+21
9.32584  2.39465e+21
9.44315  2.28423e+21
9.56045  2.16891e+21
9.67776  2.0483e+21
9.79506  1.92394e+21
9.91237  1.79786e+21
10.0297  1.67206e+21
10.147  1.54873e+21
10.2643  1.42962e+21
10.3816  1.31587e+21
10.4989  1.208e+21
10.6162  1.10645e+21
10.7335  1.01114e+21
10.8508  9.22412e+20
10.9681  8.40607e+20
11.0854  7.66264e+20
11.2027  6.99947e+20
11.32  6.42112e+20
11.4373  5.93097e+20
11.5546  5.52583e+20
11.6719  5.19911e+20
11.7893  4.9394e+20
11.9066  4.73217e+20
12.0239  4.56338e+20
12.1412  4.41788e+20
12.2585  4.28704e+20
12.3758  4.16581e+20
12.4931  4.05585e+20
12.6104  3.96419e+20
12.7277  3.90151e+20
12.845  3.88031e+20
12.9623  3.91431e+20
13.0796  4.01157e+20
13.1969  4.1783e+20
13.3142  4.41229e+20
13.4315  4.70778e+20
13.5488  5.05203e+20
13.6661  5.42796e+20
13.7834  5.81997e+20
13.9007  6.20997e+20
14.018  6.58366e+20
14.1354  6.93178e+20
14.2527  7.24504e+20
14.37  7.52139e+20
14.4873  7.75959e+20
14.6046  7.95431e+20
14.7219  8.10156e+20
14.8392  8.19397e+20
14.9565  8.22068e+20
15.0738  8.17059e+20
15.1911  8.03117e+20
15.3084  7.79779e+20
15.4257  7.47158e+20
15.543  7.06137e+20
15.6603  6.58932e+20
15.7776  6.08449e+20
15.8949  5.58515e+20
16.0122  5.12946e+20
16.1295  4.75532e+20
16.2468  4.4928e+20
16.3641  4.36027e+20
16.4815  4.36219e+20
16.5988  4.49051e+20
16.7161  4.7255e+20
16.8334  5.03863e+20
16.9507  5.39818e+20
17.068  5.77299e+20
17.1853  6.13799e+20
17.3026  6.47472e+20
17.4199  6.77284e+20
17.5372  7.03034e+20
17.6545  7.24703e+20
17.7718  7.42817e+20
17.8891  7.57489e+20
18.0064  7.68757e+20
18.1237  7.76072e+20
18.241  7.7953e+20
18.3583  7.78448e+20
18.4756  7.72898e+20
18.5929  7.63477e+20
18.7102  7.51305e+20
18.8275  7.37362e+20
18.9449  7.23606e+20
19.0622  7.10784e+20
19.1795  6.99437e+20
19.2968  6.8916e+20
19.4141  6.78294e+20
19.5314  6.64881e+20
19.6487  6.46532e+20
19.766  6.21032e+20
19.8833  5.87506e+20
20.0006  5.46251e+20
20.1179  4.99328e+20
20.2352  4.50292e+20
20.3525  4.03778e+20
20.4698  3.64636e+20
20.5871  3.37098e+20
20.7044  3.23948e+20
20.8217  3.26144e+20
20.939  3.42204e+20
21.0563  3.68709e+20
21.1736  4.00692e+20
21.291  4.32492e+20
21.4083  4.588e+20
21.5256  4.7496e+20
21.6429  4.78279e+20
21.7602  4.67914e+20
21.8775  4.44771e+20
21.9948  4.11283e+20
22.1121  3.70754e+20
22.2294  3.26792e+20
22.3467  2.82803e+20
22.464  2.41111e+20
22.5813  2.03454e+20
22.6986  1.70484e+20
22.8159  1.42098e+20
22.9332  1.17889e+20
23.0505  9.73164e+19
23.1678  7.98595e+19
23.2851  6.54668e+19
23.4024  5.42256e+19
23.5198  4.64602e+19
23.6371  4.24319e+19
23.7544  4.21599e+19
23.8717  4.52875e+19
23.989  5.09696e+19
24.1063  5.7972e+19
24.2236  6.48715e+19
24.3409  7.02477e+19
24.4582  7.302e+19
24.5755  7.26691e+19
24.6928  6.93794e+19
24.8101  6.40347e+19
24.9274  5.80353e+19
25.0447  5.3015e+19
25.162  5.04909e+19
25.2793  5.14525e+19
25.3966  5.61624e+19
25.5139  6.4077e+19
25.6312  7.39274e+19
25.7485  8.40484e+19
25.8658  9.28192e+19
25.9832  9.89807e+19
26.1005  1.02269e+20
26.2178  1.03188e+20
26.3351  1.03205e+20
26.4524  1.04382e+20
26.5697  1.08686e+20
26.687  1.17698e+20
26.8043  1.31889e+20
26.9216  1.50501e+20
27.0389  1.71679e+20
27.1562  1.92439e+20
27.2735  2.09649e+20
27.3908  2.2059e+20
27.5081  2.23406e+20
27.6254  2.18044e+20
27.7427  2.05727e+20
27.86  1.8939e+20
27.9773  1.72661e+20
28.0946  1.59502e+20
28.212  1.53205e+20
28.3293  1.55966e+20
28.4466  1.6832e+20
28.5639  1.89224e+20
28.6812  2.16198e+20
28.7985  2.45964e+20
28.9158  2.74963e+20
29.0331  3.00122e+20
29.1504  3.19384e+20
29.2677  3.31749e+20
29.385  3.37802e+20
29.5023  3.39005e+20
29.6196  3.37711e+20
29.7369  3.3648e+20
29.8542  3.37702e+20
29.9715  3.42832e+20
30.0888  3.52613e+20
30.2061  3.66663e+20
30.3234  3.8351e+20
30.4407  4.01018e+20
30.558  4.16672e+20
30.6754  4.27879e+20
30.7927  4.32666e+20
30.91  4.29547e+20
31.0273  4.1816e+20
31.1446  3.98896e+20
31.2619  3.73157e+20
31.3792  3.42662e+20
31.4965  3.09618e+20
31.6138  2.75983e+20
31.7311  2.4354e+20
31.8484  2.13689e+20
31.9657  1.87499e+20
32.083  1.658e+20
32.2003  1.49452e+20
32.3176  1.39403e+20
32.4349  1.36919e+20
32.5522  1.43357e+20
32.6695  1.60061e+20
32.7868  1.8803e+20
32.9042  2.27334e+20
33.0215  2.77066e+20
33.1388  3.34885e+20
33.2561  3.97051e+20
33.3734  4.58695e+20
33.4907  5.14179e+20
33.608  5.584e+20
33.7253  5.86884e+20
33.8426  5.96463e+20
33.9599  5.86657e+20
34.0772  5.58724e+20
34.1945  5.16438e+20
34.3118  4.64703e+20
34.4291  4.09286e+20
34.5464  3.55753e+20
34.6637  3.08417e+20
34.781  2.7016e+20
34.8983  2.41565e+20
35.0156  2.21687e+20
35.1329  2.08217e+20
35.2503  1.98315e+20
35.3676  1.89171e+20
35.4849  1.78965e+20
35.6022  1.66932e+20
35.7195  1.53579e+20
35.8368  1.40254e+20
35.9541  1.28714e+20
36.0714  1.20531e+20
36.1887  1.166e+20
36.306  1.16978e+20
36.4233  1.2084e+20
36.5406  1.2671e+20
36.6579  1.32925e+20
36.7752  1.38171e+20
36.8925  1.41589e+20
37.0098  1.43057e+20
37.1271  1.43022e+20
37.2444  1.42253e+20
37.3617  1.41378e+20
37.479  1.40777e+20
37.5964  1.40197e+20
37.7137  1.38814e+20
37.831  1.35629e+20
37.9483  1.29718e+20
38.0656  1.20419e+20
38.1829  1.07887e+20
38.3002  9.29318e+19
38.4175  7.70335e+19
38.5348  6.20461e+19
38.6521  4.97702e+19
38.7694  4.16659e+19
38.8867  3.84752e+19
39.004  4.01554e+19
39.1213  4.5938e+19
39.2386  5.4565e+19
39.3559  6.44001e+19
39.4732  7.38699e+19
39.5905  8.16758e+19
39.7078  8.69112e+19
39.8251  8.91008e+19
39.9425  8.83785e+19
40.0598  8.51399e+19
40.1771  8.00673e+19
40.2944  7.40347e+19
40.4117  6.79566e+19
40.529  6.25956e+19
40.6463  5.85963e+19
40.7636  5.63597e+19
40.8809  5.60293e+19
40.9982  5.75032e+19
41.1155  6.04931e+19
41.2328  6.47292e+19
41.3501  6.99274e+19
41.4674  7.6118e+19
41.5847  8.34415e+19
41.702  9.2315e+19
41.8193  1.03277e+20
41.9366  1.16692e+20
42.0539  1.3276e+20
42.1712  1.51166e+20
42.2885  1.71058e+20
42.4059  1.91153e+20
42.5232  2.09693e+20
42.6405  2.24986e+20
42.7578  2.35294e+20
42.8751  2.39378e+20
42.9924  2.36727e+20
43.1097  2.27464e+20
43.227  2.12305e+20
43.3443  1.92652e+20
43.4616  1.70129e+20
43.5789  1.46697e+20
43.6962  1.24187e+20
43.8135  1.0432e+20
43.9308  8.8659e+19
44.0481  7.85059e+19
44.1654  7.48504e+19
44.2827  7.83662e+19
44.4  8.93531e+19
44.5173  1.07684e+20
44.6347  1.32646e+20
44.752  1.6323e+20
44.8693  1.97833e+20
44.9866  2.3461e+20
45.1039  2.71688e+20
45.2212  3.071e+20
45.3385  3.39272e+20
45.4558  3.67046e+20
45.5731  3.89419e+20
45.6904  4.06098e+20
45.8077  4.16801e+20
45.925  4.21537e+20
46.0423  4.20395e+20
46.1596  4.13319e+20
46.2769  4.00536e+20
46.3942  3.82248e+20
46.5115  3.58703e+20
46.6288  3.30691e+20
46.7461  2.99103e+20
46.8634  2.65202e+20
46.9808  2.30448e+20
47.0981  1.96353e+20
47.2154  1.64356e+20
47.3327  1.35666e+20
47.45  1.11291e+20
47.5673  9.1873e+19
47.6846  7.78582e+19
47.8019  6.95436e+19
47.9192  6.71119e+19
48.0365  7.07246e+19
48.1538  8.03238e+19
48.2711  9.5778e+19
48.3884  1.16444e+20
48.5057  1.41396e+20
48.623  1.69116e+20
48.7403  1.97697e+20
48.8576  2.25079e+20
48.9749  2.48965e+20
49.0922  2.67541e+20
49.2095  2.7942e+20
49.3269  2.83887e+20
49.4442  2.81073e+20
49.5615  2.71818e+20
49.6788  2.57617e+20
49.7961  2.40246e+20
49.9134  2.21484e+20
50.0307  2.02987e+20
50.148  1.8603e+20
50.2653  1.71591e+20
50.3826  1.60204e+20
50.4999  1.52039e+20
50.6172  1.4726e+20
50.7345  1.45932e+20
50.8518  1.47975e+20
