#S 1 spectral density
#N 2
#UFWHM 26.7455
#L  abscissas [um]  spectral density
-58.5938  1.49784e+20
-58.4764  1.69995e+20
-58.3591  1.90065e+20
-58.2418  2.08806e+20
-58.1245  2.25434e+20
-58.0072  2.39446e+20
-57.8899  2.50633e+20
-57.7726  2.59114e+20
-57.6553  2.64958e+20
-57.538  2.68241e+20
-57.4207  2.68864e+20
-57.3034  2.66554e+20
-57.1861  2.61006e+20
-57.0688  2.51869e+20
-56.9515  2.39212e+20
-56.8342  2.23342e+20
-56.7169  2.05036e+20
-56.5996  1.85344e+20
-56.4823  1.65593e+20
-56.365  1.47113e+20
-56.2477  1.30993e+20
-56.1303  1.18242e+20
-56.013  1.09387e+20
-55.8957  1.04714e+20
-55.7784  1.04222e+20
-55.6611  1.07657e+20
-55.5438  1.14647e+20
-55.4265  1.24587e+20
-55.3092  1.3678e+20
-55.1919  1.5027e+20
-55.0746  1.64109e+20
-54.9573  1.77217e+20
-54.84  1.88594e+20
-54.7227  1.97548e+20
-54.6054  2.03609e+20
-54.4881  2.06782e+20
-54.3708  2.07396e+20
-54.2535  2.06122e+20
-54.1362  2.03668e+20
-54.0189  2.00829e+20
-53.9016  1.98104e+20
-53.7842  1.9575e+20
-53.6669  1.93828e+20
-53.5496  1.92183e+20
-53.4323  1.90642e+20
-53.315  1.89031e+20
-53.1977  1.87301e+20
-53.0804  1.85537e+20
-52.9631  1.83861e+20
-52.8458  1.82363e+20
-52.7285  1.81019e+20
-52.6112  1.79711e+20
-52.4939  1.78089e+20
-52.3766  1.75869e+20
-52.2593  1.72657e+20
-52.142  1.68366e+20
-52.0247  1.63017e+20
-51.9074  1.56969e+20
-51.7901  1.50689e+20
-51.6728  1.44773e+20
-51.5555  1.3975e+20
-51.4381  1.36138e+20
-51.3208  1.34075e+20
-51.2035  1.33635e+20
-51.0862  1.34643e+20
-50.9689  1.36907e+20
-50.8516  1.40162e+20
-50.7343  1.4417e+20
-50.617  1.48733e+20
-50.4997  1.53856e+20
-50.3824  1.59436e+20
-50.2651  1.65566e+20
-50.1478  1.722e+20
-50.0305  1.79445e+20
-49.9132  1.87274e+20
-49.7959  1.95751e+20
-49.6786  2.04828e+20
-49.5613  2.14503e+20
-49.444  2.24706e+20
-49.3267  2.35228e+20
-49.2094  2.45884e+20
-49.092  2.5631e+20
-48.9747  2.66226e+20
-48.8574  2.75222e+20
-48.7401  2.82965e+20
-48.6228  2.89211e+20
-48.5055  2.93756e+20
-48.3882  2.96396e+20
-48.2709  2.97052e+20
-48.1536  2.95685e+20
-48.0363  2.92197e+20
-47.919  2.86655e+20
-47.8017  2.79129e+20
-47.6844  2.69919e+20
-47.5671  2.59435e+20
-47.4498  2.48198e+20
-47.3325  2.37094e+20
-47.2152  2.26827e+20
-47.0979  2.18376e+20
-46.9806  2.12458e+20
-46.8633  2.09665e+20
-46.7459  2.10501e+20
-46.6286  2.15123e+20
-46.5113  2.23576e+20
-46.394  2.356e+20
-46.2767  2.50696e+20
-46.1594  2.68158e+20
-46.0421  2.86982e+20
-45.9248  3.05969e+20
-45.8075  3.23635e+20
-45.6902  3.38494e+20
-45.5729  3.49037e+20
-45.4556  3.54081e+20
-45.3383  3.52936e+20
-45.221  3.45503e+20
-45.1037  3.3253e+20
-44.9864  3.1527e+20
-44.8691  2.95693e+20
-44.7518  2.76001e+20
-44.6345  2.5845e+20
-44.5172  2.44798e+20
-44.3998  2.36327e+20
-44.2825  2.3363e+20
-44.1652  2.36557e+20
-44.0479  2.44222e+20
-43.9306  2.55435e+20
-43.8133  2.68755e+20
-43.696  2.82611e+20
-43.5787  2.9584e+20
-43.4614  3.07528e+20
-43.3441  3.1705e+20
-43.2268  3.24277e+20
-43.1095  3.29266e+20
-42.9922  3.32527e+20
-42.8749  3.34622e+20
-42.7576  3.3626e+20
-42.6403  3.3827e+20
-42.523  3.41287e+20
-42.4057  3.45896e+20
-42.2884  3.52464e+20
-42.171  3.61009e+20
-42.0537  3.71123e+20
-41.9364  3.82181e+20
-41.8191  3.93305e+20
-41.7018  4.03572e+20
-41.5845  4.12038e+20
-41.4672  4.18061e+20
-41.3499  4.21265e+20
-41.2326  4.21771e+20
-41.1153  4.20097e+20
-40.998  4.17075e+20
-40.8807  4.13747e+20
-40.7634  4.11382e+20
-40.6461  4.11087e+20
-40.5288  4.13886e+20
-40.4115  4.20261e+20
-40.2942  4.30386e+20
-40.1769  4.43964e+20
-40.0596  4.60291e+20
-39.9423  4.78071e+20
-39.825  4.9567e+20
-39.7076  5.11466e+20
-39.5903  5.2365e+20
-39.473  5.31016e+20
-39.3557  5.32636e+20
-39.2384  5.28473e+20
-39.1211  5.19234e+20
-39.0038  5.06298e+20
-38.8865  4.91616e+20
-38.7692  4.77375e+20
-38.6519  4.65534e+20
-38.5346  4.57776e+20
-38.4173  4.5494e+20
-38.3  4.57246e+20
-38.1827  4.63978e+20
-38.0654  4.74045e+20
-37.9481  4.85768e+20
-37.8308  4.97595e+20
-37.7135  5.07943e+20
-37.5962  5.15773e+20
-37.4789  5.20383e+20
-37.3615  5.21381e+20
-37.2442  5.19023e+20
-37.1269  5.13732e+20
-37.0096  5.06613e+20
-36.8923  4.98744e+20
-36.775  4.91651e+20
-36.6577  4.86951e+20
-36.5404  4.86332e+20
-36.4231  4.91136e+20
-36.3058  5.02064e+20
-36.1885  5.19359e+20
-36.0712  5.42313e+20
-35.9539  5.69282e+20
-35.8366  5.98159e+20
-35.7193  6.26158e+20
-35.602  6.50912e+20
-35.4847  6.70106e+20
-35.3674  6.82439e+20
-35.2501  6.87491e+20
-35.1328  6.85835e+20
-35.0154  6.78934e+20
-34.8981  6.68452e+20
-34.7808  6.56453e+20
-34.6635  6.44982e+20
-34.5462  6.35322e+20
-34.4289  6.28514e+20
-34.3116  6.25064e+20
-34.1943  6.24842e+20
-34.077  6.27202e+20
-33.9597  6.31513e+20
-33.8424  6.3664e+20
-33.7251  6.41615e+20
-33.6078  6.45103e+20
-33.4905  6.46116e+20
-33.3732  6.43788e+20
-33.2559  6.37501e+20
-33.1386  6.27345e+20
-33.0213  6.13659e+20
-32.904  5.97511e+20
-32.7867  5.80345e+20
-32.6693  5.63928e+20
-32.552  5.50089e+20
-32.4347  5.403e+20
-32.3174  5.35805e+20
-32.2001  5.37375e+20
-32.0828  5.45232e+20
-31.9655  5.59157e+20
-31.8482  5.78603e+20
-31.7309  6.02868e+20
-31.6136  6.31171e+20
-31.4963  6.62767e+20
-31.379  6.96868e+20
-31.2617  7.33074e+20
-31.1444  7.70668e+20
-31.0271  8.09239e+20
-30.9098  8.48594e+20
-30.7925  8.88055e+20
-30.6752  9.27263e+20
-30.5579  9.65831e+20
-30.4406  1.00312e+21
-30.3232  1.03843e+21
-30.2059  1.07081e+21
-30.0886  1.09925e+21
-29.9713  1.12285e+21
-29.854  1.14062e+21
-29.7367  1.15185e+21
-29.6194  1.15638e+21
-29.5021  1.15446e+21
-29.3848  1.14693e+21
-29.2675  1.13509e+21
-29.1502  1.12051e+21
-29.0329  1.10499e+21
-28.9156  1.09014e+21
-28.7983  1.07729e+21
-28.681  1.06745e+21
-28.5637  1.06122e+21
-28.4464  1.05881e+21
-28.3291  1.0602e+21
-28.2118  1.06514e+21
-28.0944  1.07342e+21
-27.9771  1.0848e+21
-27.8598  1.09915e+21
-27.7425  1.11648e+21
-27.6252  1.13688e+21
-27.5079  1.16059e+21
-27.3906  1.18794e+21
-27.2733  1.21937e+21
-27.156  1.25508e+21
-27.0387  1.2955e+21
-26.9214  1.34051e+21
-26.8041  1.38969e+21
-26.6868  1.44215e+21
-26.5695  1.49648e+21
-26.4522  1.55079e+21
-26.3349  1.60303e+21
-26.2176  1.65085e+21
-26.1003  1.69212e+21
-25.983  1.72539e+21
-25.8657  1.74973e+21
-25.7483  1.76496e+21
-25.631  1.772e+21
-25.5137  1.77235e+21
-25.3964  1.76846e+21
-25.2791  1.7629e+21
-25.1618  1.75872e+21
-25.0445  1.75868e+21
-24.9272  1.76537e+21
-24.8099  1.78058e+21
-24.6926  1.80568e+21
-24.5753  1.84066e+21
-24.458  1.88504e+21
-24.3407  1.937e+21
-24.2234  1.99441e+21
-24.1061  2.05427e+21
-23.9888  2.11369e+21
-23.8715  2.17005e+21
-23.7542  2.22133e+21
-23.6369  2.26635e+21
-23.5196  2.30505e+21
-23.4023  2.3386e+21
-23.2849  2.36899e+21
-23.1676  2.39911e+21
-23.0503  2.43203e+21
-22.933  2.47113e+21
-22.8157  2.51925e+21
-22.6984  2.57875e+21
-22.5811  2.65092e+21
-22.4638  2.73635e+21
-22.3465  2.8343e+21
-22.2292  2.9431e+21
-22.1119  3.06011e+21
-21.9946  3.18212e+21
-21.8773  3.30537e+21
-21.76  3.42591e+21
-21.6427  3.5402e+21
-21.5254  3.64504e+21
-21.4081  3.73823e+21
-21.2908  3.81841e+21
-21.1735  3.88561e+21
-21.0561  3.94061e+21
-20.9388  3.98525e+21
-20.8215  4.02148e+21
-20.7042  4.05202e+21
-20.5869  4.07887e+21
-20.4696  4.10418e+21
-20.3523  4.12916e+21
-20.235  4.15469e+21
-20.1177  4.18067e+21
-20.0004  4.20722e+21
-19.8831  4.23386e+21
-19.7658  4.26035e+21
-19.6485  4.28633e+21
-19.5312  4.31245e+21
-19.4139  4.33876e+21
-19.2966  4.36667e+21
-19.1793  4.39727e+21
-19.062  4.4324e+21
-18.9447  4.47333e+21
-18.8274  4.52141e+21
-18.71  4.57811e+21
-18.5927  4.64383e+21
-18.4754  4.71846e+21
-18.3581  4.80125e+21
-18.2408  4.89076e+21
-18.1235  4.98498e+21
-18.0062  5.08137e+21
-17.8889  5.1772e+21
-17.7716  5.27039e+21
-17.6543  5.35862e+21
-17.537  5.44097e+21
-17.4197  5.5169e+21
-17.3024  5.58742e+21
-17.1851  5.65426e+21
-17.0678  5.71969e+21
-16.9505  5.78716e+21
-16.8332  5.86017e+21
-16.7159  5.94202e+21
-16.5986  6.03541e+21
-16.4813  6.14257e+21
-16.364  6.26456e+21
-16.2466  6.40146e+21
-16.1293  6.55154e+21
-16.012  6.71189e+21
-15.8947  6.87858e+21
-15.7774  7.04703e+21
-15.6601  7.21173e+21
-15.5428  7.36764e+21
-15.4255  7.50957e+21
-15.3082  7.63406e+21
-15.1909  7.73925e+21
-15.0736  7.82384e+21
-14.9563  7.88928e+21
-14.839  7.93834e+21
-14.7217  7.97477e+21
-14.6044  8.00335e+21
-14.4871  8.0293e+21
-14.3698  8.05748e+21
-14.2525  8.09216e+21
-14.1352  8.13606e+21
-14.0178  8.19224e+21
-13.9005  8.26101e+21
-13.7832  8.34228e+21
-13.6659  8.43504e+21
-13.5486  8.53722e+21
-13.4313  8.6466e+21
-13.314  8.76035e+21
-13.1967  8.87598e+21
-13.0794  8.99208e+21
-12.9621  9.10607e+21
-12.8448  9.21837e+21
-12.7275  9.32853e+21
-12.6102  9.43816e+21
-12.4929  9.54906e+21
-12.3756  9.66343e+21
-12.2583  9.78402e+21
-12.141  9.91341e+21
-12.0237  1.00528e+22
-11.9064  1.02028e+22
-11.7891  1.03628e+22
-11.6718  1.05308e+22
-11.5544  1.07044e+22
-11.4371  1.08802e+22
-11.3198  1.10535e+22
-11.2025  1.12207e+22
-11.0852  1.13777e+22
-10.9679  1.15213e+22
-10.8506  1.16489e+22
-10.7333  1.17592e+22
-10.616  1.18512e+22
-10.4987  1.19271e+22
-10.3814  1.19872e+22
-10.2641  1.20349e+22
-10.1468  1.20735e+22
-10.0295  1.21072e+22
-9.91217  1.21391e+22
-9.79487  1.21736e+22
-9.67756  1.22132e+22
-9.56026  1.22605e+22
-9.44295  1.23163e+22
-9.32565  1.23822e+22
-9.20834  1.24574e+22
-9.09104  1.25416e+22
-8.97373  1.26342e+22
-8.85643  1.27341e+22
-8.73913  1.28409e+22
-8.62182  1.29535e+22
-8.50452  1.30717e+22
-8.38721  1.31955e+22
-8.26991  1.33232e+22
-8.1526  1.34547e+22
-8.03529  1.35875e+22
-7.91799  1.37198e+22
-7.80069  1.38484e+22
-7.68338  1.39697e+22
-7.56608  1.40804e+22
-7.44877  1.41769e+22
-7.33146  1.42551e+22
-7.21416  1.43127e+22
-7.09685  1.43476e+22
-6.97955  1.43592e+22
-6.86224  1.4349e+22
-6.74494  1.43206e+22
-6.62763  1.42771e+22
-6.51033  1.42253e+22
-6.39302  1.41719e+22
-6.27572  1.41239e+22
-6.15842  1.40886e+22
-6.04111  1.40727e+22
-5.92381  1.40809e+22
-5.8065  1.4118e+22
-5.68919  1.41847e+22
-5.57189  1.42811e+22
-5.45458  1.44045e+22
-5.33728  1.45513e+22
-5.21997  1.47145e+22
-5.10267  1.48875e+22
-4.98536  1.50624e+22
-4.86806  1.52315e+22
-4.75075  1.53876e+22
-4.63345  1.55257e+22
-4.51614  1.56414e+22
-4.39884  1.57333e+22
-4.28154  1.58027e+22
-4.16423  1.58517e+22
-4.04692  1.58849e+22
-3.92962  1.59081e+22
-3.81231  1.59277e+22
-3.69501  1.59489e+22
-3.5777  1.59766e+22
-3.4604  1.60141e+22
-3.34309  1.60623e+22
-3.22579  1.61204e+22
-3.10849  1.61853e+22
-2.99118  1.62524e+22
-2.87387  1.63166e+22
-2.75657  1.63721e+22
-2.63926  1.64132e+22
-2.52196  1.6436e+22
-2.40465  1.64375e+22
-2.28735  1.64172e+22
-2.17005  1.63768e+22
-2.05274  1.63212e+22
-1.93544  1.62552e+22
-1.81813  1.61871e+22
-1.70083  1.61247e+22
-1.58352  1.60766e+22
-1.46622  1.60504e+22
-1.34891  1.6052e+22
-1.2316  1.60851e+22
-1.1143  1.61511e+22
-0.996995  1.62479e+22
-0.87969  1.63713e+22
-0.762385  1.65131e+22
-0.64508  1.66648e+22
-0.527775  1.68147e+22
-0.41047  1.69518e+22
-0.293165  1.70654e+22
-0.17586  1.71464e+22
-0.058555  1.71883e+22
0.05875  1.71875e+22
0.176055  1.71439e+22
0.29336  1.70611e+22
0.410665  1.69462e+22
0.52797  1.68079e+22
0.645275  1.66568e+22
0.76258  1.65045e+22
0.879885  1.63619e+22
0.99719  1.62381e+22
1.1145  1.61407e+22
1.2318  1.60743e+22
1.3491  1.6041e+22
1.46641  1.60391e+22
1.58371  1.6065e+22
1.70102  1.61124e+22
1.81832  1.6174e+22
1.93563  1.62411e+22
2.05294  1.6306e+22
2.17024  1.63609e+22
2.28754  1.63998e+22
2.40485  1.64187e+22
2.52216  1.64157e+22
2.63946  1.63918e+22
2.75677  1.63492e+22
2.87407  1.62925e+22
2.99137  1.62268e+22
3.10868  1.61582e+22
3.22599  1.6092e+22
3.34329  1.60329e+22
3.4606  1.59836e+22
3.5779  1.59448e+22
3.69521  1.59155e+22
3.81251  1.58929e+22
3.92982  1.58718e+22
4.04712  1.58469e+22
4.16443  1.58122e+22
4.28173  1.57618e+22
4.39903  1.56912e+22
4.51634  1.55977e+22
4.63364  1.54812e+22
4.75095  1.53423e+22
4.86825  1.51853e+22
4.98556  1.50159e+22
5.10286  1.4841e+22
5.22017  1.46682e+22
5.33748  1.45054e+22
5.45478  1.43595e+22
5.57209  1.42368e+22
5.68939  1.4141e+22
5.8067  1.40749e+22
5.924  1.40386e+22
6.0413  1.40306e+22
6.15861  1.40467e+22
6.27591  1.40817e+22
6.39322  1.41294e+22
6.51052  1.41824e+22
6.62783  1.42329e+22
6.74514  1.4275e+22
6.86244  1.43024e+22
6.97975  1.43107e+22
7.09705  1.42974e+22
7.21436  1.4261e+22
7.33166  1.42017e+22
7.44897  1.41219e+22
7.56627  1.40243e+22
7.68358  1.3912e+22
7.80088  1.37893e+22
7.91819  1.36595e+22
8.03549  1.35265e+22
8.1528  1.33932e+22
8.2701  1.32612e+22
8.38741  1.31328e+22
8.50471  1.30089e+22
8.62202  1.289e+22
8.73932  1.27768e+22
8.85662  1.26701e+22
8.97393  1.25699e+22
9.09123  1.2477e+22
9.20854  1.23924e+22
9.32584  1.23172e+22
9.44315  1.22509e+22
9.56045  1.21943e+22
9.67776  1.21467e+22
9.79506  1.21063e+22
9.91237  1.20713e+22
10.0297  1.20385e+22
10.147  1.20043e+22
10.2643  1.19651e+22
10.3816  1.19164e+22
10.4989  1.18557e+22
10.6162  1.17797e+22
10.7335  1.1687e+22
10.8508  1.15765e+22
10.9681  1.14487e+22
11.0854  1.13056e+22
11.2027  1.11491e+22
11.32  1.09823e+22
11.4373  1.08096e+22
11.5546  1.06348e+22
11.6719  1.04618e+22
11.7893  1.02948e+22
11.9066  1.01357e+22
12.0239  9.98638e+21
12.1412  9.84788e+21
12.2585  9.71918e+21
12.3758  9.59876e+21
12.4931  9.48446e+21
12.6104  9.37349e+21
12.7277  9.26379e+21
12.845  9.15358e+21
12.9623  9.04093e+21
13.0796  8.92657e+21
13.1969  8.81053e+21
13.3142  8.69456e+21
13.4315  8.58054e+21
13.5488  8.47123e+21
13.6661  8.36916e+21
13.7834  8.27635e+21
13.9007  8.19514e+21
14.018  8.12675e+21
14.1354  8.07068e+21
14.2527  8.02649e+21
14.37  7.99207e+21
14.4873  7.96368e+21
14.6046  7.93754e+21
14.7219  7.90849e+21
14.8392  7.87182e+21
14.9565  7.8225e+21
15.0738  7.75647e+21
15.1911  7.67165e+21
15.3084  7.56626e+21
15.4257  7.44146e+21
15.543  7.29935e+21
15.6603  7.14375e+21
15.7776  6.97962e+21
15.8949  6.81186e+21
16.0122  6.64579e+21
16.1295  6.48621e+21
16.2468  6.33712e+21
16.3641  6.20128e+21
16.4815  6.08033e+21
16.5988  5.97415e+21
16.7161  5.88147e+21
16.8334  5.80075e+21
16.9507  5.72849e+21
17.068  5.66166e+21
17.1853  5.59675e+21
17.3026  5.53045e+21
17.4199  5.46049e+21
17.5372  5.38508e+21
17.6545  5.30301e+21
17.7718  5.21545e+21
17.8891  5.12283e+21
18.0064  5.02765e+21
18.1237  4.93189e+21
18.241  4.83839e+21
18.3583  4.74958e+21
18.4756  4.66743e+21
18.5929  4.59352e+21
18.7102  4.52861e+21
18.8275  4.47248e+21
18.9449  4.42487e+21
19.0622  4.38461e+21
19.1795  4.34994e+21
19.2968  4.31962e+21
19.4141  4.29202e+21
19.5314  4.26598e+21
19.6487  4.24027e+21
19.766  4.21425e+21
19.8833  4.18813e+21
20.0006  4.16151e+21
20.1179  4.13503e+21
20.2352  4.10902e+21
20.3525  4.08368e+21
20.4698  4.05884e+21
20.5871  4.03357e+21
20.7044  4.00665e+21
20.8217  3.9761e+21
20.939  3.93974e+21
21.0563  3.89511e+21
21.1736  3.84008e+21
21.291  3.77307e+21
21.4083  3.69282e+21
21.5256  3.60009e+21
21.6429  3.49568e+21
21.7602  3.38213e+21
21.8775  3.26237e+21
21.9948  3.14016e+21
22.1121  3.01927e+21
22.2294  2.90349e+21
22.3467  2.79587e+21
22.464  2.69931e+21
22.5813  2.61511e+21
22.6986  2.54416e+21
22.8159  2.48574e+21
22.9332  2.43852e+21
23.0505  2.40019e+21
23.1678  2.3679e+21
23.2851  2.33833e+21
23.4024  2.30826e+21
23.5198  2.27501e+21
23.6371  2.23662e+21
23.7544  2.19192e+21
23.8717  2.14099e+21
23.989  2.08498e+21
24.1063  2.02605e+21
24.2236  1.96681e+21
24.3409  1.91009e+21
24.4582  1.85884e+21
24.5755  1.81524e+21
24.6928  1.781e+21
24.8101  1.75662e+21
24.9274  1.74203e+21
25.0447  1.73587e+21
25.162  1.73635e+21
25.2793  1.74091e+21
25.3966  1.7467e+21
25.5139  1.75076e+21
25.6312  1.7504e+21
25.7485  1.74335e+21
25.8658  1.72806e+21
25.9832  1.70381e+21
26.1005  1.67058e+21
26.2178  1.62939e+21
26.3351  1.58183e+21
26.4524  1.52996e+21
26.5697  1.47603e+21
26.687  1.42229e+21
26.8043  1.3704e+21
26.9216  1.32181e+21
27.0389  1.27746e+21
27.1562  1.23776e+21
27.2735  1.20253e+21
27.3908  1.17174e+21
27.5081  1.14494e+21
27.6254  1.1217e+21
27.7427  1.10179e+21
27.86  1.08493e+21
27.9773  1.071e+21
28.0946  1.05998e+21
28.212  1.05211e+21
28.3293  1.04755e+21
28.4466  1.04654e+21
28.5639  1.04933e+21
28.6812  1.05586e+21
28.7985  1.06605e+21
28.9158  1.0792e+21
29.0331  1.09428e+21
29.1504  1.11002e+21
29.2677  1.12474e+21
29.385  1.13673e+21
29.5023  1.14438e+21
29.6196  1.14636e+21
29.7369  1.14196e+21
29.8542  1.13082e+21
29.9715  1.11324e+21
30.0888  1.08986e+21
30.2061  1.06155e+21
30.3234  1.02943e+21
30.4407  9.94417e+20
30.558  9.57407e+20
30.6754  9.19109e+20
30.7927  8.801e+20
30.91  8.40936e+20
31.0273  8.01971e+20
31.1446  7.63543e+20
31.2619  7.26246e+20
31.3792  6.90379e+20
31.4965  6.56498e+20
31.6138  6.25303e+20
31.7311  5.97337e+20
31.8484  5.73465e+20
31.9657  5.54393e+20
32.083  5.40916e+20
32.2003  5.33512e+20
32.3176  5.32327e+20
32.4349  5.37229e+20
32.5522  5.47324e+20
32.6695  5.61435e+20
32.7868  5.78052e+20
32.9042  5.95292e+20
33.0215  6.11464e+20
33.1388  6.25149e+20
33.2561  6.3529e+20
33.3734  6.41475e+20
33.4907  6.43743e+20
33.608  6.42755e+20
33.7253  6.39248e+20
33.8426  6.34317e+20
33.9599  6.29255e+20
34.0772  6.25048e+20
34.1945  6.22796e+20
34.3118  6.2318e+20
34.4291  6.26876e+20
34.5464  6.33845e+20
34.6637  6.43579e+20
34.781  6.55206e+20
34.8983  6.67118e+20
35.0156  6.7752e+20
35.1329  6.84462e+20
35.2503  6.85905e+20
35.3676  6.80676e+20
35.4849  6.68014e+20
35.6022  6.48653e+20
35.7195  6.23819e+20
35.8368  5.95767e+20
35.9541  5.66997e+20
36.0714  5.40064e+20
36.1887  5.17368e+20
36.306  5.0035e+20
36.4233  4.89567e+20
36.5406  4.85037e+20
36.6579  4.85905e+20
36.7752  4.90728e+20
36.8925  4.9786e+20
37.0098  5.05842e+20
37.1271  5.12983e+20
37.2444  5.1824e+20
37.3617  5.20519e+20
37.479  5.19413e+20
37.5964  5.14796e+20
37.7137  5.06822e+20
37.831  4.96446e+20
37.9483  4.84532e+20
38.0656  4.72864e+20
38.1829  4.62911e+20
38.3002  4.56239e+20
38.4175  4.54102e+20
38.5348  4.57035e+20
38.6521  4.64957e+20
38.7694  4.76853e+20
38.8867  4.91085e+20
39.004  5.05722e+20
39.1213  5.18538e+20
39.2386  5.27662e+20
39.3559  5.31619e+20
39.4732  5.29818e+20
39.5905  5.22297e+20
39.7078  5.09943e+20
39.8251  4.94099e+20
39.9425  4.76395e+20
40.0598  4.58764e+20
40.1771  4.42455e+20
40.2944  4.28899e+20
40.4117  4.18841e+20
40.529  4.12597e+20
40.6463  4.09882e+20
40.7636  4.10201e+20
40.8809  4.1259e+20
40.9982  4.15833e+20
41.1155  4.18807e+20
41.2328  4.2043e+20
41.3501  4.19856e+20
41.4674  4.16522e+20
41.5847  4.10417e+20
41.702  4.01931e+20
41.8193  3.91583e+20
41.9366  3.80489e+20
42.0539  3.69468e+20
42.1712  3.59379e+20
42.2885  3.50903e+20
42.4059  3.44388e+20
42.5232  3.39814e+20
42.6405  3.36818e+20
42.7578  3.34854e+20
42.8751  3.33225e+20
42.9924  3.31108e+20
43.1097  3.27875e+20
43.227  3.22835e+20
43.3443  3.15618e+20
43.4616  3.06096e+20
43.5789  2.94432e+20
43.6962  2.81223e+20
43.8135  2.67363e+20
43.9308  2.54152e+20
44.0481  2.43021e+20
44.1654  2.35481e+20
44.2827  2.32737e+20
44.4  2.3557e+20
44.5173  2.44111e+20
44.6347  2.57838e+20
44.752  2.75449e+20
44.8693  2.95094e+20
44.9866  3.1451e+20
45.1039  3.31585e+20
45.2212  3.44406e+20
45.3385  3.51567e+20
45.4558  3.52532e+20
45.5731  3.47273e+20
45.6904  3.36576e+20
45.8077  3.21681e+20
45.925  3.03999e+20
46.0423  2.85081e+20
46.1596  2.66344e+20
46.2769  2.48988e+20
46.3942  2.34018e+20
46.5115  2.22145e+20
46.6288  2.1386e+20
46.7461  2.09362e+20
46.8634  2.08653e+20
46.9808  2.11501e+20
47.0981  2.17508e+20
47.2154  2.25993e+20
47.3327  2.36255e+20
47.45  2.47306e+20
47.5673  2.58451e+20
47.6846  2.68838e+20
47.8019  2.77975e+20
47.9192  2.85392e+20
48.0365  2.9081e+20
48.1538  2.94221e+20
48.2711  2.95516e+20
48.3884  2.94795e+20
48.5057  2.92089e+20
48.623  2.87519e+20
48.7403  2.8124e+20
48.8576  2.73463e+20
48.9749  2.64507e+20
49.0922  2.54622e+20
49.2095  2.44199e+20
49.3269  2.33618e+20
49.4442  2.23135e+20
49.5615  2.13022e+20
49.6788  2.03409e+20
49.7961  1.94386e+20
49.9134  1.85962e+20
50.0307  1.78162e+20
50.148  1.70989e+20
50.2653  1.64348e+20
50.3826  1.58243e+20
50.4999  1.52663e+20
50.6172  1.47593e+20
50.7345  1.43006e+20
