#S 1 spectral density
#N 2
#UFWHM 31.555
#L  abscissas [um]  spectral density
-58.5938  2.62312e+20
-58.4764  2.70897e+20
-58.3591  2.78759e+20
-58.2418  2.84464e+20
-58.1245  2.86813e+20
-58.0072  2.84998e+20
-57.8899  2.78769e+20
-57.7726  2.68413e+20
-57.6553  2.54661e+20
-57.538  2.38569e+20
-57.4207  2.21337e+20
-57.3034  2.04174e+20
-57.1861  1.88173e+20
-57.0688  1.74363e+20
-56.9515  1.6356e+20
-56.8342  1.56441e+20
-56.7169  1.53435e+20
-56.5996  1.547e+20
-56.4823  1.6003e+20
-56.365  1.68808e+20
-56.2477  1.80084e+20
-56.1303  1.92642e+20
-56.013  2.0503e+20
-55.8957  2.16027e+20
-55.7784  2.2448e+20
-55.6611  2.29827e+20
-55.5438  2.3186e+20
-55.4265  2.30721e+20
-55.3092  2.26985e+20
-55.1919  2.21457e+20
-55.0746  2.14966e+20
-54.9573  2.08333e+20
-54.84  2.0227e+20
-54.7227  1.97578e+20
-54.6054  1.94819e+20
-54.4881  1.9453e+20
-54.3708  1.9713e+20
-54.2535  2.0284e+20
-54.1362  2.11616e+20
-54.0189  2.23045e+20
-53.9016  2.3647e+20
-53.7842  2.50778e+20
-53.6669  2.65026e+20
-53.5496  2.78165e+20
-53.4323  2.89399e+20
-53.315  2.98437e+20
-53.1977  3.05364e+20
-53.0804  3.10603e+20
-52.9631  3.14848e+20
-52.8458  3.18932e+20
-52.7285  3.23318e+20
-52.6112  3.28322e+20
-52.4939  3.33808e+20
-52.3766  3.39496e+20
-52.2593  3.44734e+20
-52.142  3.48958e+20
-52.0247  3.51893e+20
-51.9074  3.53366e+20
-51.7901  3.53665e+20
-51.6728  3.53389e+20
-51.5555  3.53381e+20
-51.4381  3.5462e+20
-51.3208  3.57962e+20
-51.2035  3.64373e+20
-51.0862  3.74376e+20
-50.9689  3.88301e+20
-50.8516  4.05979e+20
-50.7343  4.26842e+20
-50.617  4.49873e+20
-50.4997  4.73736e+20
-50.3824  4.96638e+20
-50.2651  5.16816e+20
-50.1478  5.32462e+20
-50.0305  5.42227e+20
-49.9132  5.45043e+20
-49.7959  5.40696e+20
-49.6786  5.29499e+20
-49.5613  5.12541e+20
-49.444  4.91486e+20
-49.3267  4.6826e+20
-49.2094  4.44611e+20
-49.092  4.22392e+20
-48.9747  4.02795e+20
-48.8574  3.86753e+20
-48.7401  3.74344e+20
-48.6228  3.65304e+20
-48.5055  3.58978e+20
-48.3882  3.54188e+20
-48.2709  3.49998e+20
-48.1536  3.45479e+20
-48.0363  3.39898e+20
-47.919  3.33043e+20
-47.8017  3.25172e+20
-47.6844  3.17013e+20
-47.5671  3.09671e+20
-47.4498  3.04521e+20
-47.3325  3.02936e+20
-47.2152  3.06111e+20
-47.0979  3.14843e+20
-46.9806  3.29423e+20
-46.8633  3.49563e+20
-46.7459  3.74107e+20
-46.6286  4.01837e+20
-46.5113  4.30869e+20
-46.394  4.59596e+20
-46.2767  4.86153e+20
-46.1594  5.09087e+20
-46.0421  5.27375e+20
-45.9248  5.4025e+20
-45.8075  5.47378e+20
-45.6902  5.48832e+20
-45.5729  5.44883e+20
-45.4556  5.36488e+20
-45.3383  5.24581e+20
-45.221  5.10662e+20
-45.1037  4.96168e+20
-44.9864  4.82666e+20
-44.8691  4.71669e+20
-44.7518  4.64415e+20
-44.6345  4.61464e+20
-44.5172  4.6274e+20
-44.3998  4.67766e+20
-44.2825  4.75162e+20
-44.1652  4.83523e+20
-44.0479  4.9118e+20
-43.9306  4.96803e+20
-43.8133  4.99463e+20
-43.696  4.99016e+20
-43.5787  4.95878e+20
-43.4614  4.91076e+20
-43.3441  4.86131e+20
-43.2268  4.82544e+20
-43.1095  4.81793e+20
-42.9922  4.8489e+20
-42.8749  4.92392e+20
-42.7576  5.04178e+20
-42.6403  5.19456e+20
-42.523  5.37105e+20
-42.4057  5.55378e+20
-42.2884  5.72698e+20
-42.171  5.8739e+20
-42.0537  5.97914e+20
-41.9364  6.03498e+20
-41.8191  6.03448e+20
-41.7018  5.98163e+20
-41.5845  5.88206e+20
-41.4672  5.74903e+20
-41.3499  5.5979e+20
-41.2326  5.44563e+20
-41.1153  5.30699e+20
-40.998  5.19336e+20
-40.8807  5.11052e+20
-40.7634  5.06094e+20
-40.6461  5.03793e+20
-40.5288  5.03477e+20
-40.4115  5.03808e+20
-40.2942  5.0387e+20
-40.1769  5.02483e+20
-40.0596  4.98982e+20
-39.9423  4.93043e+20
-39.825  4.84733e+20
-39.7076  4.74561e+20
-39.5903  4.63217e+20
-39.473  4.51674e+20
-39.3557  4.41196e+20
-39.2384  4.32971e+20
-39.1211  4.28191e+20
-39.0038  4.28003e+20
-38.8865  4.33024e+20
-38.7692  4.4347e+20
-38.6519  4.59014e+20
-38.5346  4.78795e+20
-38.4173  5.01239e+20
-38.3  5.24502e+20
-38.1827  5.46555e+20
-38.0654  5.65611e+20
-37.9481  5.80169e+20
-37.8308  5.89582e+20
-37.7135  5.93648e+20
-37.5962  5.93089e+20
-37.4789  5.88987e+20
-37.3615  5.8298e+20
-37.2442  5.76554e+20
-37.1269  5.71128e+20
-37.0096  5.67944e+20
-36.8923  5.67884e+20
-36.775  5.71551e+20
-36.6577  5.79222e+20
-36.5404  5.90921e+20
-36.4231  6.06466e+20
-36.3058  6.25153e+20
-36.1885  6.46226e+20
-36.0712  6.68358e+20
-35.9539  6.90189e+20
-35.8366  7.10082e+20
-35.7193  7.26694e+20
-35.602  7.39309e+20
-35.4847  7.47361e+20
-35.3674  7.51325e+20
-35.2501  7.52342e+20
-35.1328  7.52068e+20
-35.0154  7.52308e+20
-34.8981  7.54671e+20
-34.7808  7.60355e+20
-34.6635  7.69913e+20
-34.5462  7.83032e+20
-34.4289  7.98834e+20
-34.3116  8.16009e+20
-34.1943  8.33084e+20
-34.077  8.48752e+20
-33.9597  8.62053e+20
-33.8424  8.72648e+20
-33.7251  8.80701e+20
-33.6078  8.86826e+20
-33.4905  8.91926e+20
-33.3732  8.97106e+20
-33.2559  9.03574e+20
-33.1386  9.12323e+20
-33.0213  9.24239e+20
-32.904  9.39715e+20
-32.7867  9.59e+20
-32.6693  9.81945e+20
-32.552  1.00789e+21
-32.4347  1.0359e+21
-32.3174  1.06491e+21
-32.2001  1.09366e+21
-32.0828  1.1211e+21
-31.9655  1.14629e+21
-31.8482  1.16871e+21
-31.7309  1.18834e+21
-31.6136  1.20548e+21
-31.4963  1.22069e+21
-31.379  1.23457e+21
-31.2617  1.24804e+21
-31.1444  1.2614e+21
-31.0271  1.27499e+21
-30.9098  1.28905e+21
-30.7925  1.30332e+21
-30.6752  1.3176e+21
-30.5579  1.33177e+21
-30.4406  1.34558e+21
-30.3232  1.35902e+21
-30.2059  1.37181e+21
-30.0886  1.38411e+21
-29.9713  1.39593e+21
-29.854  1.40744e+21
-29.7367  1.41876e+21
-29.6194  1.43026e+21
-29.5021  1.44232e+21
-29.3848  1.45552e+21
-29.2675  1.47029e+21
-29.1502  1.48704e+21
-29.0329  1.50596e+21
-28.9156  1.52709e+21
-28.7983  1.54988e+21
-28.681  1.57383e+21
-28.5637  1.5983e+21
-28.4464  1.62246e+21
-28.3291  1.64575e+21
-28.2118  1.66792e+21
-28.0944  1.68904e+21
-27.9771  1.70953e+21
-27.8598  1.73016e+21
-27.7425  1.75183e+21
-27.6252  1.77584e+21
-27.5079  1.80335e+21
-27.3906  1.83554e+21
-27.2733  1.87347e+21
-27.156  1.91788e+21
-27.0387  1.9692e+21
-26.9214  2.02748e+21
-26.8041  2.09174e+21
-26.6868  2.16097e+21
-26.5695  2.23317e+21
-26.4522  2.30592e+21
-26.3349  2.37659e+21
-26.2176  2.44268e+21
-26.1003  2.50167e+21
-25.983  2.55211e+21
-25.8657  2.5932e+21
-25.7483  2.62514e+21
-25.631  2.64947e+21
-25.5137  2.6679e+21
-25.3964  2.68344e+21
-25.2791  2.69891e+21
-25.1618  2.71744e+21
-25.0445  2.7413e+21
-24.9272  2.77256e+21
-24.8099  2.81187e+21
-24.6926  2.85937e+21
-24.5753  2.91374e+21
-24.458  2.97299e+21
-24.3407  3.03408e+21
-24.2234  3.09382e+21
-24.1061  3.14851e+21
-23.9888  3.19501e+21
-23.8715  3.23083e+21
-23.7542  3.2544e+21
-23.6369  3.26535e+21
-23.5196  3.26456e+21
-23.4023  3.25449e+21
-23.2849  3.23827e+21
-23.1676  3.21986e+21
-23.0503  3.20353e+21
-22.933  3.19365e+21
-22.8157  3.1941e+21
-22.6984  3.20819e+21
-22.5811  3.23829e+21
-22.4638  3.28594e+21
-22.3465  3.35119e+21
-22.2292  3.43339e+21
-22.1119  3.53057e+21
-21.9946  3.6403e+21
-21.8773  3.759e+21
-21.76  3.88309e+21
-21.6427  4.0089e+21
-21.5254  4.13333e+21
-21.4081  4.2534e+21
-21.2908  4.36759e+21
-21.1735  4.47519e+21
-21.0561  4.57656e+21
-20.9388  4.67337e+21
-20.8215  4.76717e+21
-20.7042  4.86039e+21
-20.5869  4.95494e+21
-20.4696  5.05266e+21
-20.3523  5.15403e+21
-20.235  5.25936e+21
-20.1177  5.36731e+21
-20.0004  5.47629e+21
-19.8831  5.58428e+21
-19.7658  5.6885e+21
-19.6485  5.78636e+21
-19.5312  5.87611e+21
-19.4139  5.95568e+21
-19.2966  6.02442e+21
-19.1793  6.08225e+21
-19.062  6.13013e+21
-18.9447  6.16931e+21
-18.8274  6.20144e+21
-18.71  6.22928e+21
-18.5927  6.25468e+21
-18.4754  6.27941e+21
-18.3581  6.3049e+21
-18.2408  6.33147e+21
-18.1235  6.35926e+21
-18.0062  6.3873e+21
-17.8889  6.41431e+21
-17.7716  6.4394e+21
-17.6543  6.46055e+21
-17.537  6.47737e+21
-17.4197  6.48937e+21
-17.3024  6.49733e+21
-17.1851  6.50258e+21
-17.0678  6.50727e+21
-16.9505  6.51453e+21
-16.8332  6.52797e+21
-16.7159  6.5511e+21
-16.5986  6.58729e+21
-16.4813  6.63957e+21
-16.364  6.71047e+21
-16.2466  6.80135e+21
-16.1293  6.91242e+21
-16.012  7.04215e+21
-15.8947  7.18812e+21
-15.7774  7.34658e+21
-15.6601  7.51253e+21
-15.5428  7.68065e+21
-15.4255  7.84477e+21
-15.3082  7.99961e+21
-15.1909  8.14141e+21
-15.0736  8.26601e+21
-14.9563  8.3719e+21
-14.839  8.45947e+21
-14.7217  8.52985e+21
-14.6044  8.58596e+21
-14.4871  8.63191e+21
-14.3698  8.67232e+21
-14.2525  8.71143e+21
-14.1352  8.75303e+21
-14.0178  8.80115e+21
-13.9005  8.85766e+21
-13.7832  8.92324e+21
-13.6659  8.99804e+21
-13.5486  9.07967e+21
-13.4313  9.16589e+21
-13.314  9.25283e+21
-13.1967  9.33647e+21
-13.0794  9.41342e+21
-12.9621  9.47961e+21
-12.8448  9.53326e+21
-12.7275  9.57301e+21
-12.6102  9.59978e+21
-12.4929  9.61548e+21
-12.3756  9.62304e+21
-12.2583  9.62736e+21
-12.141  9.63352e+21
-12.0237  9.64614e+21
-11.9064  9.66945e+21
-11.7891  9.70678e+21
-11.6718  9.76038e+21
-11.5544  9.83092e+21
-11.4371  9.91847e+21
-11.3198  1.00203e+22
-11.2025  1.01342e+22
-11.0852  1.02564e+22
-10.9679  1.03829e+22
-10.8506  1.05093e+22
-10.7333  1.06311e+22
-10.616  1.07444e+22
-10.4987  1.0847e+22
-10.3814  1.09353e+22
-10.2641  1.1009e+22
-10.1468  1.10678e+22
-10.0295  1.11135e+22
-9.91217  1.1148e+22
-9.79487  1.11754e+22
-9.67756  1.11994e+22
-9.56026  1.12246e+22
-9.44295  1.1255e+22
-9.32565  1.12955e+22
-9.20834  1.13488e+22
-9.09104  1.14176e+22
-8.97373  1.15043e+22
-8.85643  1.16086e+22
-8.73913  1.17302e+22
-8.62182  1.18674e+22
-8.50452  1.20172e+22
-8.38721  1.21763e+22
-8.26991  1.23393e+22
-8.1526  1.25022e+22
-8.03529  1.26591e+22
-7.91799  1.28052e+22
-7.80069  1.29357e+22
-7.68338  1.30458e+22
-7.56608  1.31329e+22
-7.44877  1.31949e+22
-7.33146  1.32307e+22
-7.21416  1.32404e+22
-7.09685  1.32254e+22
-6.97955  1.31882e+22
-6.86224  1.31325e+22
-6.74494  1.3064e+22
-6.62763  1.29868e+22
-6.51033  1.29074e+22
-6.39302  1.28315e+22
-6.27572  1.27647e+22
-6.15842  1.2712e+22
-6.04111  1.26774e+22
-5.92381  1.26636e+22
-5.8065  1.2673e+22
-5.68919  1.27049e+22
-5.57189  1.27588e+22
-5.45458  1.2832e+22
-5.33728  1.29219e+22
-5.21997  1.30236e+22
-5.10267  1.31331e+22
-4.98536  1.32452e+22
-4.86806  1.33559e+22
-4.75075  1.34608e+22
-4.63345  1.35575e+22
-4.51614  1.36438e+22
-4.39884  1.37194e+22
-4.28154  1.37857e+22
-4.16423  1.38438e+22
-4.04692  1.38969e+22
-3.92962  1.39475e+22
-3.81231  1.3999e+22
-3.69501  1.40536e+22
-3.5777  1.41122e+22
-3.4604  1.41759e+22
-3.34309  1.42429e+22
-3.22579  1.43114e+22
-3.10849  1.43776e+22
-2.99118  1.44378e+22
-2.87387  1.4488e+22
-2.75657  1.45239e+22
-2.63926  1.45428e+22
-2.52196  1.45421e+22
-2.40465  1.4521e+22
-2.28735  1.44797e+22
-2.17005  1.44206e+22
-2.05274  1.4348e+22
-1.93544  1.42656e+22
-1.81813  1.41801e+22
-1.70083  1.40973e+22
-1.58352  1.40239e+22
-1.46622  1.39652e+22
-1.34891  1.39265e+22
-1.2316  1.39107e+22
-1.1143  1.39196e+22
-0.996995  1.3952e+22
-0.87969  1.40061e+22
-0.762385  1.40764e+22
-0.64508  1.41576e+22
-0.527775  1.42417e+22
-0.41047  1.43211e+22
-0.293165  1.43884e+22
-0.17586  1.44368e+22
-0.058555  1.44621e+22
0.05875  1.44615e+22
0.176055  1.44349e+22
0.29336  1.4385e+22
0.410665  1.43168e+22
0.52797  1.42364e+22
0.645275  1.41516e+22
0.76258  1.40697e+22
0.879885  1.39987e+22
0.99719  1.39443e+22
1.1145  1.39112e+22
1.2318  1.39022e+22
1.3491  1.39177e+22
1.46641  1.39562e+22
1.58371  1.40141e+22
1.70102  1.4087e+22
1.81832  1.41691e+22
1.93563  1.42536e+22
2.05294  1.43349e+22
2.17024  1.4407e+22
2.28754  1.44647e+22
2.40485  1.45048e+22
2.52216  1.45247e+22
2.63946  1.45245e+22
2.75677  1.45045e+22
2.87407  1.44674e+22
2.99137  1.44161e+22
3.10868  1.43548e+22
3.22599  1.42877e+22
3.34329  1.42188e+22
3.4606  1.41513e+22
3.5779  1.40872e+22
3.69521  1.40276e+22
3.81251  1.39727e+22
3.92982  1.39204e+22
4.04712  1.38691e+22
4.16443  1.38157e+22
4.28173  1.37569e+22
4.39903  1.36901e+22
4.51634  1.36136e+22
4.63364  1.35267e+22
4.75095  1.34295e+22
4.86825  1.33239e+22
4.98556  1.32128e+22
5.10286  1.31001e+22
5.22017  1.29906e+22
5.33748  1.28886e+22
5.45478  1.27987e+22
5.57209  1.27255e+22
5.68939  1.26715e+22
5.8067  1.26396e+22
5.924  1.26304e+22
6.0413  1.26441e+22
6.15861  1.26785e+22
6.27591  1.27308e+22
6.39322  1.27972e+22
6.51052  1.28727e+22
6.62783  1.2951e+22
6.74514  1.30271e+22
6.86244  1.30948e+22
6.97975  1.31488e+22
7.09705  1.31847e+22
7.21436  1.31982e+22
7.33166  1.31871e+22
7.44897  1.31498e+22
7.56627  1.30864e+22
7.68358  1.29977e+22
7.80088  1.28861e+22
7.91819  1.27548e+22
8.03549  1.2608e+22
8.1528  1.24508e+22
8.2701  1.22877e+22
8.38741  1.21242e+22
8.50471  1.19656e+22
8.62202  1.18157e+22
8.73932  1.16789e+22
8.85662  1.15578e+22
8.97393  1.14539e+22
9.09123  1.13676e+22
9.20854  1.12988e+22
9.32584  1.12458e+22
9.44315  1.12053e+22
9.56045  1.11742e+22
9.67776  1.11486e+22
9.79506  1.11236e+22
9.91237  1.10955e+22
10.0297  1.10598e+22
10.147  1.10132e+22
10.2643  1.09534e+22
10.3816  1.08786e+22
10.4989  1.07895e+22
10.6162  1.06865e+22
10.7335  1.05725e+22
10.8508  1.04502e+22
10.9681  1.03239e+22
11.0854  1.01979e+22
11.2027  1.00763e+22
11.32  9.96286e+21
11.4373  9.86152e+21
11.5546  9.77494e+21
11.6719  9.70495e+21
11.7893  9.65224e+21
11.9066  9.61542e+21
12.0239  9.59237e+21
12.1412  9.58018e+21
12.2585  9.57411e+21
12.3758  9.56922e+21
12.4931  9.561e+21
12.6104  9.54468e+21
12.7277  9.51734e+21
12.845  9.47692e+21
12.9623  9.42228e+21
13.0796  9.35539e+21
13.1969  9.2781e+21
13.3142  9.19391e+21
13.4315  9.10669e+21
13.5488  9.02047e+21
13.6661  8.93887e+21
13.7834  8.86433e+21
13.9007  8.7989e+21
14.018  8.74316e+21
14.1354  8.6952e+21
14.2527  8.65361e+21
14.37  8.61485e+21
14.4873  8.57446e+21
14.6046  8.52841e+21
14.7219  8.47194e+21
14.8392  8.40151e+21
14.9565  8.31391e+21
15.0738  8.20734e+21
15.1911  8.08264e+21
15.3084  7.94069e+21
15.4257  7.78541e+21
15.543  7.62094e+21
15.6603  7.45307e+21
15.7776  7.2875e+21
15.8949  7.12942e+21
16.0122  6.98368e+21
16.1295  6.85423e+21
16.2468  6.74361e+21
16.3641  6.65311e+21
16.4815  6.5827e+21
16.5988  6.53065e+21
16.7161  6.49452e+21
16.8334  6.47189e+21
16.9507  6.45858e+21
17.068  6.45123e+21
17.1853  6.44642e+21
17.3026  6.44099e+21
17.4199  6.43296e+21
17.5372  6.42104e+21
17.6545  6.40386e+21
17.7718  6.38266e+21
17.8891  6.35779e+21
18.0064  6.33073e+21
18.1237  6.30271e+21
18.241  6.27518e+21
18.3583  6.24877e+21
18.4756  6.2235e+21
18.5929  6.199e+21
18.7102  6.17406e+21
18.8275  6.14629e+21
18.9449  6.11432e+21
19.0622  6.0755e+21
19.1795  6.02784e+21
19.2968  5.97017e+21
19.4141  5.90156e+21
19.5314  5.82235e+21
19.6487  5.73307e+21
19.766  5.63533e+21
19.8833  5.53165e+21
20.0006  5.42403e+21
20.1179  5.31527e+21
20.2352  5.20756e+21
20.3525  5.10265e+21
20.4698  5.00163e+21
20.5871  4.9043e+21
20.7044  4.80994e+21
20.8217  4.71683e+21
20.939  4.62309e+21
21.0563  4.52655e+21
21.1736  4.42533e+21
21.291  4.31805e+21
21.4083  4.20409e+21
21.5256  4.08467e+21
21.6429  3.96099e+21
21.7602  3.83595e+21
21.8775  3.7128e+21
21.9948  3.59508e+21
22.1121  3.4866e+21
22.2294  3.39065e+21
22.3467  3.30953e+21
22.464  3.24549e+21
22.5813  3.19893e+21
22.6986  3.16982e+21
22.8159  3.15642e+21
22.9332  3.15659e+21
23.0505  3.16696e+21
23.1678  3.18356e+21
23.2851  3.20215e+21
23.4024  3.21844e+21
23.5198  3.22845e+21
23.6371  3.22906e+21
23.7544  3.21808e+21
23.8717  3.19443e+21
23.989  3.15861e+21
24.1063  3.11224e+21
24.2236  3.05783e+21
24.3409  2.99846e+21
24.4582  2.93778e+21
24.5755  2.87917e+21
24.6928  2.82526e+21
24.8101  2.77834e+21
24.9274  2.73948e+21
25.0447  2.70865e+21
25.162  2.68521e+21
25.2793  2.66704e+21
25.3966  2.65177e+21
25.5139  2.63628e+21
25.6312  2.61773e+21
25.7485  2.59349e+21
25.8658  2.56142e+21
25.9832  2.52041e+21
26.1005  2.46989e+21
26.2178  2.41105e+21
26.3351  2.34531e+21
26.4524  2.27498e+21
26.5697  2.20274e+21
26.687  2.13116e+21
26.8043  2.06264e+21
26.9216  1.99903e+21
27.0389  1.9416e+21
27.1562  1.89106e+21
27.2735  1.84729e+21
27.3908  1.81012e+21
27.5081  1.77855e+21
27.6254  1.75159e+21
27.7427  1.72806e+21
27.86  1.70679e+21
27.9773  1.6866e+21
28.0946  1.6664e+21
28.212  1.64559e+21
28.3293  1.62367e+21
28.4466  1.60064e+21
28.5639  1.57673e+21
28.6812  1.55254e+21
28.7985  1.52886e+21
28.9158  1.50632e+21
29.0331  1.48558e+21
29.1504  1.46694e+21
29.2677  1.45055e+21
29.385  1.43609e+21
29.5023  1.42323e+21
29.6196  1.41144e+21
29.7369  1.40028e+21
29.8542  1.38931e+21
29.9715  1.37814e+21
30.0888  1.36671e+21
30.2061  1.3547e+21
30.3234  1.34214e+21
30.4407  1.32905e+21
30.558  1.3155e+21
30.6754  1.3016e+21
30.7927  1.28744e+21
30.91  1.27343e+21
31.0273  1.25964e+21
31.1446  1.24613e+21
31.2619  1.23294e+21
31.3792  1.21973e+21
31.4965  1.20587e+21
31.6138  1.19087e+21
31.7311  1.17387e+21
31.8484  1.15443e+21
31.9657  1.13213e+21
32.083  1.10725e+21
32.2003  1.08013e+21
32.3176  1.05167e+21
32.4349  1.02308e+21
32.5522  9.95448e+20
32.6695  9.69986e+20
32.7868  9.47522e+20
32.9042  9.28639e+20
33.0215  9.13579e+20
33.1388  9.02081e+20
33.2561  8.93696e+20
33.3734  8.87468e+20
33.4907  8.82437e+20
33.608  8.77542e+20
33.7253  8.7155e+20
33.8426  8.63577e+20
33.9599  8.53045e+20
34.0772  8.39812e+20
34.1945  8.24326e+20
34.3118  8.07459e+20
34.4291  7.90586e+20
34.5464  7.7509e+20
34.6637  7.62291e+20
34.781  7.53171e+20
34.8983  7.47842e+20
35.0156  7.45812e+20
35.1329  7.45899e+20
35.2503  7.46382e+20
35.3676  7.45434e+20
35.4849  7.41447e+20
35.6022  7.33458e+20
35.7195  7.20919e+20
35.8368  7.0422e+20
35.9541  6.84418e+20
36.0714  6.62663e+20
36.1887  6.40658e+20
36.306  6.19885e+20
36.4233  6.01328e+20
36.5406  5.86107e+20
36.6579  5.74664e+20
36.7752  5.67323e+20
36.8925  5.6389e+20
37.0098  5.64182e+20
37.1271  5.67603e+20
37.2444  5.73139e+20
37.3617  5.79648e+20
37.479  5.85727e+20
37.5964  5.89733e+20
37.7137  5.90219e+20
37.831  5.86004e+20
37.9483  5.76496e+20
38.0656  5.61784e+20
38.1829  5.42652e+20
38.3002  5.20667e+20
38.4175  4.97431e+20
38.5348  4.75148e+20
38.6521  4.5564e+20
38.7694  4.40294e+20
38.8867  4.30158e+20
39.004  4.25447e+20
39.1213  4.25991e+20
39.2386  4.31012e+20
39.3559  4.3944e+20
39.4732  4.50121e+20
39.5905  4.61711e+20
39.7078  4.7312e+20
39.8251  4.8344e+20
39.9425  4.9171e+20
40.0598  4.97685e+20
40.1771  5.01091e+20
40.2944  5.02516e+20
40.4117  5.02491e+20
40.529  5.02183e+20
40.6463  5.0268e+20
40.7636  5.04954e+20
40.8809  5.10121e+20
40.9982  5.18514e+20
41.1155  5.29968e+20
41.2328  5.43915e+20
41.3501  5.59178e+20
41.4674  5.7427e+20
41.5847  5.87463e+20
41.702  5.97335e+20
41.8193  6.02484e+20
41.9366  6.02312e+20
42.0539  5.96564e+20
42.1712  5.85803e+20
42.2885  5.71095e+20
42.4059  5.5363e+20
42.5232  5.3535e+20
42.6405  5.17689e+20
42.7578  5.02524e+20
42.8751  4.90891e+20
42.9924  4.83511e+20
43.1097  4.80518e+20
43.227  4.81401e+20
43.3443  4.85124e+20
43.4616  4.90127e+20
43.5789  4.94874e+20
43.6962  4.97969e+20
43.8135  4.9836e+20
43.9308  4.95678e+20
44.0481  4.90027e+20
44.1654  4.82354e+20
44.2827  4.73995e+20
44.4  4.66627e+20
44.5173  4.61713e+20
44.6347  4.60465e+20
44.752  4.63643e+20
44.8693  4.70937e+20
44.9866  4.81894e+20
45.1039  4.95362e+20
45.2212  5.09847e+20
45.3385  5.23668e+20
45.4558  5.35446e+20
45.5731  5.43753e+20
45.6904  5.47459e+20
45.8077  5.45884e+20
45.925  5.38602e+20
46.0423  5.25644e+20
46.1596  5.07224e+20
46.2769  4.84193e+20
46.3942  4.57681e+20
46.5115  4.28976e+20
46.6288  4.00015e+20
46.7461  3.724e+20
46.8634  3.47931e+20
46.9808  3.28058e+20
47.0981  3.13607e+20
47.2154  3.05056e+20
47.3327  3.01957e+20
47.45  3.03692e+20
47.5673  3.08902e+20
47.6846  3.16185e+20
47.8019  3.24336e+20
47.9192  3.32122e+20
48.0365  3.38907e+20
48.1538  3.44418e+20
48.2711  3.48895e+20
48.3884  3.53073e+20
48.5057  3.5779e+20
48.623  3.64286e+20
48.7403  3.73347e+20
48.8576  3.85851e+20
48.9749  4.02042e+20
49.0922  4.21677e+20
49.2095  4.43913e+20
49.3269  4.67518e+20
49.4442  4.90816e+20
49.5615  5.11712e+20
49.6788  5.2838e+20
49.7961  5.39397e+20
49.9134  5.43486e+20
50.0307  5.4037e+20
50.148  5.30447e+20
50.2653  5.1462e+20
50.3826  4.94301e+20
50.4999  4.71322e+20
50.6172  4.47483e+20
50.7345  4.24487e+20
50.8518  4.03679e+20
