#S 1 spectral density
#N 2
#UFWHM 29.5609
#L  abscissas [um]  spectral density
-58.5938  2.16237e+20
-58.4764  2.16402e+20
-58.3591  2.14421e+20
-58.2418  2.1022e+20
-58.1245  2.03993e+20
-58.0072  1.96165e+20
-57.8899  1.87368e+20
-57.7726  1.78298e+20
-57.6553  1.69632e+20
-57.538  1.6184e+20
-57.4207  1.55204e+20
-57.3034  1.49807e+20
-57.1861  1.4562e+20
-57.0688  1.42492e+20
-56.9515  1.40498e+20
-56.8342  1.39771e+20
-56.7169  1.40572e+20
-56.5996  1.43179e+20
-56.4823  1.47748e+20
-56.365  1.54153e+20
-56.2477  1.61983e+20
-56.1303  1.70602e+20
-56.013  1.79083e+20
-55.8957  1.86632e+20
-55.7784  1.92625e+20
-55.6611  1.96774e+20
-55.5438  1.99247e+20
-55.4265  2.00495e+20
-55.3092  2.01317e+20
-55.1919  2.02471e+20
-55.0746  2.0471e+20
-54.9573  2.08418e+20
-54.84  2.13631e+20
-54.7227  2.2028e+20
-54.6054  2.2781e+20
-54.4881  2.3566e+20
-54.3708  2.43142e+20
-54.2535  2.49706e+20
-54.1362  2.54748e+20
-54.0189  2.57799e+20
-53.9016  2.58519e+20
-53.7842  2.56612e+20
-53.6669  2.51991e+20
-53.5496  2.44814e+20
-53.4323  2.35395e+20
-53.315  2.24363e+20
-53.1977  2.12433e+20
-53.0804  2.00409e+20
-52.9631  1.89012e+20
-52.8458  1.78761e+20
-52.7285  1.69855e+20
-52.6112  1.62284e+20
-52.4939  1.55735e+20
-52.3766  1.49957e+20
-52.2593  1.44679e+20
-52.142  1.39902e+20
-52.0247  1.35954e+20
-51.9074  1.33345e+20
-51.7901  1.32852e+20
-51.6728  1.35188e+20
-51.5555  1.40906e+20
-51.4381  1.50398e+20
-51.3208  1.63484e+20
-51.2035  1.79838e+20
-51.0862  1.98671e+20
-50.9689  2.19215e+20
-50.8516  2.40536e+20
-50.7343  2.61769e+20
-50.617  2.82175e+20
-50.4997  3.0129e+20
-50.3824  3.18509e+20
-50.2651  3.3358e+20
-50.1478  3.46046e+20
-50.0305  3.55707e+20
-49.9132  3.62244e+20
-49.7959  3.65509e+20
-49.6786  3.65386e+20
-49.5613  3.61862e+20
-49.444  3.55156e+20
-49.3267  3.45476e+20
-49.2094  3.3322e+20
-49.092  3.18849e+20
-48.9747  3.02951e+20
-48.8574  2.86118e+20
-48.7401  2.68907e+20
-48.6228  2.52e+20
-48.5055  2.35993e+20
-48.3882  2.21372e+20
-48.2709  2.08655e+20
-48.1536  1.98318e+20
-48.0363  1.90716e+20
-47.919  1.86266e+20
-47.8017  1.85333e+20
-47.6844  1.88352e+20
-47.5671  1.95635e+20
-47.4498  2.07365e+20
-47.3325  2.23612e+20
-47.2152  2.43892e+20
-47.0979  2.67471e+20
-46.9806  2.93039e+20
-46.8633  3.18917e+20
-46.7459  3.4316e+20
-46.6286  3.63789e+20
-46.5113  3.79218e+20
-46.394  3.88298e+20
-46.2767  3.90681e+20
-46.1594  3.86825e+20
-46.0421  3.77975e+20
-45.9248  3.66074e+20
-45.8075  3.53369e+20
-45.6902  3.42203e+20
-45.5729  3.34635e+20
-45.4556  3.32223e+20
-45.3383  3.35911e+20
-45.221  3.45812e+20
-45.1037  3.61321e+20
-44.9864  3.81088e+20
-44.8691  4.03368e+20
-44.7518  4.26122e+20
-44.6345  4.47211e+20
-44.5172  4.64495e+20
-44.3998  4.76408e+20
-44.2825  4.81822e+20
-44.1652  4.80581e+20
-44.0479  4.73037e+20
-43.9306  4.60555e+20
-43.8133  4.45042e+20
-43.696  4.28643e+20
-43.5787  4.13748e+20
-43.4614  4.02362e+20
-43.3441  3.95815e+20
-43.2268  3.94724e+20
-43.1095  3.98795e+20
-42.9922  4.07051e+20
-42.8749  4.17912e+20
-42.7576  4.29553e+20
-42.6403  4.40265e+20
-42.523  4.48723e+20
-42.4057  4.54095e+20
-42.2884  4.56388e+20
-42.171  4.56164e+20
-42.0537  4.54217e+20
-41.9364  4.51966e+20
-41.8191  4.50564e+20
-41.7018  4.51322e+20
-41.5845  4.54882e+20
-41.4672  4.61601e+20
-41.3499  4.71351e+20
-41.2326  4.83493e+20
-41.1153  4.96998e+20
-40.998  5.10536e+20
-40.8807  5.22522e+20
-40.7634  5.31714e+20
-40.6461  5.36778e+20
-40.5288  5.37124e+20
-40.4115  5.32214e+20
-40.2942  5.22401e+20
-40.1769  5.08439e+20
-40.0596  4.9167e+20
-39.9423  4.73565e+20
-39.825  4.55754e+20
-39.7076  4.39916e+20
-39.5903  4.27304e+20
-39.473  4.19071e+20
-39.3557  4.15866e+20
-39.2384  4.17967e+20
-39.1211  4.25263e+20
-39.0038  4.37344e+20
-38.8865  4.53313e+20
-38.7692  4.71999e+20
-38.6519  4.91973e+20
-38.5346  5.11654e+20
-38.4173  5.2947e+20
-38.3  5.44051e+20
-38.1827  5.54473e+20
-38.0654  5.6057e+20
-37.9481  5.62693e+20
-37.8308  5.6219e+20
-37.7135  5.60655e+20
-37.5962  5.60253e+20
-37.4789  5.62808e+20
-37.3615  5.69626e+20
-37.2442  5.8136e+20
-37.1269  5.97448e+20
-37.0096  6.16844e+20
-36.8923  6.37472e+20
-36.775  6.57207e+20
-36.6577  6.73946e+20
-36.5404  6.86167e+20
-36.4231  6.92969e+20
-36.3058  6.94161e+20
-36.1885  6.90637e+20
-36.0712  6.83571e+20
-35.9539  6.74612e+20
-35.8366  6.65485e+20
-35.7193  6.57725e+20
-35.602  6.52904e+20
-35.4847  6.51796e+20
-35.3674  6.5491e+20
-35.2501  6.62395e+20
-35.1328  6.73738e+20
-35.0154  6.88005e+20
-34.8981  7.03528e+20
-34.7808  7.18445e+20
-34.6635  7.3088e+20
-34.5462  7.38647e+20
-34.4289  7.402e+20
-34.3116  7.34662e+20
-34.1943  7.21836e+20
-34.077  7.0231e+20
-33.9597  6.77745e+20
-33.8424  6.5012e+20
-33.7251  6.21908e+20
-33.6078  5.95182e+20
-33.4905  5.71896e+20
-33.3732  5.53403e+20
-33.2559  5.40309e+20
-33.1386  5.32834e+20
-33.0213  5.30514e+20
-32.904  5.32638e+20
-32.7867  5.38326e+20
-32.6693  5.4674e+20
-32.552  5.57034e+20
-32.4347  5.68432e+20
-32.3174  5.80334e+20
-32.2001  5.92465e+20
-32.0828  6.04691e+20
-31.9655  6.17172e+20
-31.8482  6.30306e+20
-31.7309  6.44819e+20
-31.6136  6.61525e+20
-31.4963  6.81231e+20
-31.379  7.04572e+20
-31.2617  7.32082e+20
-31.1444  7.63667e+20
-31.0271  7.99023e+20
-30.9098  8.37622e+20
-30.7925  8.78342e+20
-30.6752  9.20165e+20
-30.5579  9.62151e+20
-30.4406  1.0033e+21
-30.3232  1.04291e+21
-30.2059  1.08033e+21
-30.0886  1.11532e+21
-29.9713  1.14781e+21
-29.854  1.17791e+21
-29.7367  1.2058e+21
-29.6194  1.23192e+21
-29.5021  1.25666e+21
-29.3848  1.28039e+21
-29.2675  1.30337e+21
-29.1502  1.32557e+21
-29.0329  1.34676e+21
-28.9156  1.36643e+21
-28.7983  1.38377e+21
-28.681  1.39806e+21
-28.5637  1.40876e+21
-28.4464  1.41563e+21
-28.3291  1.41887e+21
-28.2118  1.4192e+21
-28.0944  1.41786e+21
-27.9771  1.41633e+21
-27.8598  1.41616e+21
-27.7425  1.41865e+21
-27.6252  1.42492e+21
-27.5079  1.43541e+21
-27.3906  1.45022e+21
-27.2733  1.46905e+21
-27.156  1.49118e+21
-27.0387  1.51622e+21
-26.9214  1.54355e+21
-26.8041  1.57304e+21
-26.6868  1.60487e+21
-26.5695  1.63957e+21
-26.4522  1.678e+21
-26.3349  1.72116e+21
-26.2176  1.77012e+21
-26.1003  1.8255e+21
-25.983  1.88791e+21
-25.8657  1.9572e+21
-25.7483  2.03246e+21
-25.631  2.11216e+21
-25.5137  2.1937e+21
-25.3964  2.27433e+21
-25.2791  2.35047e+21
-25.1618  2.41883e+21
-25.0445  2.47615e+21
-24.9272  2.52017e+21
-24.8099  2.54943e+21
-24.6926  2.56386e+21
-24.5753  2.56447e+21
-24.458  2.55373e+21
-24.3407  2.53479e+21
-24.2234  2.51189e+21
-24.1061  2.48912e+21
-23.9888  2.47092e+21
-23.8715  2.46126e+21
-23.7542  2.46353e+21
-23.6369  2.48003e+21
-23.5196  2.51207e+21
-23.4023  2.56e+21
-23.2849  2.62265e+21
-23.1676  2.69791e+21
-23.0503  2.78258e+21
-22.933  2.87296e+21
-22.8157  2.9648e+21
-22.6984  3.05416e+21
-22.5811  3.13745e+21
-22.4638  3.21218e+21
-22.3465  3.27676e+21
-22.2292  3.33109e+21
-22.1119  3.37622e+21
-21.9946  3.41448e+21
-21.8773  3.44892e+21
-21.76  3.48303e+21
-21.6427  3.52053e+21
-21.5254  3.56475e+21
-21.4081  3.61832e+21
-21.2908  3.68279e+21
-21.1735  3.75886e+21
-21.0561  3.84573e+21
-20.9388  3.9418e+21
-20.8215  4.04378e+21
-20.7042  4.14832e+21
-20.5869  4.25111e+21
-20.4696  4.34823e+21
-20.3523  4.43588e+21
-20.235  4.51162e+21
-20.1177  4.57344e+21
-20.0004  4.62146e+21
-19.8831  4.65678e+21
-19.7658  4.68175e+21
-19.6485  4.69949e+21
-19.5312  4.71407e+21
-19.4139  4.72861e+21
-19.2966  4.74667e+21
-19.1793  4.77056e+21
-19.062  4.80198e+21
-18.9447  4.84097e+21
-18.8274  4.88698e+21
-18.71  4.93917e+21
-18.5927  4.99568e+21
-18.4754  5.05471e+21
-18.3581  5.11494e+21
-18.2408  5.17524e+21
-18.1235  5.23556e+21
-18.0062  5.29641e+21
-17.8889  5.35881e+21
-17.7716  5.4252e+21
-17.6543  5.49727e+21
-17.537  5.57781e+21
-17.4197  5.66863e+21
-17.3024  5.77159e+21
-17.1851  5.88739e+21
-17.0678  6.0154e+21
-16.9505  6.15472e+21
-16.8332  6.30307e+21
-16.7159  6.45716e+21
-16.5986  6.61308e+21
-16.4813  6.76707e+21
-16.364  6.91527e+21
-16.2466  7.05485e+21
-16.1293  7.18318e+21
-16.012  7.29889e+21
-15.8947  7.40178e+21
-15.7774  7.49294e+21
-15.6601  7.57415e+21
-15.5428  7.64831e+21
-15.4255  7.71821e+21
-15.3082  7.78765e+21
-15.1909  7.86061e+21
-15.0736  7.93927e+21
-14.9563  8.02626e+21
-14.839  8.12277e+21
-14.7217  8.22839e+21
-14.6044  8.34183e+21
-14.4871  8.46025e+21
-14.3698  8.57999e+21
-14.2525  8.69658e+21
-14.1352  8.80522e+21
-14.0178  8.9029e+21
-13.9005  8.98615e+21
-13.7832  9.05372e+21
-13.6659  9.10632e+21
-13.5486  9.14565e+21
-13.4313  9.17569e+21
-13.314  9.20086e+21
-13.1967  9.22646e+21
-13.0794  9.25857e+21
-12.9621  9.30081e+21
-12.8448  9.35814e+21
-12.7275  9.43229e+21
-12.6102  9.52457e+21
-12.4929  9.63413e+21
-12.3756  9.75835e+21
-12.2583  9.89431e+21
-12.141  1.00375e+22
-12.0237  1.01825e+22
-11.9064  1.0324e+22
-11.7891  1.04573e+22
-11.6718  1.0578e+22
-11.5544  1.06839e+22
-11.4371  1.07741e+22
-11.3198  1.08482e+22
-11.2025  1.0909e+22
-11.0852  1.096e+22
-10.9679  1.10059e+22
-10.8506  1.10516e+22
-10.7333  1.11021e+22
-10.616  1.11619e+22
-10.4987  1.12361e+22
-10.3814  1.13256e+22
-10.2641  1.14323e+22
-10.1468  1.15557e+22
-10.0295  1.1694e+22
-9.91217  1.18436e+22
-9.79487  1.20004e+22
-9.67756  1.21589e+22
-9.56026  1.23129e+22
-9.44295  1.24562e+22
-9.32565  1.25838e+22
-9.20834  1.269e+22
-9.09104  1.27715e+22
-8.97373  1.28265e+22
-8.85643  1.28539e+22
-8.73913  1.28555e+22
-8.62182  1.28339e+22
-8.50452  1.27938e+22
-8.38721  1.2741e+22
-8.26991  1.26806e+22
-8.1526  1.26202e+22
-8.03529  1.2565e+22
-7.91799  1.25215e+22
-7.80069  1.24943e+22
-7.68338  1.24875e+22
-7.56608  1.25045e+22
-7.44877  1.25473e+22
-7.33146  1.26163e+22
-7.21416  1.27114e+22
-7.09685  1.2831e+22
-6.97955  1.2972e+22
-6.86224  1.31311e+22
-6.74494  1.33051e+22
-6.62763  1.34874e+22
-6.51033  1.36737e+22
-6.39302  1.38581e+22
-6.27572  1.40354e+22
-6.15842  1.42003e+22
-6.04111  1.43487e+22
-5.92381  1.44767e+22
-5.8065  1.45833e+22
-5.68919  1.46666e+22
-5.57189  1.47282e+22
-5.45458  1.47696e+22
-5.33728  1.47947e+22
-5.21997  1.48068e+22
-5.10267  1.48102e+22
-4.98536  1.48091e+22
-4.86806  1.48066e+22
-4.75075  1.48055e+22
-4.63345  1.48076e+22
-4.51614  1.48131e+22
-4.39884  1.48216e+22
-4.28154  1.48328e+22
-4.16423  1.48444e+22
-4.04692  1.48547e+22
-3.92962  1.48622e+22
-3.81231  1.4866e+22
-3.69501  1.48648e+22
-3.5777  1.48587e+22
-3.4604  1.48489e+22
-3.34309  1.48367e+22
-3.22579  1.48246e+22
-3.10849  1.48156e+22
-2.99118  1.4813e+22
-2.87387  1.48208e+22
-2.75657  1.48424e+22
-2.63926  1.4881e+22
-2.52196  1.49386e+22
-2.40465  1.50161e+22
-2.28735  1.5113e+22
-2.17005  1.52273e+22
-2.05274  1.53566e+22
-1.93544  1.54946e+22
-1.81813  1.56361e+22
-1.70083  1.57746e+22
-1.58352  1.59036e+22
-1.46622  1.60166e+22
-1.34891  1.61091e+22
-1.2316  1.61772e+22
-1.1143  1.62194e+22
-0.996995  1.62359e+22
-0.87969  1.62297e+22
-0.762385  1.6204e+22
-0.64508  1.61654e+22
-0.527775  1.61197e+22
-0.41047  1.60734e+22
-0.293165  1.60324e+22
-0.17586  1.60021e+22
-0.058555  1.59859e+22
0.05875  1.59858e+22
0.176055  1.60016e+22
0.29336  1.60314e+22
0.410665  1.6072e+22
0.52797  1.61179e+22
0.645275  1.61629e+22
0.76258  1.62007e+22
0.879885  1.62251e+22
0.99719  1.62304e+22
1.1145  1.62125e+22
1.2318  1.6169e+22
1.3491  1.60999e+22
1.46641  1.60063e+22
1.58371  1.5892e+22
1.70102  1.57619e+22
1.81832  1.56224e+22
1.93563  1.54797e+22
2.05294  1.53408e+22
2.17024  1.52113e+22
2.28754  1.50959e+22
2.40485  1.49983e+22
2.52216  1.492e+22
2.63946  1.4862e+22
2.75677  1.48225e+22
2.87407  1.48002e+22
2.99137  1.47912e+22
3.10868  1.47927e+22
3.22599  1.48005e+22
3.34329  1.48117e+22
3.4606  1.48228e+22
3.5779  1.48315e+22
3.69521  1.4836e+22
3.81251  1.4836e+22
3.92982  1.4831e+22
4.04712  1.48221e+22
4.16443  1.48107e+22
4.28173  1.4798e+22
4.39903  1.47861e+22
4.51634  1.47764e+22
4.63364  1.47704e+22
4.75095  1.47675e+22
4.86825  1.47678e+22
4.98556  1.47695e+22
5.10286  1.477e+22
5.22017  1.47658e+22
5.33748  1.47529e+22
5.45478  1.47273e+22
5.57209  1.46849e+22
5.68939  1.46224e+22
5.8067  1.45381e+22
5.924  1.44309e+22
6.0413  1.4302e+22
6.15861  1.41529e+22
6.27591  1.39874e+22
6.39322  1.38099e+22
6.51052  1.36253e+22
6.62783  1.34386e+22
6.74514  1.32562e+22
6.86244  1.30829e+22
6.97975  1.29235e+22
7.09705  1.27829e+22
7.21436  1.26639e+22
7.33166  1.25691e+22
7.44897  1.25003e+22
7.56627  1.24581e+22
7.68358  1.24409e+22
7.80088  1.24475e+22
7.91819  1.24742e+22
8.03549  1.25174e+22
8.1528  1.25719e+22
8.2701  1.26313e+22
8.38741  1.269e+22
8.50471  1.27416e+22
8.62202  1.27797e+22
8.73932  1.27993e+22
8.85662  1.2796e+22
8.97393  1.27668e+22
9.09123  1.27101e+22
9.20854  1.2627e+22
9.32584  1.25198e+22
9.44315  1.23913e+22
9.56045  1.22471e+22
9.67776  1.20929e+22
9.79506  1.19344e+22
9.91237  1.17779e+22
10.0297  1.16288e+22
10.147  1.14912e+22
10.2643  1.13688e+22
10.3816  1.12626e+22
10.4989  1.11739e+22
10.6162  1.11007e+22
10.7335  1.10409e+22
10.8508  1.09904e+22
10.9681  1.09446e+22
11.0854  1.08989e+22
11.2027  1.08476e+22
11.32  1.0786e+22
11.4373  1.0711e+22
11.5546  1.06205e+22
11.6719  1.05137e+22
11.7893  1.03926e+22
11.9066  1.02589e+22
12.0239  1.01171e+22
12.1412  9.97238e+21
12.2585  9.82967e+21
12.3758  9.69403e+21
12.4931  9.57017e+21
12.6104  9.46121e+21
12.7277  9.36973e+21
12.845  9.29638e+21
12.9623  9.23951e+21
13.0796  9.19745e+21
13.1969  9.16587e+21
13.3142  9.13998e+21
13.4315  9.11435e+21
13.5488  9.08395e+21
13.6661  9.04387e+21
13.7834  8.99032e+21
13.9007  8.92164e+21
14.018  8.8377e+21
14.1354  8.73908e+21
14.2527  8.62928e+21
14.37  8.51219e+21
14.4873  8.39176e+21
14.6046  8.27296e+21
14.7219  8.15922e+21
14.8392  8.05347e+21
14.9565  7.9572e+21
15.0738  7.87007e+21
15.1911  7.79168e+21
15.3084  7.71914e+21
15.4257  7.64974e+21
15.543  7.57993e+21
15.6603  7.50624e+21
15.7776  7.42565e+21
15.8949  7.33506e+21
16.0122  7.2326e+21
16.1295  7.11737e+21
16.2468  6.98977e+21
16.3641  6.85099e+21
16.4815  6.70371e+21
16.5988  6.55073e+21
16.7161  6.39563e+21
16.8334  6.24298e+21
16.9507  6.09588e+21
17.068  5.95774e+21
17.1853  5.83079e+21
17.3026  5.7162e+21
17.4199  5.61442e+21
17.5372  5.52468e+21
17.6545  5.4449e+21
17.7718  5.37376e+21
17.8891  5.30819e+21
18.0064  5.2464e+21
18.1237  5.18605e+21
18.241  5.12617e+21
18.3583  5.06616e+21
18.4756  5.00621e+21
18.5929  4.94742e+21
18.7102  4.89128e+21
18.8275  4.83916e+21
18.9449  4.79314e+21
19.0622  4.75429e+21
19.1795  4.72289e+21
19.2968  4.69887e+21
19.4141  4.68054e+21
19.5314  4.6658e+21
19.6487  4.65108e+21
19.766  4.63282e+21
19.8833  4.60758e+21
20.0006  4.57185e+21
20.1179  4.52349e+21
20.2352  4.46136e+21
20.3525  4.38576e+21
20.4698  4.29828e+21
20.5871  4.20158e+21
20.7044  4.09933e+21
20.8217  3.99546e+21
20.939  3.89418e+21
21.0563  3.79906e+21
21.1736  3.71304e+21
21.291  3.63794e+21
21.4083  3.57407e+21
21.5256  3.5214e+21
21.6429  3.47778e+21
21.7602  3.44083e+21
21.8775  3.40701e+21
21.9948  3.37288e+21
22.1121  3.33482e+21
22.2294  3.28992e+21
22.3467  3.23564e+21
22.464  3.17143e+21
22.5813  3.09704e+21
22.6986  3.01432e+21
22.8159  2.92559e+21
22.9332  2.83453e+21
23.0505  2.74512e+21
23.1678  2.66148e+21
23.2851  2.58735e+21
23.4024  2.52579e+21
23.5198  2.4789e+21
23.6371  2.44781e+21
23.7544  2.43227e+21
23.8717  2.43073e+21
23.989  2.44089e+21
24.1063  2.45947e+21
24.2236  2.48249e+21
24.3409  2.50546e+21
24.4582  2.52431e+21
24.5755  2.53493e+21
24.6928  2.53408e+21
24.8101  2.51941e+21
24.9274  2.48998e+21
25.0447  2.44588e+21
25.162  2.38864e+21
25.2793  2.32057e+21
25.3966  2.24484e+21
25.5139  2.16473e+21
25.6312  2.08372e+21
25.7485  2.00478e+21
25.8658  1.93026e+21
25.9832  1.86189e+21
26.1005  1.80017e+21
26.2178  1.74551e+21
26.3351  1.69731e+21
26.4524  1.65481e+21
26.5697  1.61693e+21
26.687  1.58275e+21
26.8043  1.55137e+21
26.9216  1.52227e+21
27.0389  1.49533e+21
27.1562  1.47079e+21
27.2735  1.44892e+21
27.3908  1.43056e+21
27.5081  1.41616e+21
27.6254  1.40604e+21
27.7427  1.4002e+21
27.86  1.39808e+21
27.9773  1.39863e+21
28.0946  1.40045e+21
28.212  1.40205e+21
28.3293  1.40197e+21
28.4466  1.39895e+21
28.5639  1.39239e+21
28.6812  1.38188e+21
28.7985  1.36789e+21
28.9158  1.35084e+21
29.0331  1.33149e+21
29.1504  1.31064e+21
29.2677  1.28876e+21
29.385  1.26612e+21
29.5023  1.24268e+21
29.6196  1.21822e+21
29.7369  1.19235e+21
29.8542  1.16468e+21
29.9715  1.13483e+21
30.0888  1.10258e+21
30.2061  1.06779e+21
30.3234  1.0306e+21
30.4407  9.91272e+20
30.558  9.50465e+20
30.6754  9.08857e+20
30.7927  8.67358e+20
30.91  8.27093e+20
31.0273  7.89086e+20
31.1446  7.54167e+20
31.2619  7.23095e+20
31.3792  6.96142e+20
31.4965  6.73213e+20
31.6138  6.53948e+20
31.7311  6.37614e+20
31.8484  6.2342e+20
31.9657  6.10491e+20
32.083  5.98261e+20
32.2003  5.86271e+20
32.3176  5.74278e+20
32.4349  5.6255e+20
32.5522  5.51317e+20
32.6695  5.41242e+20
32.7868  5.33063e+20
32.9042  5.27578e+20
33.0215  5.25747e+20
33.1388  5.28383e+20
33.2561  5.36237e+20
33.3734  5.49589e+20
33.4907  5.68355e+20
33.608  5.91955e+20
33.7253  6.18821e+20
33.8426  6.47153e+20
33.9599  6.74765e+20
34.0772  6.99214e+20
34.1945  7.18579e+20
34.3118  7.31215e+20
34.4291  7.36638e+20
34.5464  7.34886e+20
34.6637  7.26953e+20
34.781  7.14543e+20
34.8983  6.99553e+20
35.0156  6.84123e+20
35.1329  6.70171e+20
35.2503  6.59055e+20
35.3676  6.51799e+20
35.4849  6.48813e+20
35.6022  6.50225e+20
35.7195  6.55314e+20
35.8368  6.6319e+20
35.9541  6.72486e+20
36.0714  6.81419e+20
36.1887  6.88494e+20
36.306  6.92048e+20
36.4233  6.90617e+20
36.5406  6.83719e+20
36.6579  6.71444e+20
36.7752  6.54679e+20
36.8925  6.34931e+20
37.0098  6.14435e+20
37.1271  5.95265e+20
37.2444  5.79365e+20
37.3617  5.67876e+20
37.479  5.61294e+20
37.5964  5.59006e+20
37.7137  5.59514e+20
37.831  5.61132e+20
37.9483  5.61586e+20
38.0656  5.59417e+20
38.1829  5.53276e+20
38.3002  5.42739e+20
38.4175  5.28072e+20
38.5348  5.10189e+20
38.6521  4.90523e+20
38.7694  4.70541e+20
38.8867  4.5188e+20
39.004  4.36e+20
39.1213  4.24051e+20
39.2386  4.16888e+20
39.3559  4.1491e+20
39.4732  4.18246e+20
39.5905  4.26548e+20
39.7078  4.3921e+20
39.8251  4.55179e+20
39.9425  4.72928e+20
40.0598  4.91138e+20
40.1771  5.07778e+20
40.2944  5.21593e+20
40.4117  5.31273e+20
40.529  5.3608e+20
40.6463  5.35629e+20
40.7636  5.30377e+20
40.8809  5.21159e+20
40.9982  5.09059e+20
41.1155  4.95532e+20
41.2328  4.82054e+20
41.3501  4.70012e+20
41.4674  4.60334e+20
41.5847  4.53717e+20
41.702  4.50366e+20
41.8193  4.49699e+20
41.9366  4.51203e+20
42.0539  4.53529e+20
42.1712  4.55438e+20
42.2885  4.55744e+20
42.4059  4.53365e+20
42.5232  4.47925e+20
42.6405  4.39351e+20
42.7578  4.28644e+20
42.8751  4.17003e+20
42.9924  4.06101e+20
43.1097  3.97928e+20
43.227  3.93922e+20
43.3443  3.95113e+20
43.4616  4.01729e+20
43.5789  4.13151e+20
43.6962  4.2802e+20
43.8135  4.44261e+20
43.9308  4.59677e+20
44.0481  4.71934e+20
44.1654  4.79246e+20
44.2827  4.80316e+20
44.4  4.74649e+20
44.5173  4.62521e+20
44.6347  4.45103e+20
44.752  4.24067e+20
44.8693  4.01336e+20
44.9866  3.79074e+20
45.1039  3.59471e+20
45.2212  3.44192e+20
45.3385  3.34453e+20
45.4558  3.31003e+20
45.5731  3.33544e+20
45.6904  3.41189e+20
45.8077  3.52388e+20
45.925  3.65039e+20
46.0423  3.76839e+20
46.1596  3.85463e+20
46.2769  3.89081e+20
46.3942  3.86453e+20
46.5115  3.77127e+20
46.6288  3.61537e+20
46.7461  3.40796e+20
46.8634  3.16533e+20
46.9808  2.90661e+20
47.0981  2.65211e+20
47.2154  2.41783e+20
47.3327  2.21691e+20
47.45  2.05638e+20
47.5673  1.9409e+20
47.6846  1.86981e+20
47.8019  1.84158e+20
47.9192  1.85215e+20
48.0365  1.89782e+20
48.1538  1.97484e+20
48.2711  2.0791e+20
48.3884  2.20677e+20
48.5057  2.35306e+20
48.623  2.51337e+20
48.7403  2.6821e+20
48.8576  2.85373e+20
48.9749  3.02179e+20
49.0922  3.17971e+20
49.2095  3.32184e+20
49.3269  3.44312e+20
49.4442  3.53871e+20
49.5615  3.60467e+20
49.6788  3.63821e+20
49.7961  3.63843e+20
49.9134  3.60481e+20
50.0307  3.53841e+20
50.148  3.44161e+20
50.2653  3.31619e+20
50.3826  3.16558e+20
50.4999  2.9931e+20
50.6172  2.80274e+20
50.7345  2.5984e+20
50.8518  2.38673e+20
