#S 1 spectral density
#N 2
#UFWHM 24.3994
#L  abscissas [um]  spectral density
-58.5938  5.94572e+19
-58.4764  6.47869e+19
-58.3591  7.21989e+19
-58.2418  8.13989e+19
-58.1245  9.19739e+19
-58.0072  1.03479e+20
-57.8899  1.15443e+20
-57.7726  1.27354e+20
-57.6553  1.38611e+20
-57.538  1.48601e+20
-57.4207  1.56627e+20
-57.3034  1.62058e+20
-57.1861  1.64451e+20
-57.0688  1.63662e+20
-56.9515  1.59912e+20
-56.8342  1.53751e+20
-56.7169  1.46079e+20
-56.5996  1.37754e+20
-56.4823  1.2969e+20
-56.365  1.22444e+20
-56.2477  1.16217e+20
-56.1303  1.10856e+20
-56.013  1.06062e+20
-55.8957  1.01329e+20
-55.7784  9.63964e+19
-55.6611  9.11186e+19
-55.5438  8.56945e+19
-55.4265  8.06306e+19
-55.3092  7.63966e+19
-55.1919  7.34359e+19
-55.0746  7.20073e+19
-54.9573  7.20248e+19
-54.84  7.31987e+19
-54.7227  7.49512e+19
-54.6054  7.67829e+19
-54.4881  7.8271e+19
-54.3708  7.92708e+19
-54.2535  7.98364e+19
-54.1362  8.0262e+19
-54.0189  8.10465e+19
-53.9016  8.26458e+19
-53.7842  8.54303e+19
-53.6669  8.97119e+19
-53.5496  9.55445e+19
-53.4323  1.02955e+20
-53.315  1.11788e+20
-53.1977  1.21817e+20
-53.0804  1.3282e+20
-52.9631  1.44386e+20
-52.8458  1.56005e+20
-52.7285  1.67128e+20
-52.6112  1.77047e+20
-52.4939  1.85106e+20
-52.3766  1.90708e+20
-52.2593  1.93504e+20
-52.142  1.93503e+20
-52.0247  1.90916e+20
-51.9074  1.86362e+20
-51.7901  1.80505e+20
-51.6728  1.74168e+20
-51.5555  1.67943e+20
-51.4381  1.62347e+20
-51.3208  1.57552e+20
-51.2035  1.53502e+20
-51.0862  1.50062e+20
-50.9689  1.47012e+20
-50.8516  1.44218e+20
-50.7343  1.41636e+20
-50.617  1.39369e+20
-50.4997  1.37647e+20
-50.3824  1.367e+20
-50.2651  1.36814e+20
-50.1478  1.38068e+20
-50.0305  1.4061e+20
-49.9132  1.44329e+20
-49.7959  1.49167e+20
-49.6786  1.55009e+20
-49.5613  1.61799e+20
-49.444  1.69509e+20
-49.3267  1.78198e+20
-49.2094  1.87999e+20
-49.092  1.98963e+20
-48.9747  2.11184e+20
-48.8574  2.24575e+20
-48.7401  2.38937e+20
-48.6228  2.53814e+20
-48.5055  2.68582e+20
-48.3882  2.82341e+20
-48.2709  2.94126e+20
-48.1536  3.02936e+20
-48.0363  3.0782e+20
-47.919  3.08201e+20
-47.8017  3.03819e+20
-47.6844  2.94989e+20
-47.5671  2.82442e+20
-47.4498  2.67357e+20
-47.3325  2.51235e+20
-47.2152  2.35509e+20
-47.0979  2.21597e+20
-46.9806  2.10357e+20
-46.8633  2.02276e+20
-46.7459  1.97413e+20
-46.6286  1.953e+20
-46.5113  1.95325e+20
-46.394  1.96646e+20
-46.2767  1.98585e+20
-46.1594  2.00549e+20
-46.0421  2.02113e+20
-45.9248  2.03016e+20
-45.8075  2.03105e+20
-45.6902  2.02206e+20
-45.5729  2.0018e+20
-45.4556  1.96841e+20
-45.3383  1.92152e+20
-45.221  1.86125e+20
-45.1037  1.7911e+20
-44.9864  1.71563e+20
-44.8691  1.64309e+20
-44.7518  1.58214e+20
-44.6345  1.54225e+20
-44.5172  1.53091e+20
-44.3998  1.55322e+20
-44.2825  1.61129e+20
-44.1652  1.70361e+20
-44.0479  1.82515e+20
-43.9306  1.96963e+20
-43.8133  2.12907e+20
-43.696  2.29464e+20
-43.5787  2.45896e+20
-43.4614  2.61559e+20
-43.3441  2.75851e+20
-43.2268  2.88384e+20
-43.1095  2.98824e+20
-42.9922  3.07118e+20
-42.8749  3.13384e+20
-42.7576  3.17859e+20
-42.6403  3.21133e+20
-42.523  3.23698e+20
-42.4057  3.26268e+20
-42.2884  3.2937e+20
-42.171  3.33253e+20
-42.0537  3.38019e+20
-41.9364  3.43335e+20
-41.8191  3.48772e+20
-41.7018  3.53682e+20
-41.5845  3.57496e+20
-41.4672  3.59906e+20
-41.3499  3.60851e+20
-41.2326  3.60704e+20
-41.1153  3.60237e+20
-40.998  3.60416e+20
-40.8807  3.62249e+20
-40.7634  3.66737e+20
-40.6461  3.74503e+20
-40.5288  3.85823e+20
-40.4115  4.00403e+20
-40.2942  4.17357e+20
-40.1769  4.3554e+20
-40.0596  4.53436e+20
-39.9423  4.69392e+20
-39.825  4.81717e+20
-39.7076  4.89065e+20
-39.5903  4.90546e+20
-39.473  4.85957e+20
-39.3557  4.75471e+20
-39.2384  4.60203e+20
-39.1211  4.41775e+20
-39.0038  4.21946e+20
-38.8865  4.02692e+20
-38.7692  3.85778e+20
-38.6519  3.72212e+20
-38.5346  3.62585e+20
-38.4173  3.56441e+20
-38.3  3.53019e+20
-38.1827  3.50823e+20
-38.0654  3.48417e+20
-37.9481  3.44497e+20
-37.8308  3.38103e+20
-37.7135  3.28887e+20
-37.5962  3.17112e+20
-37.4789  3.03412e+20
-37.3615  2.8864e+20
-37.2442  2.73789e+20
-37.1269  2.59812e+20
-37.0096  2.47578e+20
-36.8923  2.37721e+20
-36.775  2.30928e+20
-36.6577  2.27748e+20
-36.5404  2.28905e+20
-36.4231  2.34958e+20
-36.3058  2.46183e+20
-36.1885  2.62727e+20
-36.0712  2.84209e+20
-35.9539  3.09763e+20
-35.8366  3.38113e+20
-35.7193  3.67582e+20
-35.602  3.96563e+20
-35.4847  4.23652e+20
-35.3674  4.47937e+20
-35.2501  4.69081e+20
-35.1328  4.87302e+20
-35.0154  5.03404e+20
-34.8981  5.18208e+20
-34.7808  5.3283e+20
-34.6635  5.48016e+20
-34.5462  5.64083e+20
-34.4289  5.81168e+20
-34.3116  5.9878e+20
-34.1943  6.16159e+20
-34.077  6.32207e+20
-33.9597  6.4577e+20
-33.8424  6.55615e+20
-33.7251  6.60652e+20
-33.6078  6.59773e+20
-33.4905  6.52305e+20
-33.3732  6.37969e+20
-33.2559  6.17031e+20
-33.1386  5.90396e+20
-33.0213  5.5963e+20
-32.904  5.26937e+20
-32.7867  4.9478e+20
-32.6693  4.65684e+20
-32.552  4.42003e+20
-32.4347  4.25245e+20
-32.3174  4.16494e+20
-32.2001  4.15709e+20
-32.0828  4.22195e+20
-31.9655  4.3465e+20
-31.8482  4.5152e+20
-31.7309  4.71195e+20
-31.6136  4.92315e+20
-31.4963  5.13903e+20
-31.379  5.35457e+20
-31.2617  5.56977e+20
-31.1444  5.78651e+20
-31.0271  6.00803e+20
-30.9098  6.24169e+20
-30.7925  6.48726e+20
-30.6752  6.74605e+20
-30.5579  7.01615e+20
-30.4406  7.29072e+20
-30.3232  7.56161e+20
-30.2059  7.81463e+20
-30.0886  8.03713e+20
-29.9713  8.21858e+20
-29.854  8.34665e+20
-29.7367  8.41474e+20
-29.6194  8.42384e+20
-29.5021  8.3789e+20
-29.3848  8.29028e+20
-29.2675  8.17426e+20
-29.1502  8.04774e+20
-29.0329  7.92847e+20
-28.9156  7.83061e+20
-28.7983  7.76388e+20
-28.681  7.73403e+20
-28.5637  7.74141e+20
-28.4464  7.78271e+20
-28.3291  7.85282e+20
-28.2118  7.94445e+20
-28.0944  8.05246e+20
-27.9771  8.17285e+20
-27.8598  8.30317e+20
-27.7425  8.44295e+20
-27.6252  8.59224e+20
-27.5079  8.75478e+20
-27.3906  8.93361e+20
-27.2733  9.13486e+20
-27.156  9.36159e+20
-27.0387  9.62017e+20
-26.9214  9.91406e+20
-26.8041  1.02455e+21
-26.6868  1.0613e+21
-26.5695  1.10121e+21
-26.4522  1.14338e+21
-26.3349  1.18682e+21
-26.2176  1.23021e+21
-26.1003  1.27201e+21
-25.983  1.31096e+21
-25.8657  1.34586e+21
-25.7483  1.3758e+21
-25.631  1.40037e+21
-25.5137  1.41929e+21
-25.3964  1.43286e+21
-25.2791  1.44149e+21
-25.1618  1.44607e+21
-25.0445  1.44739e+21
-24.9272  1.44665e+21
-24.8099  1.44489e+21
-24.6926  1.4433e+21
-24.5753  1.44269e+21
-24.458  1.44385e+21
-24.3407  1.44711e+21
-24.2234  1.45297e+21
-24.1061  1.46146e+21
-23.9888  1.47287e+21
-23.8715  1.48764e+21
-23.7542  1.50669e+21
-23.6369  1.53102e+21
-23.5196  1.56226e+21
-23.4023  1.60201e+21
-23.2849  1.65181e+21
-23.1676  1.71284e+21
-23.0503  1.78551e+21
-22.933  1.86943e+21
-22.8157  1.96312e+21
-22.6984  2.06423e+21
-22.5811  2.16954e+21
-22.4638  2.27543e+21
-22.3465  2.37836e+21
-22.2292  2.47479e+21
-22.1119  2.56201e+21
-21.9946  2.63838e+21
-21.8773  2.70315e+21
-21.76  2.7569e+21
-21.6427  2.80117e+21
-21.5254  2.83837e+21
-21.4081  2.8718e+21
-21.2908  2.9047e+21
-21.1735  2.94047e+21
-21.0561  2.98186e+21
-20.9388  3.03072e+21
-20.8215  3.08764e+21
-20.7042  3.15235e+21
-20.5869  3.22281e+21
-20.4696  3.29663e+21
-20.3523  3.37047e+21
-20.235  3.44104e+21
-20.1177  3.50501e+21
-20.0004  3.56045e+21
-19.8831  3.6061e+21
-19.7658  3.64237e+21
-19.6485  3.67048e+21
-19.5312  3.69338e+21
-19.4139  3.71412e+21
-19.2966  3.73669e+21
-19.1793  3.76478e+21
-19.062  3.80176e+21
-18.9447  3.84986e+21
-18.8274  3.91036e+21
-18.71  3.98381e+21
-18.5927  4.06901e+21
-18.4754  4.16397e+21
-18.3581  4.26586e+21
-18.2408  4.37153e+21
-18.1235  4.47746e+21
-18.0062  4.5806e+21
-17.8889  4.67822e+21
-17.7716  4.76909e+21
-17.6543  4.85265e+21
-17.537  4.92971e+21
-17.4197  5.00219e+21
-17.3024  5.07319e+21
-17.1851  5.14619e+21
-17.0678  5.22477e+21
-16.9505  5.31257e+21
-16.8332  5.41254e+21
-16.7159  5.52643e+21
-16.5986  5.65469e+21
-16.4813  5.79672e+21
-16.364  5.9506e+21
-16.2466  6.11356e+21
-16.1293  6.28146e+21
-16.012  6.45045e+21
-15.8947  6.61637e+21
-15.7774  6.77591e+21
-15.6601  6.92648e+21
-15.5428  7.06666e+21
-15.4255  7.19602e+21
-15.3082  7.31584e+21
-15.1909  7.42876e+21
-15.0736  7.53718e+21
-14.9563  7.64467e+21
-14.839  7.75438e+21
-14.7217  7.86815e+21
-14.6044  7.9869e+21
-14.4871  8.11046e+21
-14.3698  8.2366e+21
-14.2525  8.36173e+21
-14.1352  8.48124e+21
-14.0178  8.59135e+21
-13.9005  8.68715e+21
-13.7832  8.76548e+21
-13.6659  8.82457e+21
-13.5486  8.86431e+21
-13.4313  8.88635e+21
-13.314  8.89395e+21
-13.1967  8.89166e+21
-13.0794  8.88571e+21
-12.9621  8.88097e+21
-12.8448  8.88399e+21
-12.7275  8.89891e+21
-12.6102  8.93001e+21
-12.4929  8.97958e+21
-12.3756  9.04796e+21
-12.2583  9.13463e+21
-12.141  9.23711e+21
-12.0237  9.35134e+21
-11.9064  9.47239e+21
-11.7891  9.59502e+21
-11.6718  9.71394e+21
-11.5544  9.82494e+21
-11.4371  9.92516e+21
-11.3198  1.00124e+22
-11.2025  1.00877e+22
-11.0852  1.01533e+22
-10.9679  1.02135e+22
-10.8506  1.02742e+22
-10.7333  1.03419e+22
-10.616  1.04237e+22
-10.4987  1.05274e+22
-10.3814  1.06579e+22
-10.2641  1.08206e+22
-10.1468  1.10182e+22
-10.0295  1.12513e+22
-9.91217  1.15174e+22
-9.79487  1.18125e+22
-9.67756  1.21294e+22
-9.56026  1.24593e+22
-9.44295  1.27917e+22
-9.32565  1.31167e+22
-9.20834  1.34236e+22
-9.09104  1.37029e+22
-8.97373  1.39482e+22
-8.85643  1.41544e+22
-8.73913  1.43194e+22
-8.62182  1.44442e+22
-8.50452  1.45323e+22
-8.38721  1.45895e+22
-8.26991  1.46214e+22
-8.1526  1.4637e+22
-8.03529  1.46424e+22
-7.91799  1.4645e+22
-7.80069  1.46501e+22
-7.68338  1.46613e+22
-7.56608  1.46818e+22
-7.44877  1.47121e+22
-7.33146  1.47517e+22
-7.21416  1.47988e+22
-7.09685  1.48512e+22
-6.97955  1.49064e+22
-6.86224  1.49619e+22
-6.74494  1.5017e+22
-6.62763  1.50693e+22
-6.51033  1.51195e+22
-6.39302  1.51682e+22
-6.27572  1.52168e+22
-6.15842  1.52675e+22
-6.04111  1.53227e+22
-5.92381  1.53848e+22
-5.8065  1.54573e+22
-5.68919  1.55413e+22
-5.57189  1.56392e+22
-5.45458  1.57518e+22
-5.33728  1.58798e+22
-5.21997  1.60221e+22
-5.10267  1.61772e+22
-4.98536  1.63426e+22
-4.86806  1.65149e+22
-4.75075  1.66903e+22
-4.63345  1.68651e+22
-4.51614  1.70349e+22
-4.39884  1.71964e+22
-4.28154  1.73474e+22
-4.16423  1.74854e+22
-4.04692  1.76094e+22
-3.92962  1.77193e+22
-3.81231  1.78157e+22
-3.69501  1.78998e+22
-3.5777  1.79722e+22
-3.4604  1.80345e+22
-3.34309  1.80879e+22
-3.22579  1.81325e+22
-3.10849  1.81691e+22
-2.99118  1.81972e+22
-2.87387  1.82172e+22
-2.75657  1.82282e+22
-2.63926  1.823e+22
-2.52196  1.82223e+22
-2.40465  1.82047e+22
-2.28735  1.8177e+22
-2.17005  1.81393e+22
-2.05274  1.80931e+22
-1.93544  1.80375e+22
-1.81813  1.79745e+22
-1.70083  1.79044e+22
-1.58352  1.78285e+22
-1.46622  1.77478e+22
-1.34891  1.76641e+22
-1.2316  1.7578e+22
-1.1143  1.74925e+22
-0.996995  1.74082e+22
-0.87969  1.73278e+22
-0.762385  1.72523e+22
-0.64508  1.71846e+22
-0.527775  1.71258e+22
-0.41047  1.70769e+22
-0.293165  1.70393e+22
-0.17586  1.70135e+22
-0.058555  1.70005e+22
0.05875  1.70001e+22
0.176055  1.70122e+22
0.29336  1.70368e+22
0.410665  1.70735e+22
0.52797  1.71214e+22
0.645275  1.71794e+22
0.76258  1.72462e+22
0.879885  1.73206e+22
0.99719  1.74e+22
1.1145  1.74832e+22
1.2318  1.7568e+22
1.3491  1.76529e+22
1.46641  1.77358e+22
1.58371  1.78155e+22
1.70102  1.78905e+22
1.81832  1.79596e+22
1.93563  1.80214e+22
2.05294  1.80757e+22
2.17024  1.81214e+22
2.28754  1.81578e+22
2.40485  1.81844e+22
2.52216  1.82008e+22
2.63946  1.82076e+22
2.75677  1.82042e+22
2.87407  1.81918e+22
2.99137  1.81703e+22
3.10868  1.81404e+22
3.22599  1.8102e+22
3.34329  1.80557e+22
3.4606  1.80009e+22
3.5779  1.79365e+22
3.69521  1.78618e+22
3.81251  1.77762e+22
3.92982  1.76773e+22
4.04712  1.75653e+22
4.16443  1.74395e+22
4.28173  1.72997e+22
4.39903  1.71471e+22
4.51634  1.6984e+22
4.63364  1.68132e+22
4.75095  1.66374e+22
4.86825  1.64611e+22
4.98556  1.62883e+22
5.10286  1.61225e+22
5.22017  1.59672e+22
5.33748  1.58248e+22
5.45478  1.56968e+22
5.57209  1.55843e+22
5.68939  1.54862e+22
5.8067  1.54019e+22
5.924  1.53295e+22
6.0413  1.52669e+22
6.15861  1.52112e+22
6.27591  1.51599e+22
6.39322  1.51108e+22
6.51052  1.50617e+22
6.62783  1.50104e+22
6.74514  1.49572e+22
6.86244  1.49019e+22
6.97975  1.48455e+22
7.09705  1.47899e+22
7.21436  1.47371e+22
7.33166  1.46896e+22
7.44897  1.46498e+22
7.56627  1.46193e+22
7.68358  1.45985e+22
7.80088  1.45866e+22
7.91819  1.45808e+22
8.03549  1.45777e+22
8.1528  1.45716e+22
8.2701  1.45549e+22
8.38741  1.45211e+22
8.50471  1.44627e+22
8.62202  1.43729e+22
8.73932  1.42459e+22
8.85662  1.40792e+22
8.97393  1.38715e+22
9.09123  1.36248e+22
9.20854  1.33441e+22
9.32584  1.30369e+22
9.44315  1.27113e+22
9.56045  1.23786e+22
9.67776  1.20493e+22
9.79506  1.17329e+22
9.91237  1.14388e+22
10.0297  1.11736e+22
10.147  1.09418e+22
10.2643  1.07455e+22
10.3816  1.05837e+22
10.4989  1.0454e+22
10.6162  1.03514e+22
10.7335  1.02698e+22
10.8508  1.02023e+22
10.9681  1.01415e+22
11.0854  1.00814e+22
11.2027  1.00156e+22
11.32  9.93989e+21
11.4373  9.85207e+21
11.5546  9.75174e+21
11.6719  9.64029e+21
11.7893  9.52131e+21
11.9066  9.39891e+21
12.0239  9.27791e+21
12.1412  9.16436e+21
12.2585  9.06261e+21
12.3758  8.97664e+21
12.4931  8.90895e+21
12.6104  8.86021e+21
12.7277  8.82994e+21
12.845  8.81588e+21
12.9623  8.8134e+21
13.0796  8.81853e+21
13.1969  8.8249e+21
13.3142  8.82708e+21
13.4315  8.81928e+21
13.5488  8.79701e+21
13.6661  8.75693e+21
13.7834  8.69722e+21
13.9007  8.61824e+21
14.018  8.5221e+21
14.1354  8.41147e+21
14.2527  8.29127e+21
14.37  8.16605e+21
14.4873  8.03971e+21
14.6046  7.91611e+21
14.7219  7.79705e+21
14.8392  7.68345e+21
14.9565  7.57405e+21
15.0738  7.46647e+21
15.1911  7.35831e+21
15.3084  7.2457e+21
15.4257  7.12594e+21
15.543  6.99687e+21
15.6603  6.85728e+21
15.7776  6.70753e+21
15.8949  6.54869e+21
16.0122  6.38364e+21
16.1295  6.21561e+21
16.2468  6.04869e+21
16.3641  5.88704e+21
16.4815  5.7344e+21
16.5988  5.59361e+21
16.7161  5.46625e+21
16.8334  5.35372e+21
16.9507  5.25476e+21
17.068  5.16783e+21
17.1853  5.08995e+21
17.3026  5.01771e+21
17.4199  4.94734e+21
17.5372  4.87544e+21
17.6545  4.79872e+21
17.7718  4.71591e+21
17.8891  4.6256e+21
18.0064  4.52862e+21
18.1237  4.42625e+21
18.241  4.32108e+21
18.3583  4.21635e+21
18.4756  4.11527e+21
18.5929  4.02119e+21
18.7102  3.93691e+21
18.8275  3.86432e+21
18.9449  3.80441e+21
19.0622  3.75709e+21
19.1795  3.72067e+21
19.2968  3.69288e+21
19.4141  3.67051e+21
19.5314  3.64995e+21
19.6487  3.62719e+21
19.766  3.59901e+21
19.8833  3.56293e+21
20.0006  3.51717e+21
20.1179  3.46187e+21
20.2352  3.39808e+21
20.3525  3.32797e+21
20.4698  3.25474e+21
20.5871  3.18159e+21
20.7044  3.11181e+21
20.8217  3.04797e+21
20.939  2.99183e+21
21.0563  2.94378e+21
21.1736  2.90312e+21
21.291  2.86806e+21
21.4083  2.83552e+21
21.5256  2.80266e+21
21.6429  2.76571e+21
21.7602  2.72184e+21
21.8775  2.6684e+21
21.9948  2.60394e+21
22.1121  2.52798e+21
22.2294  2.44114e+21
22.3467  2.3453e+21
22.464  2.24325e+21
22.5813  2.13813e+21
22.6986  2.03391e+21
22.8159  1.93393e+21
22.9332  1.84138e+21
23.0505  1.75858e+21
23.1678  1.68706e+21
23.2851  1.62713e+21
23.4024  1.57824e+21
23.5198  1.53938e+21
23.6371  1.50896e+21
23.7544  1.48525e+21
23.8717  1.46685e+21
23.989  1.45254e+21
24.1063  1.44164e+21
24.2236  1.43365e+21
24.3409  1.42827e+21
24.4582  1.42541e+21
24.5755  1.42469e+21
24.6928  1.42571e+21
24.8101  1.4277e+21
24.9274  1.42975e+21
25.0447  1.43076e+21
25.162  1.42972e+21
25.2793  1.4255e+21
25.3966  1.41708e+21
25.5139  1.40375e+21
25.6312  1.385e+21
25.7485  1.36067e+21
25.8658  1.33097e+21
25.9832  1.2963e+21
26.1005  1.25769e+21
26.2178  1.21628e+21
26.3351  1.17336e+21
26.4524  1.13031e+21
26.5697  1.08858e+21
26.687  1.04921e+21
26.8043  1.01295e+21
26.9216  9.80355e+20
27.0389  9.51413e+20
27.1562  9.26029e+20
27.2735  9.03682e+20
27.3908  8.84015e+20
27.5081  8.66433e+20
27.6254  8.50474e+20
27.7427  8.3585e+20
27.86  8.22181e+20
27.9773  8.09453e+20
28.0946  7.97687e+20
28.212  7.87166e+20
28.3293  7.78322e+20
28.4466  7.71664e+20
28.5639  7.67899e+20
28.6812  7.67465e+20
28.7985  7.7082e+20
28.9158  7.77826e+20
29.0331  7.87896e+20
29.1504  8.00066e+20
29.2677  8.12912e+20
29.385  8.24652e+20
29.5023  8.33601e+20
29.6196  8.38113e+20
29.7369  8.37242e+20
29.8542  8.30406e+20
29.9715  8.17656e+20
30.0888  7.99634e+20
30.2061  7.77314e+20
30.3234  7.5212e+20
30.4407  7.25311e+20
30.558  6.97999e+20
30.6754  6.7121e+20
30.7927  6.45413e+20
30.91  6.21058e+20
31.0273  5.97965e+20
31.1446  5.75793e+20
31.2619  5.54279e+20
31.3792  5.32808e+20
31.4965  5.11301e+20
31.6138  4.89843e+20
31.7311  4.68784e+20
31.8484  4.49239e+20
31.9657  4.32572e+20
32.083  4.20373e+20
32.2003  4.14168e+20
32.3176  4.1528e+20
32.4349  4.24408e+20
32.5522  4.41434e+20
32.6695  4.65382e+20
32.7868  4.9463e+20
32.9042  5.26895e+20
33.0215  5.59539e+20
33.1388  5.90256e+20
33.2561  6.16674e+20
33.3734  6.37471e+20
33.4907  6.51593e+20
33.608  6.58858e+20
33.7253  6.59595e+20
33.8426  6.54379e+20
33.9599  6.4444e+20
34.0772  6.30754e+20
34.1945  6.14635e+20
34.3118  5.97254e+20
34.4291  5.79675e+20
34.5464  5.6268e+20
34.6637  5.46524e+20
34.781  5.31425e+20
34.8983  5.16776e+20
35.0156  5.019e+20
35.1329  4.85814e+20
35.2503  4.67458e+20
35.3676  4.46314e+20
35.4849  4.21849e+20
35.6022  3.94657e+20
35.7195  3.65642e+20
35.8368  3.36241e+20
35.9541  3.07959e+20
36.0714  2.8251e+20
36.1887  2.61191e+20
36.306  2.44798e+20
36.4233  2.3368e+20
36.5406  2.27819e+20
36.6579  2.26836e+20
36.7752  2.30106e+20
36.8925  2.37003e+20
37.0098  2.46996e+20
37.1271  2.59325e+20
37.2444  2.73394e+20
37.3617  2.8831e+20
37.479  3.03116e+20
37.5964  3.16831e+20
37.7137  3.28548e+20
37.831  3.37704e+20
37.9483  3.43978e+20
38.0656  3.47853e+20
38.1829  3.50204e+20
38.3002  3.52308e+20
38.4175  3.55795e+20
38.5348  3.61907e+20
38.6521  3.71609e+20
38.7694  3.85182e+20
38.8867  4.02117e+20
39.004  4.21325e+20
39.1213  4.41034e+20
39.2386  4.59356e+20
39.3559  4.74401e+20
39.4732  4.84656e+20
39.5905  4.89115e+20
39.7078  4.87426e+20
39.8251  4.79846e+20
39.9425  4.67367e+20
40.0598  4.51444e+20
40.1771  4.3352e+20
40.2944  4.15328e+20
40.4117  3.98402e+20
40.529  3.83992e+20
40.6463  3.72752e+20
40.7636  3.65082e+20
40.8809  3.60642e+20
40.9982  3.58787e+20
41.1155  3.58627e+20
41.2328  3.59082e+20
41.3501  3.59156e+20
41.4674  3.58145e+20
41.5847  3.5568e+20
41.702  3.51803e+20
41.8193  3.46844e+20
41.9366  3.41439e+20
42.0539  3.36157e+20
42.1712  3.3143e+20
42.2885  3.2755e+20
42.4059  3.24515e+20
42.5232  3.21934e+20
42.6405  3.19351e+20
42.7578  3.16046e+20
42.8751  3.11524e+20
42.9924  3.05218e+20
43.1097  2.96875e+20
43.227  2.86419e+20
43.3443  2.73909e+20
43.4616  2.59661e+20
43.5789  2.44076e+20
43.6962  2.27722e+20
43.8135  2.11247e+20
43.9308  1.95432e+20
44.0481  1.81128e+20
44.1654  1.69107e+20
44.2827  1.60047e+20
44.4  1.54361e+20
44.5173  1.52212e+20
44.6347  1.5343e+20
44.752  1.57473e+20
44.8693  1.63585e+20
44.9866  1.70813e+20
45.1039  1.78291e+20
45.2212  1.85259e+20
45.3385  1.91204e+20
45.4558  1.95874e+20
45.5731  1.99136e+20
45.6904  2.01138e+20
45.8077  2.02049e+20
45.925  2.01979e+20
46.0423  2.01073e+20
46.1596  1.99542e+20
46.2769  1.97631e+20
46.3942  1.95709e+20
46.5115  1.94436e+20
46.6288  1.94502e+20
46.7461  1.96707e+20
46.8634  2.01673e+20
46.9808  2.09815e+20
47.0981  2.21152e+20
47.2154  2.35113e+20
47.3327  2.50848e+20
47.45  2.6686e+20
47.5673  2.81805e+20
47.6846  2.94192e+20
47.8019  3.02841e+20
47.9192  3.07025e+20
48.0365  3.06434e+20
48.1538  3.01396e+20
48.2711  2.92506e+20
48.3884  2.80671e+20
48.5057  2.66914e+20
48.623  2.52174e+20
48.7403  2.37359e+20
48.8576  2.23063e+20
48.9749  2.09791e+20
49.0922  1.97702e+20
49.2095  1.86813e+20
49.3269  1.77125e+20
49.4442  1.68478e+20
49.5615  1.60845e+20
49.6788  1.54129e+20
49.7961  1.48321e+20
49.9134  1.43501e+20
50.0307  1.39815e+20
50.148  1.37329e+20
50.2653  1.36055e+20
50.3826  1.35958e+20
50.4999  1.3689e+20
50.6172  1.38613e+20
50.7345  1.40861e+20
