#S 1 spectral density
#N 2
#UFWHM 26.7455
#L  abscissas [um]  spectral density
-58.5938  1.36793e+20
-58.4764  1.443e+20
-58.3591  1.51069e+20
-58.2418  1.56198e+20
-58.1245  1.5918e+20
-58.0072  1.5997e+20
-57.8899  1.58902e+20
-57.7726  1.5672e+20
-57.6553  1.54278e+20
-57.538  1.52431e+20
-57.4207  1.51798e+20
-57.3034  1.5265e+20
-57.1861  1.5499e+20
-57.0688  1.58437e+20
-56.9515  1.62606e+20
-56.8342  1.6695e+20
-56.7169  1.71029e+20
-56.5996  1.74395e+20
-56.4823  1.76726e+20
-56.365  1.77684e+20
-56.2477  1.76991e+20
-56.1303  1.7442e+20
-56.013  1.69963e+20
-55.8957  1.63739e+20
-55.7784  1.56192e+20
-55.6611  1.4795e+20
-55.5438  1.39923e+20
-55.4265  1.33062e+20
-55.3092  1.28244e+20
-55.1919  1.25992e+20
-55.0746  1.26619e+20
-54.9573  1.29923e+20
-54.84  1.35462e+20
-54.7227  1.42562e+20
-54.6054  1.50541e+20
-54.4881  1.588e+20
-54.3708  1.66938e+20
-54.2535  1.74674e+20
-54.1362  1.81771e+20
-54.0189  1.88176e+20
-53.9016  1.93602e+20
-53.7842  1.97652e+20
-53.6669  1.99949e+20
-53.5496  2.0006e+20
-53.4323  1.97704e+20
-53.315  1.92832e+20
-53.1977  1.85645e+20
-53.0804  1.7669e+20
-52.9631  1.66668e+20
-52.8458  1.56326e+20
-52.7285  1.4638e+20
-52.6112  1.3737e+20
-52.4939  1.29602e+20
-52.3766  1.23178e+20
-52.2593  1.18043e+20
-52.142  1.14145e+20
-52.0247  1.11343e+20
-51.9074  1.09693e+20
-51.7901  1.09187e+20
-51.6728  1.09939e+20
-51.5555  1.12007e+20
-51.4381  1.1551e+20
-51.3208  1.20383e+20
-51.2035  1.2662e+20
-51.0862  1.34167e+20
-50.9689  1.43057e+20
-50.8516  1.53344e+20
-50.7343  1.65099e+20
-50.617  1.78409e+20
-50.4997  1.93361e+20
-50.3824  2.09834e+20
-50.2651  2.27701e+20
-50.1478  2.46468e+20
-50.0305  2.65722e+20
-49.9132  2.84779e+20
-49.7959  3.03023e+20
-49.6786  3.19784e+20
-49.5613  3.34535e+20
-49.444  3.46825e+20
-49.3267  3.56263e+20
-49.2094  3.62644e+20
-49.092  3.6578e+20
-48.9747  3.65696e+20
-48.8574  3.62473e+20
-48.7401  3.56359e+20
-48.6228  3.47742e+20
-48.5055  3.37148e+20
-48.3882  3.25131e+20
-48.2709  3.12384e+20
-48.1536  2.99589e+20
-48.0363  2.87328e+20
-47.919  2.76209e+20
-47.8017  2.66675e+20
-47.6844  2.59089e+20
-47.5671  2.53629e+20
-47.4498  2.50223e+20
-47.3325  2.48779e+20
-47.2152  2.48745e+20
-47.0979  2.49569e+20
-46.9806  2.50377e+20
-46.8633  2.50278e+20
-46.7459  2.48603e+20
-46.6286  2.44756e+20
-46.5113  2.38723e+20
-46.394  2.30767e+20
-46.2767  2.2175e+20
-46.1594  2.12841e+20
-46.0421  2.05387e+20
-45.9248  2.0069e+20
-45.8075  1.99747e+20
-45.6902  2.03135e+20
-45.5729  2.10796e+20
-45.4556  2.22207e+20
-45.3383  2.36349e+20
-45.221  2.51968e+20
-45.1037  2.67782e+20
-44.9864  2.82467e+20
-44.8691  2.95049e+20
-44.7518  3.04789e+20
-44.6345  3.11307e+20
-44.5172  3.14325e+20
-44.3998  3.1384e+20
-44.2825  3.10125e+20
-44.1652  3.0359e+20
-44.0479  2.94745e+20
-43.9306  2.84449e+20
-43.8133  2.73642e+20
-43.696  2.63294e+20
-43.5787  2.54492e+20
-43.4614  2.48138e+20
-43.3441  2.44748e+20
-43.2268  2.44564e+20
-43.1095  2.4725e+20
-42.9922  2.52232e+20
-42.8749  2.58556e+20
-42.7576  2.65169e+20
-42.6403  2.712e+20
-42.523  2.75907e+20
-42.4057  2.79041e+20
-42.2884  2.8075e+20
-42.171  2.81541e+20
-42.0537  2.82232e+20
-41.9364  2.83709e+20
-41.8191  2.86945e+20
-41.7018  2.92687e+20
-41.5845  3.01342e+20
-41.4672  3.13002e+20
-41.3499  3.27236e+20
-41.2326  3.43304e+20
-41.1153  3.60085e+20
-40.998  3.76258e+20
-40.8807  3.904e+20
-40.7634  4.01352e+20
-40.6461  4.08257e+20
-40.5288  4.10843e+20
-40.4115  4.09306e+20
-40.2942  4.0445e+20
-40.1769  3.9774e+20
-40.0596  3.90924e+20
-39.9423  3.85682e+20
-39.825  3.8347e+20
-39.7076  3.85362e+20
-39.5903  3.9167e+20
-39.473  4.02178e+20
-39.3557  4.15752e+20
-39.2384  4.3101e+20
-39.1211  4.46265e+20
-39.0038  4.59681e+20
-38.8865  4.69729e+20
-38.7692  4.75249e+20
-38.6519  4.75391e+20
-38.5346  4.70016e+20
-38.4173  4.59362e+20
-38.3  4.44349e+20
-38.1827  4.26176e+20
-38.0654  4.06562e+20
-37.9481  3.87409e+20
-37.8308  3.70653e+20
-37.7135  3.58079e+20
-37.5962  3.51138e+20
-37.4789  3.50565e+20
-37.3615  3.56204e+20
-37.2442  3.67286e+20
-37.1269  3.82161e+20
-37.0096  3.99015e+20
-36.8923  4.15651e+20
-36.775  4.30326e+20
-36.6577  4.41795e+20
-36.5404  4.4974e+20
-36.4231  4.54442e+20
-36.3058  4.56747e+20
-36.1885  4.58119e+20
-36.0712  4.59968e+20
-35.9539  4.63478e+20
-35.8366  4.69586e+20
-35.7193  4.78498e+20
-35.602  4.903e+20
-35.4847  5.04543e+20
-35.3674  5.20649e+20
-35.2501  5.37995e+20
-35.1328  5.55853e+20
-35.0154  5.73578e+20
-34.8981  5.90118e+20
-34.7808  6.04652e+20
-34.6635  6.16286e+20
-34.5462  6.23925e+20
-34.4289  6.27018e+20
-34.3116  6.25222e+20
-34.1943  6.18809e+20
-34.077  6.08395e+20
-33.9597  5.95392e+20
-33.8424  5.8142e+20
-33.7251  5.68323e+20
-33.6078  5.57582e+20
-33.4905  5.50448e+20
-33.3732  5.47601e+20
-33.2559  5.49055e+20
-33.1386  5.54431e+20
-33.0213  5.62719e+20
-32.904  5.7291e+20
-32.7867  5.83848e+20
-32.6693  5.94494e+20
-32.552  6.04119e+20
-32.4347  6.12014e+20
-32.3174  6.18075e+20
-32.2001  6.22368e+20
-32.0828  6.25337e+20
-31.9655  6.27701e+20
-31.8482  6.30342e+20
-31.7309  6.34211e+20
-31.6136  6.40213e+20
-31.4963  6.48954e+20
-31.379  6.60661e+20
-31.2617  6.75285e+20
-31.1444  6.9204e+20
-31.0271  7.09984e+20
-30.9098  7.28251e+20
-30.7925  7.45384e+20
-30.6752  7.60628e+20
-30.5579  7.73543e+20
-30.4406  7.84087e+20
-30.3232  7.92628e+20
-30.2059  7.99721e+20
-30.0886  8.06216e+20
-29.9713  8.13018e+20
-29.854  8.20633e+20
-29.7367  8.29388e+20
-29.6194  8.39442e+20
-29.5021  8.50511e+20
-29.3848  8.62134e+20
-29.2675  8.73724e+20
-29.1502  8.84558e+20
-29.0329  8.9404e+20
-28.9156  9.01519e+20
-28.7983  9.06649e+20
-28.681  9.09397e+20
-28.5637  9.10103e+20
-28.4464  9.09474e+20
-28.3291  9.08611e+20
-28.2118  9.08764e+20
-28.0944  9.11388e+20
-27.9771  9.17753e+20
-27.8598  9.28793e+20
-27.7425  9.44946e+20
-27.6252  9.66039e+20
-27.5079  9.9143e+20
-27.3906  1.01997e+21
-27.2733  1.05038e+21
-27.156  1.08103e+21
-27.0387  1.11079e+21
-26.9214  1.13862e+21
-26.8041  1.16397e+21
-26.6868  1.18661e+21
-26.5695  1.20678e+21
-26.4522  1.22497e+21
-26.3349  1.24214e+21
-26.2176  1.25916e+21
-26.1003  1.27708e+21
-25.983  1.29704e+21
-25.8657  1.3199e+21
-25.7483  1.34632e+21
-25.631  1.3767e+21
-25.5137  1.41097e+21
-25.3964  1.44891e+21
-25.2791  1.48964e+21
-25.1618  1.53244e+21
-25.0445  1.5762e+21
-24.9272  1.62017e+21
-24.8099  1.66373e+21
-24.6926  1.70685e+21
-24.5753  1.74947e+21
-24.458  1.79229e+21
-24.3407  1.8358e+21
-24.2234  1.88094e+21
-24.1061  1.92818e+21
-23.9888  1.97797e+21
-23.8715  2.03046e+21
-23.7542  2.08546e+21
-23.6369  2.14229e+21
-23.5196  2.20015e+21
-23.4023  2.25801e+21
-23.2849  2.31472e+21
-23.1676  2.36926e+21
-23.0503  2.4207e+21
-22.933  2.46878e+21
-22.8157  2.51355e+21
-22.6984  2.55581e+21
-22.5811  2.59681e+21
-22.4638  2.63863e+21
-22.3465  2.68355e+21
-22.2292  2.73379e+21
-22.1119  2.79128e+21
-21.9946  2.8575e+21
-21.8773  2.93274e+21
-21.76  3.01624e+21
-21.6427  3.10617e+21
-21.5254  3.19975e+21
-21.4081  3.29373e+21
-21.2908  3.38444e+21
-21.1735  3.46885e+21
-21.0561  3.54439e+21
-20.9388  3.60967e+21
-20.8215  3.66399e+21
-20.7042  3.70856e+21
-20.5869  3.74485e+21
-20.4696  3.77564e+21
-20.3523  3.80389e+21
-20.235  3.83276e+21
-20.1177  3.86461e+21
-20.0004  3.90191e+21
-19.8831  3.94576e+21
-19.7658  3.99654e+21
-19.6485  4.0532e+21
-19.5312  4.1145e+21
-19.4139  4.17769e+21
-19.2966  4.24027e+21
-19.1793  4.29938e+21
-19.062  4.35298e+21
-18.9447  4.39912e+21
-18.8274  4.43717e+21
-18.71  4.46804e+21
-18.5927  4.49334e+21
-18.4754  4.51584e+21
-18.3581  4.53917e+21
-18.2408  4.56753e+21
-18.1235  4.60502e+21
-18.0062  4.65532e+21
-17.8889  4.72132e+21
-17.7716  4.80519e+21
-17.6543  4.90731e+21
-17.537  5.02706e+21
-17.4197  5.16223e+21
-17.3024  5.3099e+21
-17.1851  5.46579e+21
-17.0678  5.62505e+21
-16.9505  5.7831e+21
-16.8332  5.9357e+21
-16.7159  6.07912e+21
-16.5986  6.21061e+21
-16.4813  6.32933e+21
-16.364  6.43555e+21
-16.2466  6.53137e+21
-16.1293  6.61946e+21
-16.012  6.70346e+21
-15.8947  6.78727e+21
-15.7774  6.87463e+21
-15.6601  6.96829e+21
-15.5428  7.07016e+21
-15.4255  7.18021e+21
-15.3082  7.29771e+21
-15.1909  7.42107e+21
-15.0736  7.54668e+21
-14.9563  7.67148e+21
-14.839  7.79219e+21
-14.7217  7.90549e+21
-14.6044  8.00901e+21
-14.4871  8.1018e+21
-14.3698  8.18356e+21
-14.2525  8.25534e+21
-14.1352  8.31873e+21
-14.0178  8.37757e+21
-13.9005  8.43472e+21
-13.7832  8.49383e+21
-13.6659  8.55822e+21
-13.5486  8.63014e+21
-13.4313  8.71093e+21
-13.314  8.80004e+21
-13.1967  8.89595e+21
-13.0794  8.99635e+21
-12.9621  9.09642e+21
-12.8448  9.19297e+21
-12.7275  9.28122e+21
-12.6102  9.35858e+21
-12.4929  9.42292e+21
-12.3756  9.47385e+21
-12.2583  9.5131e+21
-12.141  9.54413e+21
-12.0237  9.57129e+21
-11.9064  9.60011e+21
-11.7891  9.63683e+21
-11.6718  9.68743e+21
-11.5544  9.75767e+21
-11.4371  9.85243e+21
-11.3198  9.97407e+21
-11.2025  1.01242e+22
-11.0852  1.03022e+22
-10.9679  1.0505e+22
-10.8506  1.07279e+22
-10.7333  1.09643e+22
-10.616  1.12064e+22
-10.4987  1.14469e+22
-10.3814  1.16766e+22
-10.2641  1.18893e+22
-10.1468  1.20792e+22
-10.0295  1.2243e+22
-9.91217  1.23793e+22
-9.79487  1.24897e+22
-9.67756  1.25775e+22
-9.56026  1.26476e+22
-9.44295  1.27061e+22
-9.32565  1.27607e+22
-9.20834  1.28174e+22
-9.09104  1.28821e+22
-8.97373  1.29599e+22
-8.85643  1.30531e+22
-8.73913  1.3163e+22
-8.62182  1.3288e+22
-8.50452  1.34257e+22
-8.38721  1.3572e+22
-8.26991  1.37206e+22
-8.1526  1.3867e+22
-8.03529  1.4005e+22
-7.91799  1.41304e+22
-7.80069  1.42398e+22
-7.68338  1.43315e+22
-7.56608  1.44059e+22
-7.44877  1.44652e+22
-7.33146  1.45121e+22
-7.21416  1.45512e+22
-7.09685  1.45869e+22
-6.97955  1.46237e+22
-6.86224  1.46657e+22
-6.74494  1.47169e+22
-6.62763  1.47775e+22
-6.51033  1.48488e+22
-6.39302  1.49294e+22
-6.27572  1.50168e+22
-6.15842  1.51077e+22
-6.04111  1.51982e+22
-5.92381  1.52841e+22
-5.8065  1.53631e+22
-5.68919  1.54317e+22
-5.57189  1.54892e+22
-5.45458  1.55359e+22
-5.33728  1.55739e+22
-5.21997  1.56058e+22
-5.10267  1.56359e+22
-4.98536  1.56684e+22
-4.86806  1.57079e+22
-4.75075  1.57583e+22
-4.63345  1.58232e+22
-4.51614  1.5904e+22
-4.39884  1.60015e+22
-4.28154  1.61155e+22
-4.16423  1.62432e+22
-4.04692  1.6381e+22
-3.92962  1.65246e+22
-3.81231  1.66691e+22
-3.69501  1.68091e+22
-3.5777  1.69394e+22
-3.4604  1.70561e+22
-3.34309  1.7156e+22
-3.22579  1.72369e+22
-3.10849  1.72986e+22
-2.99118  1.73415e+22
-2.87387  1.73682e+22
-2.75657  1.73816e+22
-2.63926  1.7385e+22
-2.52196  1.73815e+22
-2.40465  1.73739e+22
-2.28735  1.73638e+22
-2.17005  1.73516e+22
-2.05274  1.73378e+22
-1.93544  1.73195e+22
-1.81813  1.72953e+22
-1.70083  1.72617e+22
-1.58352  1.72162e+22
-1.46622  1.71566e+22
-1.34891  1.70816e+22
-1.2316  1.69908e+22
-1.1143  1.68863e+22
-0.996995  1.67703e+22
-0.87969  1.66475e+22
-0.762385  1.65223e+22
-0.64508  1.64012e+22
-0.527775  1.62895e+22
-0.41047  1.61925e+22
-0.293165  1.61152e+22
-0.17586  1.60615e+22
-0.058555  1.60341e+22
0.05875  1.60341e+22
0.176055  1.60615e+22
0.29336  1.61149e+22
0.410665  1.61921e+22
0.52797  1.62887e+22
0.645275  1.64e+22
0.76258  1.65207e+22
0.879885  1.66451e+22
0.99719  1.6767e+22
1.1145  1.68817e+22
1.2318  1.6985e+22
1.3491  1.70743e+22
1.46641  1.71478e+22
1.58371  1.72059e+22
1.70102  1.72496e+22
1.81832  1.72814e+22
1.93563  1.73037e+22
2.05294  1.732e+22
2.17024  1.73324e+22
2.28754  1.73427e+22
2.40485  1.73511e+22
2.52216  1.7357e+22
2.63946  1.7359e+22
2.75677  1.73538e+22
2.87407  1.73389e+22
2.99137  1.73104e+22
3.10868  1.72657e+22
3.22599  1.72028e+22
3.34329  1.71208e+22
3.4606  1.70202e+22
3.5779  1.69026e+22
3.69521  1.67712e+22
3.81251  1.66311e+22
3.92982  1.6486e+22
4.04712  1.63421e+22
4.16443  1.62043e+22
4.28173  1.60765e+22
4.39903  1.59625e+22
4.51634  1.58645e+22
4.63364  1.57835e+22
4.75095  1.57182e+22
4.86825  1.56669e+22
4.98556  1.56266e+22
5.10286  1.55929e+22
5.22017  1.55617e+22
5.33748  1.55285e+22
5.45478  1.54893e+22
5.57209  1.54413e+22
5.68939  1.53823e+22
5.8067  1.53124e+22
5.924  1.52327e+22
6.0413  1.51458e+22
6.15861  1.50546e+22
6.27591  1.49631e+22
6.39322  1.48754e+22
6.51052  1.47949e+22
6.62783  1.47231e+22
6.74514  1.46619e+22
6.86244  1.46111e+22
6.97975  1.45684e+22
7.09705  1.45311e+22
7.21436  1.44948e+22
7.33166  1.44549e+22
7.44897  1.4407e+22
7.56627  1.43469e+22
7.68358  1.42711e+22
7.80088  1.4178e+22
7.91819  1.40671e+22
8.03549  1.39407e+22
8.1528  1.38019e+22
8.2701  1.36545e+22
8.38741  1.35048e+22
8.50471  1.33583e+22
8.62202  1.32199e+22
8.73932  1.30942e+22
8.85662  1.29843e+22
8.97393  1.28907e+22
9.09123  1.28126e+22
9.20854  1.27473e+22
9.32584  1.26904e+22
9.44315  1.26351e+22
9.56045  1.25755e+22
9.67776  1.25046e+22
9.79506  1.24159e+22
9.91237  1.23046e+22
10.0297  1.21673e+22
10.147  1.20028e+22
10.2643  1.18125e+22
10.3816  1.15993e+22
10.4989  1.13695e+22
10.6162  1.11295e+22
10.7335  1.08878e+22
10.8508  1.06522e+22
10.9681  1.04303e+22
11.0854  1.02289e+22
11.2027  1.00525e+22
11.32  9.90362e+21
11.4373  9.7832e+21
11.5546  9.68996e+21
11.6719  9.62072e+21
11.7893  9.5712e+21
11.9066  9.53537e+21
12.0239  9.50686e+21
12.1412  9.48034e+21
12.2585  9.4496e+21
12.3758  9.41017e+21
12.4931  9.35895e+21
12.6104  9.29425e+21
12.7277  9.21661e+21
12.845  9.12816e+21
12.9623  9.03116e+21
13.0796  8.93072e+21
13.1969  8.83031e+21
13.3142  8.73401e+21
13.4315  8.64454e+21
13.5488  8.56377e+21
13.6661  8.49177e+21
13.7834  8.4271e+21
13.9007  8.3677e+21
14.018  8.31056e+21
14.1354  8.25146e+21
14.2527  8.18745e+21
14.37  8.11566e+21
14.4873  8.03358e+21
14.6046  7.94057e+21
14.7219  7.83668e+21
14.8392  7.72343e+21
14.9565  7.60296e+21
15.0738  7.47805e+21
15.1911  7.35273e+21
15.3084  7.22968e+21
15.4257  7.11227e+21
15.543  7.00237e+21
15.6603  6.90095e+21
15.7776  6.8078e+21
15.8949  6.72077e+21
16.0122  6.63722e+21
16.1295  6.55345e+21
16.2468  6.46566e+21
16.3641  6.37027e+21
16.4815  6.26451e+21
16.5988  6.14639e+21
16.7161  6.01528e+21
16.8334  5.87305e+21
16.9507  5.72142e+21
17.068  5.56444e+21
17.1853  5.40638e+21
17.3026  5.25185e+21
17.4199  5.10565e+21
17.5372  4.97189e+21
17.6545  4.85329e+21
17.7718  4.7526e+21
17.8891  4.66986e+21
18.0064  4.60486e+21
18.1237  4.55533e+21
18.241  4.51849e+21
18.3583  4.4906e+21
18.4756  4.46746e+21
18.5929  4.44512e+21
18.7102  4.42001e+21
18.8275  4.38912e+21
18.9449  4.35095e+21
19.0622  4.30499e+21
19.1795  4.25155e+21
19.2968  4.1925e+21
19.4141  4.13014e+21
19.5314  4.06733e+21
19.6487  4.00655e+21
19.766  3.95017e+21
19.8833  3.90007e+21
20.0006  3.85654e+21
20.1179  3.81961e+21
20.2352  3.78801e+21
20.3525  3.75953e+21
20.4698  3.7316e+21
20.5871  3.70098e+21
20.7044  3.6648e+21
20.8217  3.62045e+21
20.939  3.56618e+21
21.0563  3.50125e+21
21.1736  3.42605e+21
21.291  3.34218e+21
21.4083  3.25187e+21
21.5256  3.15877e+21
21.6429  3.06599e+21
21.7602  2.97704e+21
21.8775  2.8945e+21
21.9948  2.8203e+21
22.1121  2.75501e+21
22.2294  2.6983e+21
22.3467  2.64879e+21
22.464  2.60465e+21
22.5813  2.56333e+21
22.6986  2.52292e+21
22.8159  2.48115e+21
22.9332  2.43683e+21
23.0505  2.38915e+21
23.1678  2.33823e+21
23.2851  2.28428e+21
23.4024  2.2281e+21
23.5198  2.17091e+21
23.6371  2.11378e+21
23.7544  2.05768e+21
23.8717  2.00342e+21
23.989  1.95161e+21
24.1063  1.9025e+21
24.2236  1.85594e+21
24.3409  1.81144e+21
24.4582  1.76847e+21
24.5755  1.72619e+21
24.6928  1.68405e+21
24.8101  1.64142e+21
24.9274  1.5983e+21
25.0447  1.55479e+21
25.162  1.51155e+21
25.2793  1.46939e+21
25.3966  1.42921e+21
25.5139  1.39195e+21
25.6312  1.35821e+21
25.7485  1.3284e+21
25.8658  1.30252e+21
25.9832  1.2802e+21
26.1005  1.2607e+21
26.2178  1.24317e+21
26.3351  1.22651e+21
26.4524  1.20966e+21
26.5697  1.19169e+21
26.687  1.17184e+21
26.8043  1.14941e+21
26.9216  1.12433e+21
27.0389  1.09676e+21
27.1562  1.06733e+21
27.2735  1.03692e+21
27.3908  1.00698e+21
27.5081  9.78856e+20
27.6254  9.53882e+20
27.7427  9.33293e+20
27.86  9.1763e+20
27.9773  9.07072e+20
28.0946  9.01118e+20
28.212  8.98877e+20
28.3293  8.9906e+20
28.4466  9.00227e+20
28.5639  9.01108e+20
28.6812  9.00559e+20
28.7985  8.98012e+20
28.9158  8.93079e+20
29.0331  8.85743e+20
29.1504  8.76479e+20
29.2677  8.65833e+20
29.385  8.5448e+20
29.5023  8.431e+20
29.6196  8.32279e+20
29.7369  8.22506e+20
29.8542  8.14005e+20
29.9715  8.06662e+20
30.0888  8.00129e+20
30.2061  7.93753e+20
30.3234  7.86831e+20
30.4407  7.78518e+20
30.558  7.68137e+20
30.6754  7.55342e+20
30.7927  7.40195e+20
30.91  7.23285e+20
31.0273  7.05392e+20
31.1446  6.87588e+20
31.2619  6.71135e+20
31.3792  6.56842e+20
31.4965  6.45395e+20
31.6138  6.37006e+20
31.7311  6.31216e+20
31.8484  6.27541e+20
31.9657  6.25054e+20
32.083  6.228e+20
32.2003  6.19888e+20
32.3176  6.15589e+20
32.4349  6.09575e+20
32.5522  6.01633e+20
32.6695  5.91997e+20
32.7868  5.81375e+20
32.9042  5.70468e+20
33.0215  5.6033e+20
33.1388  5.52178e+20
33.2561  5.46964e+20
33.3734  5.45693e+20
33.4907  5.48719e+20
33.608  5.56061e+20
33.7253  5.66961e+20
33.8426  5.80162e+20
33.9599  5.94197e+20
34.0772  6.07163e+20
34.1945  6.17476e+20
34.3118  6.23813e+20
34.4291  6.25539e+20
34.5464  6.22387e+20
34.6637  6.14568e+20
34.781  6.02956e+20
34.8983  5.88311e+20
35.0156  5.71735e+20
35.1329  5.54177e+20
35.2503  5.36341e+20
35.3676  5.19135e+20
35.4849  5.03031e+20
35.6022  4.88911e+20
35.7195  4.77272e+20
35.8368  4.68517e+20
35.9541  4.626e+20
36.0714  4.59146e+20
36.1887  4.57421e+20
36.306  4.5611e+20
36.4233  4.53678e+20
36.5406  4.48932e+20
36.6579  4.40955e+20
36.7752  4.29332e+20
36.8925  4.14522e+20
37.0098  3.97895e+20
37.1271  3.81054e+20
37.2444  3.66253e+20
37.3617  3.55302e+20
37.479  3.49789e+20
37.5964  3.50587e+20
37.7137  3.57655e+20
37.831  3.70373e+20
37.9483  3.87145e+20
38.0656  4.06362e+20
38.1829  4.25962e+20
38.3002  4.44007e+20
38.4175  4.58966e+20
38.5348  4.6943e+20
38.6521  4.74682e+20
38.7694  4.7436e+20
38.8867  4.68685e+20
39.004  4.58525e+20
39.1213  4.44975e+20
39.2386  4.29721e+20
39.3559  4.14426e+20
39.4732  4.00855e+20
39.5905  3.90447e+20
39.7078  3.84179e+20
39.8251  3.82318e+20
39.9425  3.84496e+20
40.0598  3.89832e+20
40.1771  3.96595e+20
40.2944  4.03148e+20
40.4117  4.07834e+20
40.529  4.09284e+20
40.6463  4.06531e+20
40.7636  3.99508e+20
40.8809  3.88443e+20
40.9982  3.74198e+20
41.1155  3.58051e+20
41.2328  3.41323e+20
41.3501  3.25356e+20
41.4674  3.11188e+20
41.5847  2.9966e+20
41.702  2.91143e+20
41.8193  2.85481e+20
41.9366  2.82359e+20
42.0539  2.80954e+20
42.1712  2.8032e+20
42.2885  2.79505e+20
42.4059  2.77815e+20
42.5232  2.74631e+20
42.6405  2.69918e+20
42.7578  2.63864e+20
42.8751  2.57254e+20
42.9924  2.50964e+20
43.1097  2.46059e+20
43.227  2.43423e+20
43.3443  2.43696e+20
43.4616  2.47145e+20
43.5789  2.53543e+20
43.6962  2.62357e+20
43.8135  2.72625e+20
43.9308  2.83375e+20
44.0481  2.93574e+20
44.1654  3.02305e+20
44.2827  3.08792e+20
44.4  3.12394e+20
44.5173  3.12742e+20
44.6347  3.09658e+20
44.752  3.03122e+20
44.8693  2.9335e+20
44.9866  2.8072e+20
45.1039  2.66053e+20
45.2212  2.50341e+20
45.3385  2.34779e+20
45.4558  2.2077e+20
45.5731  2.09481e+20
45.6904  2.01945e+20
45.8077  1.98723e+20
45.925  1.99776e+20
46.0423  2.04547e+20
46.1596  2.12044e+20
46.2769  2.20918e+20
46.3942  2.29847e+20
46.5115  2.3769e+20
46.6288  2.43639e+20
46.7461  2.47388e+20
46.8634  2.48997e+20
46.9808  2.49011e+20
47.0981  2.48232e+20
47.2154  2.47442e+20
47.3327  2.47556e+20
47.45  2.49065e+20
47.5673  2.52545e+20
47.6846  2.58096e+20
47.8019  2.65795e+20
47.9192  2.75404e+20
48.0365  2.86545e+20
48.1538  2.98859e+20
48.2711  3.11645e+20
48.3884  3.2438e+20
48.5057  3.36325e+20
48.623  3.46832e+20
48.7403  3.55326e+20
48.8576  3.61291e+20
48.9749  3.64393e+20
49.0922  3.64356e+20
49.2095  3.6102e+20
49.3269  3.54524e+20
49.4442  3.44947e+20
49.5615  3.32593e+20
49.6788  3.17772e+20
49.7961  3.00982e+20
49.9134  2.82722e+20
50.0307  2.63703e+20
50.148  2.44551e+20
50.2653  2.25828e+20
50.3826  2.08093e+20
50.4999  1.91721e+20
50.6172  1.76911e+20
50.7345  1.63687e+20
50.8518  1.52043e+20
50.9691  1.41877e+20
