#S 1 spectral density
#N 2
#UFWHM 35.1915
#L  abscissas [um]  spectral density
-58.5938  3.24546e+20
-58.4764  3.35408e+20
-58.3591  3.45626e+20
-58.2418  3.53483e+20
-58.1245  3.57454e+20
-58.0072  3.56808e+20
-57.8899  3.51584e+20
-57.7726  3.42252e+20
-57.6553  3.30088e+20
-57.538  3.16529e+20
-57.4207  3.03104e+20
-57.3034  2.91295e+20
-57.1861  2.82347e+20
-57.0688  2.77278e+20
-56.9515  2.7679e+20
-56.8342  2.81256e+20
-56.7169  2.90661e+20
-56.5996  3.04645e+20
-56.4823  3.22232e+20
-56.365  3.42139e+20
-56.2477  3.62763e+20
-56.1303  3.81995e+20
-56.013  3.98059e+20
-55.8957  4.09299e+20
-55.7784  4.14857e+20
-55.6611  4.14314e+20
-55.5438  4.0818e+20
-55.4265  3.97631e+20
-55.3092  3.8435e+20
-55.1919  3.70277e+20
-55.0746  3.57207e+20
-54.9573  3.46673e+20
-54.84  3.39845e+20
-54.7227  3.37367e+20
-54.6054  3.39343e+20
-54.4881  3.45469e+20
-54.3708  3.55015e+20
-54.2535  3.67277e+20
-54.1362  3.81328e+20
-54.0189  3.96238e+20
-53.9016  4.10965e+20
-53.7842  4.25081e+20
-53.6669  4.37879e+20
-53.5496  4.49505e+20
-53.4323  4.60176e+20
-53.315  4.70423e+20
-53.1977  4.8103e+20
-53.0804  4.92542e+20
-52.9631  5.05428e+20
-52.8458  5.19577e+20
-52.7285  5.34394e+20
-52.6112  5.48718e+20
-52.4939  5.61089e+20
-52.3766  5.69938e+20
-52.2593  5.73754e+20
-52.142  5.71593e+20
-52.0247  5.62946e+20
-51.9074  5.482e+20
-51.7901  5.28148e+20
-51.6728  5.04286e+20
-51.5555  4.78317e+20
-51.4381  4.51777e+20
-51.3208  4.26419e+20
-51.2035  4.03327e+20
-51.0862  3.8362e+20
-50.9689  3.67703e+20
-50.8516  3.55821e+20
-50.7343  3.48033e+20
-50.617  3.43957e+20
-50.4997  3.43114e+20
-50.3824  3.44819e+20
-50.2651  3.48212e+20
-50.1478  3.52616e+20
-50.0305  3.57038e+20
-49.9132  3.61045e+20
-49.7959  3.64066e+20
-49.6786  3.65937e+20
-49.5613  3.66882e+20
-49.444  3.67443e+20
-49.3267  3.68163e+20
-49.2094  3.69925e+20
-49.092  3.73666e+20
-48.9747  3.79954e+20
-48.8574  3.89317e+20
-48.7401  4.01921e+20
-48.6228  4.17536e+20
-48.5055  4.35483e+20
-48.3882  4.54832e+20
-48.2709  4.74157e+20
-48.1536  4.91944e+20
-48.0363  5.06691e+20
-47.919  5.17046e+20
-47.8017  5.22171e+20
-47.6844  5.21733e+20
-47.5671  5.162e+20
-47.4498  5.06631e+20
-47.3325  4.94689e+20
-47.2152  4.82406e+20
-47.0979  4.71837e+20
-46.9806  4.64953e+20
-46.8633  4.63174e+20
-46.7459  4.67264e+20
-46.6286  4.77473e+20
-46.5113  4.93033e+20
-46.394  5.12917e+20
-46.2767  5.35391e+20
-46.1594  5.58734e+20
-46.0421  5.81121e+20
-45.9248  6.00858e+20
-45.8075  6.16519e+20
-45.6902  6.27055e+20
-45.5729  6.31866e+20
-45.4556  6.31066e+20
-45.3383  6.24861e+20
-45.221  6.14325e+20
-45.1037  6.00567e+20
-44.9864  5.85143e+20
-44.8691  5.69302e+20
-44.7518  5.54241e+20
-44.6345  5.40767e+20
-44.5172  5.29263e+20
-44.3998  5.19543e+20
-44.2825  5.11102e+20
-44.1652  5.03089e+20
-44.0479  4.94782e+20
-43.9306  4.85465e+20
-43.8133  4.748e+20
-43.696  4.6303e+20
-43.5787  4.505e+20
-43.4614  4.37891e+20
-43.3441  4.2613e+20
-43.2268  4.16009e+20
-43.1095  4.08164e+20
-42.9922  4.02965e+20
-42.8749  4.00627e+20
-42.7576  4.01174e+20
-42.6403  4.04434e+20
-42.523  4.10341e+20
-42.4057  4.1864e+20
-42.2884  4.29201e+20
-42.171  4.41835e+20
-42.0537  4.5636e+20
-41.9364  4.7242e+20
-41.8191  4.89553e+20
-41.7018  5.07293e+20
-41.5845  5.25061e+20
-41.4672  5.42405e+20
-41.3499  5.58845e+20
-41.2326  5.74217e+20
-41.1153  5.88322e+20
-40.998  6.01235e+20
-40.8807  6.13047e+20
-40.7634  6.23992e+20
-40.6461  6.34268e+20
-40.5288  6.44066e+20
-40.4115  6.53424e+20
-40.2942  6.62538e+20
-40.1769  6.71174e+20
-40.0596  6.79021e+20
-39.9423  6.85841e+20
-39.825  6.91144e+20
-39.7076  6.94525e+20
-39.5903  6.95593e+20
-39.473  6.94151e+20
-39.3557  6.90514e+20
-39.2384  6.85068e+20
-39.1211  6.78715e+20
-39.0038  6.72678e+20
-38.8865  6.68073e+20
-38.7692  6.65927e+20
-38.6519  6.66953e+20
-38.5346  6.71318e+20
-38.4173  6.78595e+20
-38.3  6.87882e+20
-38.1827  6.9784e+20
-38.0654  7.07364e+20
-37.9481  7.15355e+20
-37.8308  7.21386e+20
-37.7135  7.25448e+20
-37.5962  7.28208e+20
-37.4789  7.30802e+20
-37.3615  7.34663e+20
-37.2442  7.41037e+20
-37.1269  7.51037e+20
-37.0096  7.65461e+20
-36.8923  7.84816e+20
-36.775  8.09121e+20
-36.6577  8.3808e+20
-36.5404  8.7134e+20
-36.4231  9.08255e+20
-36.3058  9.47954e+20
-36.1885  9.89455e+20
-36.0712  1.03134e+21
-35.9539  1.07232e+21
-35.8366  1.11068e+21
-35.7193  1.14492e+21
-35.602  1.174e+21
-35.4847  1.19703e+21
-35.3674  1.21388e+21
-35.2501  1.22516e+21
-35.1328  1.23184e+21
-35.0154  1.23549e+21
-34.8981  1.23736e+21
-34.7808  1.23902e+21
-34.6635  1.24152e+21
-34.5462  1.24542e+21
-34.4289  1.251e+21
-34.3116  1.25818e+21
-34.1943  1.26661e+21
-34.077  1.27592e+21
-33.9597  1.28569e+21
-33.8424  1.29572e+21
-33.7251  1.30579e+21
-33.6078  1.31591e+21
-33.4905  1.32601e+21
-33.3732  1.33635e+21
-33.2559  1.34732e+21
-33.1386  1.35957e+21
-33.0213  1.37392e+21
-32.904  1.39129e+21
-32.7867  1.41287e+21
-32.6693  1.43954e+21
-32.552  1.47194e+21
-32.4347  1.51007e+21
-32.3174  1.5535e+21
-32.2001  1.60119e+21
-32.0828  1.65142e+21
-31.9655  1.70233e+21
-31.8482  1.75186e+21
-31.7309  1.79824e+21
-31.6136  1.83981e+21
-31.4963  1.87567e+21
-31.379  1.90536e+21
-31.2617  1.92914e+21
-31.1444  1.94751e+21
-31.0271  1.96158e+21
-30.9098  1.97278e+21
-30.7925  1.98228e+21
-30.6752  1.99155e+21
-30.5579  2.00169e+21
-30.4406  2.01343e+21
-30.3232  2.02729e+21
-30.2059  2.04276e+21
-30.0886  2.05945e+21
-29.9713  2.07639e+21
-29.854  2.09248e+21
-29.7367  2.10675e+21
-29.6194  2.11854e+21
-29.5021  2.1276e+21
-29.3848  2.13422e+21
-29.2675  2.13928e+21
-29.1502  2.14388e+21
-29.0329  2.14955e+21
-28.9156  2.15769e+21
-28.7983  2.1696e+21
-28.681  2.18631e+21
-28.5637  2.20875e+21
-28.4464  2.2374e+21
-28.3291  2.27247e+21
-28.2118  2.31377e+21
-28.0944  2.36131e+21
-27.9771  2.41441e+21
-27.8598  2.47237e+21
-27.7425  2.53397e+21
-27.6252  2.59787e+21
-27.5079  2.66255e+21
-27.3906  2.72635e+21
-27.2733  2.78788e+21
-27.156  2.84591e+21
-27.0387  2.89952e+21
-26.9214  2.94846e+21
-26.8041  2.99259e+21
-26.6868  3.03254e+21
-26.5695  3.06897e+21
-26.4522  3.10263e+21
-26.3349  3.13447e+21
-26.2176  3.16563e+21
-26.1003  3.19644e+21
-25.983  3.22742e+21
-25.8657  3.25903e+21
-25.7483  3.29125e+21
-25.631  3.32429e+21
-25.5137  3.35761e+21
-25.3964  3.39123e+21
-25.2791  3.42505e+21
-25.1618  3.45904e+21
-25.0445  3.49314e+21
-24.9272  3.52818e+21
-24.8099  3.56453e+21
-24.6926  3.60315e+21
-24.5753  3.645e+21
-24.458  3.6905e+21
-24.3407  3.74012e+21
-24.2234  3.79362e+21
-24.1061  3.8501e+21
-23.9888  3.90837e+21
-23.8715  3.96683e+21
-23.7542  4.02383e+21
-23.6369  4.07749e+21
-23.5196  4.12641e+21
-23.4023  4.17006e+21
-23.2849  4.20815e+21
-23.1676  4.24134e+21
-23.0503  4.27081e+21
-22.933  4.29823e+21
-22.8157  4.32584e+21
-22.6984  4.35595e+21
-22.5811  4.39095e+21
-22.4638  4.43294e+21
-22.3465  4.48327e+21
-22.2292  4.54314e+21
-22.1119  4.61224e+21
-21.9946  4.69012e+21
-21.8773  4.77478e+21
-21.76  4.86362e+21
-21.6427  4.95395e+21
-21.5254  5.04289e+21
-21.4081  5.12706e+21
-21.2908  5.20409e+21
-21.1735  5.27235e+21
-21.0561  5.33086e+21
-20.9388  5.38021e+21
-20.8215  5.4213e+21
-20.7042  5.45606e+21
-20.5869  5.48696e+21
-20.4696  5.51677e+21
-20.3523  5.54765e+21
-20.235  5.58236e+21
-20.1177  5.62209e+21
-20.0004  5.6679e+21
-19.8831  5.7204e+21
-19.7658  5.77851e+21
-19.6485  5.8408e+21
-19.5312  5.90522e+21
-19.4139  5.96906e+21
-19.2966  6.02946e+21
-19.1793  6.08372e+21
-19.062  6.12987e+21
-18.9447  6.16624e+21
-18.8274  6.19252e+21
-18.71  6.21017e+21
-18.5927  6.22122e+21
-18.4754  6.2292e+21
-18.3581  6.23857e+21
-18.2408  6.25365e+21
-18.1235  6.27961e+21
-18.0062  6.32048e+21
-17.8889  6.3794e+21
-17.7716  6.45844e+21
-17.6543  6.55725e+21
-17.537  6.67477e+21
-17.4197  6.80754e+21
-17.3024  6.95124e+21
-17.1851  7.09993e+21
-17.0678  7.24727e+21
-16.9505  7.38743e+21
-16.8332  7.51486e+21
-16.7159  7.62472e+21
-16.5986  7.71385e+21
-16.4813  7.78093e+21
-16.364  7.82616e+21
-16.2466  7.85202e+21
-16.1293  7.86231e+21
-16.012  7.86119e+21
-15.8947  7.85397e+21
-15.7774  7.84607e+21
-15.6601  7.84177e+21
-15.5428  7.84519e+21
-15.4255  7.85841e+21
-15.3082  7.88263e+21
-15.1909  7.91864e+21
-15.0736  7.96463e+21
-14.9563  8.01879e+21
-14.839  8.07853e+21
-14.7217  8.14113e+21
-14.6044  8.20349e+21
-14.4871  8.26307e+21
-14.3698  8.31799e+21
-14.2525  8.36689e+21
-14.1352  8.40888e+21
-14.0178  8.44544e+21
-13.9005  8.47751e+21
-13.7832  8.5075e+21
-13.6659  8.53876e+21
-13.5486  8.57345e+21
-13.4313  8.61499e+21
-13.314  8.66517e+21
-13.1967  8.725e+21
-13.0794  8.79504e+21
-12.9621  8.87331e+21
-12.8448  8.95848e+21
-12.7275  9.04744e+21
-12.6102  9.13736e+21
-12.4929  9.22511e+21
-12.3756  9.30791e+21
-12.2583  9.38466e+21
-12.141  9.45436e+21
-12.0237  9.51747e+21
-11.9064  9.57482e+21
-11.7891  9.62824e+21
-11.6718  9.6802e+21
-11.5544  9.73342e+21
-11.4371  9.7911e+21
-11.3198  9.85447e+21
-11.2025  9.92541e+21
-11.0852  1.00048e+22
-10.9679  1.00921e+22
-10.8506  1.01859e+22
-10.7333  1.02834e+22
-10.616  1.03813e+22
-10.4987  1.0477e+22
-10.3814  1.05656e+22
-10.2641  1.06445e+22
-10.1468  1.07109e+22
-10.0295  1.07636e+22
-9.91217  1.08016e+22
-9.79487  1.08255e+22
-9.67756  1.08369e+22
-9.56026  1.08376e+22
-9.44295  1.08294e+22
-9.32565  1.08157e+22
-9.20834  1.07981e+22
-9.09104  1.07786e+22
-8.97373  1.07595e+22
-8.85643  1.07411e+22
-8.73913  1.07245e+22
-8.62182  1.07096e+22
-8.50452  1.06965e+22
-8.38721  1.06853e+22
-8.26991  1.06751e+22
-8.1526  1.06668e+22
-8.03529  1.06606e+22
-7.91799  1.06577e+22
-7.80069  1.066e+22
-7.68338  1.06697e+22
-7.56608  1.06901e+22
-7.44877  1.07244e+22
-7.33146  1.07762e+22
-7.21416  1.08479e+22
-7.09685  1.09414e+22
-6.97955  1.10578e+22
-6.86224  1.11962e+22
-6.74494  1.13553e+22
-6.62763  1.15298e+22
-6.51033  1.17148e+22
-6.39302  1.19031e+22
-6.27572  1.20871e+22
-6.15842  1.22583e+22
-6.04111  1.24088e+22
-5.92381  1.25318e+22
-5.8065  1.26226e+22
-5.68919  1.26771e+22
-5.57189  1.26956e+22
-5.45458  1.26796e+22
-5.33728  1.26337e+22
-5.21997  1.25639e+22
-5.10267  1.24777e+22
-4.98536  1.23829e+22
-4.86806  1.22874e+22
-4.75075  1.21977e+22
-4.63345  1.21197e+22
-4.51614  1.20567e+22
-4.39884  1.20102e+22
-4.28154  1.19806e+22
-4.16423  1.19658e+22
-4.04692  1.19627e+22
-3.92962  1.19671e+22
-3.81231  1.19753e+22
-3.69501  1.19834e+22
-3.5777  1.19875e+22
-3.4604  1.19866e+22
-3.34309  1.19794e+22
-3.22579  1.19669e+22
-3.10849  1.19513e+22
-2.99118  1.19364e+22
-2.87387  1.19268e+22
-2.75657  1.19274e+22
-2.63926  1.1943e+22
-2.52196  1.19775e+22
-2.40465  1.20332e+22
-2.28735  1.21111e+22
-2.17005  1.22095e+22
-2.05274  1.2326e+22
-1.93544  1.24539e+22
-1.81813  1.25872e+22
-1.70083  1.27175e+22
-1.58352  1.28371e+22
-1.46622  1.29379e+22
-1.34891  1.30141e+22
-1.2316  1.30611e+22
-1.1143  1.30773e+22
-0.996995  1.3063e+22
-0.87969  1.3022e+22
-0.762385  1.29595e+22
-0.64508  1.28836e+22
-0.527775  1.28022e+22
-0.41047  1.27241e+22
-0.293165  1.26573e+22
-0.17586  1.26088e+22
-0.058555  1.25833e+22
0.05875  1.25835e+22
0.176055  1.2609e+22
0.29336  1.26575e+22
0.410665  1.27242e+22
0.52797  1.28022e+22
0.645275  1.28832e+22
0.76258  1.29585e+22
0.879885  1.302e+22
0.99719  1.30601e+22
1.1145  1.30731e+22
1.2318  1.3056e+22
1.3491  1.30079e+22
1.46641  1.29306e+22
1.58371  1.28285e+22
1.70102  1.27079e+22
1.81832  1.25767e+22
1.93563  1.24426e+22
2.05294  1.23138e+22
2.17024  1.21972e+22
2.28754  1.20981e+22
2.40485  1.20199e+22
2.52216  1.19636e+22
2.63946  1.19292e+22
2.75677  1.1913e+22
2.87407  1.19121e+22
2.99137  1.19212e+22
3.10868  1.19356e+22
3.22599  1.19505e+22
3.34329  1.19629e+22
3.4606  1.19699e+22
3.5779  1.19708e+22
3.69521  1.19661e+22
3.81251  1.19581e+22
3.92982  1.19495e+22
4.04712  1.19449e+22
4.16443  1.19479e+22
4.28173  1.19628e+22
4.39903  1.19922e+22
4.51634  1.20382e+22
4.63364  1.21011e+22
4.75095  1.21786e+22
4.86825  1.22673e+22
4.98556  1.23619e+22
5.10286  1.24554e+22
5.22017  1.25404e+22
5.33748  1.26085e+22
5.45478  1.26527e+22
5.57209  1.26669e+22
5.68939  1.26465e+22
5.8067  1.25901e+22
5.924  1.24982e+22
6.0413  1.23739e+22
6.15861  1.22222e+22
6.27591  1.20503e+22
6.39322  1.1866e+22
6.51052  1.16776e+22
6.62783  1.14924e+22
6.74514  1.13181e+22
6.86244  1.11598e+22
6.97975  1.10215e+22
7.09705  1.09057e+22
7.21436  1.08125e+22
7.33166  1.07413e+22
7.44897  1.069e+22
7.56627  1.06559e+22
7.68358  1.06353e+22
7.80088  1.06253e+22
7.91819  1.06227e+22
8.03549  1.06254e+22
8.1528  1.06313e+22
8.2701  1.0639e+22
8.38741  1.06484e+22
8.50471  1.06592e+22
8.62202  1.06714e+22
8.73932  1.06856e+22
8.85662  1.07015e+22
8.97393  1.07192e+22
9.09123  1.07378e+22
9.20854  1.07563e+22
9.32584  1.07737e+22
9.44315  1.07868e+22
9.56045  1.07942e+22
9.67776  1.07932e+22
9.79506  1.07814e+22
9.91237  1.0757e+22
10.0297  1.07185e+22
10.147  1.06656e+22
10.2643  1.05991e+22
10.3816  1.05198e+22
10.4989  1.04311e+22
10.6162  1.03356e+22
10.7335  1.02375e+22
10.8508  1.014e+22
10.9681  1.00465e+22
11.0854  9.95953e+21
11.2027  9.88045e+21
11.32  9.80919e+21
11.4373  9.74581e+21
11.5546  9.6885e+21
11.6719  9.63496e+21
11.7893  9.58299e+21
11.9066  9.52917e+21
12.0239  9.47163e+21
12.1412  9.40863e+21
12.2585  9.33864e+21
12.3758  9.26149e+21
12.4931  9.17821e+21
12.6104  9.09031e+21
12.7277  9.0004e+21
12.845  8.91154e+21
12.9623  8.82603e+21
13.0796  8.74759e+21
13.1969  8.6777e+21
13.3142  8.61752e+21
13.4315  8.56708e+21
13.5488  8.5254e+21
13.6661  8.49019e+21
13.7834  8.45857e+21
13.9007  8.42788e+21
14.018  8.39557e+21
14.1354  8.35846e+21
14.2527  8.31576e+21
14.37  8.26653e+21
14.4873  8.21118e+21
14.6046  8.15123e+21
14.7219  8.08859e+21
14.8392  8.02604e+21
14.9565  7.96631e+21
15.0738  7.91191e+21
15.1911  7.86616e+21
15.3084  7.83022e+21
15.4257  7.80579e+21
15.543  7.79244e+21
15.6603  7.78908e+21
15.7776  7.79334e+21
15.8949  7.80136e+21
16.0122  7.80802e+21
16.1295  7.80881e+21
16.2468  7.79837e+21
16.3641  7.77209e+21
16.4815  7.72664e+21
16.5988  7.65937e+21
16.7161  7.57006e+21
16.8334  7.46058e+21
16.9507  7.33352e+21
17.068  7.19356e+21
17.1853  7.04668e+21
17.3026  6.89869e+21
17.4199  6.75592e+21
17.5372  6.62413e+21
17.6545  6.50725e+21
17.7718  6.4092e+21
17.8891  6.331e+21
18.0064  6.27254e+21
18.1237  6.23191e+21
18.241  6.20615e+21
18.3583  6.19096e+21
18.4756  6.1814e+21
18.5929  6.17306e+21
18.7102  6.16177e+21
18.8275  6.14356e+21
18.9449  6.11666e+21
19.0622  6.07983e+21
19.1795  6.03328e+21
19.2968  5.97868e+21
19.4141  5.91806e+21
19.5314  5.85432e+21
19.6487  5.78989e+21
19.766  5.72757e+21
19.8833  5.66979e+21
20.0006  5.61743e+21
20.1179  5.57172e+21
20.2352  5.53201e+21
20.3525  5.49759e+21
20.4698  5.4669e+21
20.5871  5.43752e+21
20.7044  5.40666e+21
20.8217  5.37195e+21
20.939  5.33091e+21
21.0563  5.28183e+21
21.1736  5.22353e+21
21.291  5.15561e+21
21.4083  5.07874e+21
21.5256  4.99514e+21
21.6429  4.90691e+21
21.7602  4.81694e+21
21.8775  4.72865e+21
21.9948  4.64464e+21
22.1121  4.56752e+21
22.2294  4.49906e+21
22.3467  4.43975e+21
22.464  4.38991e+21
22.5813  4.34838e+21
22.6986  4.31382e+21
22.8159  4.28391e+21
22.9332  4.25648e+21
23.0505  4.22925e+21
23.1678  4.19992e+21
23.2851  4.16685e+21
23.4024  4.12895e+21
23.5198  4.08535e+21
23.6371  4.03652e+21
23.7544  3.98316e+21
23.8717  3.92639e+21
23.989  3.86821e+21
24.1063  3.81025e+21
24.2236  3.75423e+21
24.3409  3.70115e+21
24.4582  3.65187e+21
24.5755  3.60672e+21
24.6928  3.56516e+21
24.8101  3.52671e+21
24.9274  3.49036e+21
25.0447  3.45556e+21
25.162  3.42162e+21
25.2793  3.38788e+21
25.3966  3.35426e+21
25.5139  3.32066e+21
25.6312  3.28732e+21
25.7485  3.25456e+21
25.8658  3.22249e+21
25.9832  3.19114e+21
26.1005  3.16012e+21
26.2178  3.12957e+21
26.3351  3.09872e+21
26.4524  3.06692e+21
26.5697  3.03342e+21
26.687  2.99722e+21
26.8043  2.95749e+21
26.9216  2.91361e+21
27.0389  2.86494e+21
27.1562  2.81167e+21
27.2735  2.75404e+21
27.3908  2.69305e+21
27.5081  2.62977e+21
27.6254  2.56569e+21
27.7427  2.50251e+21
27.86  2.44161e+21
27.9773  2.38438e+21
28.0946  2.33201e+21
28.212  2.28513e+21
28.3293  2.24435e+21
28.4466  2.20999e+21
28.5639  2.18182e+21
28.6812  2.15981e+21
28.7985  2.14342e+21
28.9158  2.13181e+21
29.0331  2.12392e+21
29.1504  2.11836e+21
29.2677  2.11385e+21
29.385  2.10886e+21
29.5023  2.10213e+21
29.6196  2.09302e+21
29.7369  2.08121e+21
29.8542  2.06704e+21
29.9715  2.05097e+21
30.0888  2.03419e+21
30.2061  2.01759e+21
30.3234  2.00221e+21
30.4407  1.98862e+21
30.558  1.97706e+21
30.6754  1.96718e+21
30.7927  1.95798e+21
30.91  1.94863e+21
31.0273  1.93767e+21
31.1446  1.92367e+21
31.2619  1.90539e+21
31.3792  1.88181e+21
31.4965  1.85224e+21
31.6138  1.81659e+21
31.7311  1.77515e+21
31.8484  1.72917e+21
31.9657  1.67996e+21
32.083  1.62949e+21
32.2003  1.57973e+21
32.3176  1.53257e+21
32.4349  1.4897e+21
32.5522  1.45206e+21
32.6695  1.42022e+21
32.7868  1.39405e+21
32.9042  1.37286e+21
33.0215  1.35584e+21
33.1388  1.34188e+21
33.2561  1.32997e+21
33.3734  1.31928e+21
33.4907  1.30922e+21
33.608  1.29942e+21
33.7253  1.28968e+21
33.8426  1.27986e+21
33.9599  1.27017e+21
34.0772  1.26068e+21
34.1945  1.2517e+21
34.3118  1.24359e+21
34.4291  1.23672e+21
34.5464  1.23143e+21
34.6637  1.22774e+21
34.781  1.2255e+21
34.8983  1.22396e+21
35.0156  1.22214e+21
35.1329  1.21866e+21
35.2503  1.21198e+21
35.3676  1.20073e+21
35.4849  1.18377e+21
35.6022  1.16081e+21
35.7195  1.13191e+21
35.8368  1.09775e+21
35.9541  1.05964e+21
36.0714  1.019e+21
36.1887  9.77414e+20
36.306  9.36418e+20
36.4233  8.97085e+20
36.5406  8.60657e+20
36.6579  8.27832e+20
36.7752  7.99288e+20
36.8925  7.75391e+20
37.0098  7.56366e+20
37.1271  7.42219e+20
37.2444  7.32416e+20
37.3617  7.26231e+20
37.479  7.22544e+20
37.5964  7.1994e+20
37.7137  7.17218e+20
37.831  7.13172e+20
37.9483  7.07244e+20
38.0656  6.99294e+20
38.1829  6.89895e+20
38.3002  6.80196e+20
38.4175  6.71246e+20
38.5348  6.64318e+20
38.6521  6.60345e+20
38.7694  6.59668e+20
38.8867  6.62204e+20
39.004  6.67099e+20
39.1213  6.73441e+20
39.2386  6.79877e+20
39.3559  6.85393e+20
39.4732  6.89099e+20
39.5905  6.90425e+20
39.7078  6.89307e+20
39.8251  6.85928e+20
39.9425  6.80537e+20
40.0598  6.73636e+20
40.1771  6.65696e+20
40.2944  6.57127e+20
40.4117  6.48053e+20
40.529  6.38728e+20
40.6463  6.29028e+20
40.7636  6.18782e+20
40.8809  6.07917e+20
40.9982  5.96259e+20
41.1155  5.83396e+20
41.2328  5.69394e+20
41.3501  5.54146e+20
41.4674  5.37817e+20
41.5847  5.20583e+20
41.702  5.02917e+20
41.8193  4.85315e+20
41.9366  4.68294e+20
42.0539  4.52368e+20
42.1712  4.37994e+20
42.2885  4.25463e+20
42.4059  4.15046e+20
42.5232  4.06909e+20
42.6405  4.01186e+20
42.7578  3.98074e+20
42.8751  3.97699e+20
42.9924  4.0029e+20
43.1097  4.05657e+20
43.227  4.13721e+20
43.3443  4.2404e+20
43.4616  4.35907e+20
43.5789  4.48601e+20
43.6962  4.61196e+20
43.8135  4.7304e+20
43.9308  4.83637e+20
44.0481  4.92942e+20
44.1654  5.01285e+20
44.2827  5.09224e+20
44.4  5.17656e+20
44.5173  5.27468e+20
44.6347  5.38995e+20
44.752  5.52498e+20
44.8693  5.67525e+20
44.9866  5.83418e+20
45.1039  5.98801e+20
45.2212  6.12513e+20
45.3385  6.23011e+20
45.4558  6.28981e+20
45.5731  6.29722e+20
45.6904  6.24799e+20
45.8077  6.1411e+20
45.925  5.98406e+20
46.0423  5.78649e+20
46.1596  5.56365e+20
46.2769  5.33039e+20
46.3942  5.1072e+20
46.5115  4.91056e+20
46.6288  4.75713e+20
46.7461  4.65729e+20
46.8634  4.61807e+20
46.9808  4.6387e+20
47.0981  4.70856e+20
47.2154  4.81524e+20
47.3327  4.93745e+20
47.45  5.05688e+20
47.5673  5.15166e+20
47.6846  5.20512e+20
47.8019  5.20743e+20
47.9192  5.15458e+20
48.0365  5.04999e+20
48.1538  4.90177e+20
48.2711  4.72308e+20
48.3884  4.53006e+20
48.5057  4.33746e+20
48.623  4.15941e+20
48.7403  4.00493e+20
48.8576  3.8801e+20
48.9749  3.78763e+20
49.0922  3.72567e+20
49.2095  3.68989e+20
49.3269  3.67254e+20
49.4442  3.66641e+20
49.5615  3.66055e+20
49.6788  3.65092e+20
49.7961  3.63169e+20
49.9134  3.60161e+20
50.0307  3.56179e+20
50.148  3.51688e+20
50.2653  3.47384e+20
50.3826  3.43985e+20
50.4999  3.42341e+20
50.6172  3.43271e+20
50.7345  3.4743e+20
