#S 1 spectral density
#N 2
#UFWHM 29.9128
#L  abscissas [um]  spectral density
-58.5938  2.1412e+20
-58.4764  2.16798e+20
-58.3591  2.16988e+20
-58.2418  2.14491e+20
-58.1245  2.09394e+20
-58.0072  2.02106e+20
-57.8899  1.93334e+20
-57.7726  1.83906e+20
-57.6553  1.74722e+20
-57.538  1.66465e+20
-57.4207  1.59624e+20
-57.3034  1.54413e+20
-57.1861  1.50812e+20
-57.0688  1.48578e+20
-56.9515  1.47529e+20
-56.8342  1.47457e+20
-56.7169  1.4818e+20
-56.5996  1.49602e+20
-56.4823  1.51547e+20
-56.365  1.53745e+20
-56.2477  1.55873e+20
-56.1303  1.576e+20
-56.013  1.58558e+20
-55.8957  1.58683e+20
-55.7784  1.58183e+20
-55.6611  1.57576e+20
-55.5438  1.57699e+20
-55.4265  1.59442e+20
-55.3092  1.63706e+20
-55.1919  1.71016e+20
-55.0746  1.81534e+20
-54.9573  1.9479e+20
-54.84  2.09801e+20
-54.7227  2.25422e+20
-54.6054  2.40175e+20
-54.4881  2.52748e+20
-54.3708  2.62079e+20
-54.2535  2.67567e+20
-54.1362  2.68946e+20
-54.0189  2.66336e+20
-53.9016  2.60253e+20
-53.7842  2.51255e+20
-53.6669  2.40149e+20
-53.5496  2.27714e+20
-53.4323  2.14715e+20
-53.315  2.01933e+20
-53.1977  1.89973e+20
-53.0804  1.7932e+20
-52.9631  1.70252e+20
-52.8458  1.62846e+20
-52.7285  1.56914e+20
-52.6112  1.52216e+20
-52.4939  1.48365e+20
-52.3766  1.45248e+20
-52.2593  1.42839e+20
-52.142  1.41456e+20
-52.0247  1.41707e+20
-51.9074  1.44263e+20
-51.7901  1.49893e+20
-51.6728  1.59081e+20
-51.5555  1.71935e+20
-51.4381  1.88238e+20
-51.3208  2.07113e+20
-51.2035  2.27568e+20
-51.0862  2.48249e+20
-50.9689  2.6805e+20
-50.8516  2.85976e+20
-50.7343  3.01406e+20
-50.617  3.14143e+20
-50.4997  3.24493e+20
-50.3824  3.32766e+20
-50.2651  3.39661e+20
-50.1478  3.4558e+20
-50.0305  3.51022e+20
-49.9132  3.56082e+20
-49.7959  3.60732e+20
-49.6786  3.64647e+20
-49.5613  3.67353e+20
-49.444  3.6838e+20
-49.3267  3.67159e+20
-49.2094  3.63236e+20
-49.092  3.56345e+20
-48.9747  3.46476e+20
-48.8574  3.33873e+20
-48.7401  3.18948e+20
-48.6228  3.02483e+20
-48.5055  2.85362e+20
-48.3882  2.68459e+20
-48.2709  2.52771e+20
-48.1536  2.39184e+20
-48.0363  2.28334e+20
-47.919  2.20806e+20
-47.8017  2.1692e+20
-47.6844  2.16882e+20
-47.5671  2.20669e+20
-47.4498  2.28044e+20
-47.3325  2.38687e+20
-47.2152  2.51888e+20
-47.0979  2.66853e+20
-46.9806  2.82529e+20
-46.8633  2.97807e+20
-46.7459  3.1157e+20
-46.6286  3.22935e+20
-46.5113  3.31516e+20
-46.394  3.37348e+20
-46.2767  3.41096e+20
-46.1594  3.4389e+20
-46.0421  3.47216e+20
-45.9248  3.52696e+20
-45.8075  3.61718e+20
-45.6902  3.75256e+20
-45.5729  3.93587e+20
-45.4556  4.1631e+20
-45.3383  4.42355e+20
-45.221  4.70084e+20
-45.1037  4.97509e+20
-44.9864  5.22488e+20
-44.8691  5.43164e+20
-44.7518  5.58097e+20
-44.6345  5.66321e+20
-44.5172  5.67346e+20
-44.3998  5.61571e+20
-44.2825  5.49794e+20
-44.1652  5.33657e+20
-44.0479  5.14853e+20
-43.9306  4.95563e+20
-43.8133  4.77865e+20
-43.696  4.63507e+20
-43.5787  4.53939e+20
-43.4614  4.49854e+20
-43.3441  4.51178e+20
-43.2268  4.57112e+20
-43.1095  4.66252e+20
-42.9922  4.76877e+20
-42.8749  4.8715e+20
-42.7576  4.95496e+20
-42.6403  5.00839e+20
-42.523  5.02842e+20
-42.4057  5.01756e+20
-42.2884  4.98644e+20
-42.171  4.94957e+20
-42.0537  4.91958e+20
-41.9364  4.91208e+20
-41.8191  4.93464e+20
-41.7018  4.99329e+20
-41.5845  5.08395e+20
-41.4672  5.19861e+20
-41.3499  5.32467e+20
-41.2326  5.4461e+20
-41.1153  5.54618e+20
-40.998  5.60968e+20
-40.8807  5.62341e+20
-40.7634  5.5823e+20
-40.6461  5.48397e+20
-40.5288  5.33628e+20
-40.4115  5.14826e+20
-40.2942  4.93745e+20
-40.1769  4.72233e+20
-40.0596  4.52317e+20
-39.9423  4.3567e+20
-39.825  4.23568e+20
-39.7076  4.16797e+20
-39.5903  4.1528e+20
-39.473  4.18525e+20
-39.3557  4.25475e+20
-39.2384  4.3478e+20
-39.1211  4.45023e+20
-39.0038  4.55002e+20
-38.8865  4.63626e+20
-38.7692  4.70197e+20
-38.6519  4.74429e+20
-38.5346  4.76401e+20
-38.4173  4.76569e+20
-38.3  4.75676e+20
-38.1827  4.74818e+20
-38.0654  4.75458e+20
-37.9481  4.79015e+20
-37.8308  4.87171e+20
-37.7135  5.01121e+20
-37.5962  5.21877e+20
-37.4789  5.49549e+20
-37.3615  5.83395e+20
-37.2442  6.21845e+20
-37.1269  6.62291e+20
-37.0096  7.01967e+20
-36.8923  7.37705e+20
-36.775  7.66905e+20
-36.6577  7.87639e+20
-36.5404  7.99172e+20
-36.4231  8.01771e+20
-36.3058  7.96653e+20
-36.1885  7.86066e+20
-36.0712  7.72307e+20
-35.9539  7.57771e+20
-35.8366  7.44393e+20
-35.7193  7.33478e+20
-35.602  7.25947e+20
-35.4847  7.2163e+20
-35.3674  7.20049e+20
-35.2501  7.20496e+20
-35.1328  7.21976e+20
-35.0154  7.23451e+20
-34.8981  7.23773e+20
-34.7808  7.22049e+20
-34.6635  7.17762e+20
-34.5462  7.10347e+20
-34.4289  6.99869e+20
-34.3116  6.86838e+20
-34.1943  6.72076e+20
-34.077  6.56643e+20
-33.9597  6.41975e+20
-33.8424  6.29302e+20
-33.7251  6.19754e+20
-33.6078  6.13756e+20
-33.4905  6.11418e+20
-33.3732  6.12287e+20
-33.2559  6.15477e+20
-33.1386  6.20107e+20
-33.0213  6.25149e+20
-32.904  6.29891e+20
-32.7867  6.33972e+20
-32.6693  6.37524e+20
-32.552  6.40943e+20
-32.4347  6.44794e+20
-32.3174  6.49788e+20
-32.2001  6.56706e+20
-32.0828  6.66156e+20
-31.9655  6.78615e+20
-31.8482  6.94413e+20
-31.7309  7.13804e+20
-31.6136  7.36844e+20
-31.4963  7.63432e+20
-31.379  7.93228e+20
-31.2617  8.25901e+20
-31.1444  8.60648e+20
-31.0271  8.96765e+20
-30.9098  9.3359e+20
-30.7925  9.702e+20
-30.6752  1.00601e+21
-30.5579  1.0407e+21
-30.4406  1.07397e+21
-30.3232  1.10579e+21
-30.2059  1.13609e+21
-30.0886  1.16501e+21
-29.9713  1.1926e+21
-29.854  1.21894e+21
-29.7367  1.24392e+21
-29.6194  1.26752e+21
-29.5021  1.28967e+21
-29.3848  1.3103e+21
-29.2675  1.32928e+21
-29.1502  1.34652e+21
-29.0329  1.3618e+21
-28.9156  1.37498e+21
-28.7983  1.38579e+21
-28.681  1.39419e+21
-28.5637  1.40042e+21
-28.4464  1.40492e+21
-28.3291  1.40846e+21
-28.2118  1.4121e+21
-28.0944  1.41712e+21
-27.9771  1.42474e+21
-27.8598  1.43591e+21
-27.7425  1.4511e+21
-27.6252  1.47049e+21
-27.5079  1.4935e+21
-27.3906  1.51925e+21
-27.2733  1.54668e+21
-27.156  1.57454e+21
-27.0387  1.60217e+21
-26.9214  1.62903e+21
-26.8041  1.65531e+21
-26.6868  1.68174e+21
-26.5695  1.70954e+21
-26.4522  1.74026e+21
-26.3349  1.77557e+21
-26.2176  1.81715e+21
-26.1003  1.86604e+21
-25.983  1.92309e+21
-25.8657  1.98832e+21
-25.7483  2.06087e+21
-25.631  2.13925e+21
-25.5137  2.2208e+21
-25.3964  2.30293e+21
-25.2791  2.3822e+21
-25.1618  2.45559e+21
-25.0445  2.52011e+21
-24.9272  2.57389e+21
-24.8099  2.61567e+21
-24.6926  2.64556e+21
-24.5753  2.66445e+21
-24.458  2.67448e+21
-24.3407  2.67817e+21
-24.2234  2.67877e+21
-24.1061  2.67912e+21
-23.9888  2.68222e+21
-23.8715  2.6905e+21
-23.7542  2.70577e+21
-23.6369  2.72897e+21
-23.5196  2.76028e+21
-23.4023  2.79938e+21
-23.2849  2.84501e+21
-23.1676  2.89545e+21
-23.0503  2.94861e+21
-22.933  3.00243e+21
-22.8157  3.05476e+21
-22.6984  3.10409e+21
-22.5811  3.14937e+21
-22.4638  3.19056e+21
-22.3465  3.2282e+21
-22.2292  3.26376e+21
-22.1119  3.29917e+21
-21.9946  3.33689e+21
-21.8773  3.3792e+21
-21.76  3.42819e+21
-21.6427  3.4855e+21
-21.5254  3.55219e+21
-21.4081  3.62831e+21
-21.2908  3.71323e+21
-21.1735  3.80579e+21
-21.0561  3.90416e+21
-20.9388  4.00644e+21
-20.8215  4.10996e+21
-20.7042  4.21271e+21
-20.5869  4.31242e+21
-20.4696  4.40744e+21
-20.3523  4.49635e+21
-20.235  4.5788e+21
-20.1177  4.65421e+21
-20.0004  4.72338e+21
-19.8831  4.7871e+21
-19.7658  4.84639e+21
-19.6485  4.90223e+21
-19.5312  4.95585e+21
-19.4139  5.0072e+21
-19.2966  5.0566e+21
-19.1793  5.10359e+21
-19.062  5.14769e+21
-18.9447  5.18775e+21
-18.8274  5.22308e+21
-18.71  5.25386e+21
-18.5927  5.28028e+21
-18.4754  5.30339e+21
-18.3581  5.32526e+21
-18.2408  5.3483e+21
-18.1235  5.37589e+21
-18.0062  5.41139e+21
-17.8889  5.45787e+21
-17.7716  5.51885e+21
-17.6543  5.59594e+21
-17.537  5.69083e+21
-17.4197  5.80328e+21
-17.3024  5.93235e+21
-17.1851  6.07546e+21
-17.0678  6.22871e+21
-16.9505  6.38804e+21
-16.8332  6.54868e+21
-16.7159  6.7055e+21
-16.5986  6.85377e+21
-16.4813  6.99004e+21
-16.364  7.11167e+21
-16.2466  7.21796e+21
-16.1293  7.3092e+21
-16.012  7.38717e+21
-15.8947  7.45496e+21
-15.7774  7.51661e+21
-15.6601  7.57634e+21
-15.5428  7.63866e+21
-15.4255  7.70687e+21
-15.3082  7.7843e+21
-15.1909  7.87361e+21
-15.0736  7.97468e+21
-14.9563  8.08731e+21
-14.839  8.2098e+21
-14.7217  8.33878e+21
-14.6044  8.47058e+21
-14.4871  8.60073e+21
-14.3698  8.72477e+21
-14.2525  8.83846e+21
-14.1352  8.93814e+21
-14.0178  9.02269e+21
-13.9005  9.09098e+21
-13.7832  9.14423e+21
-13.6659  9.18545e+21
-13.5486  9.2179e+21
-13.4313  9.24651e+21
-13.314  9.27552e+21
-13.1967  9.30911e+21
-13.0794  9.35129e+21
-12.9621  9.40301e+21
-12.8448  9.46614e+21
-12.7275  9.53944e+21
-12.6102  9.62174e+21
-12.4929  9.71045e+21
-12.3756  9.80235e+21
-12.2583  9.89528e+21
-12.141  9.98662e+21
-12.0237  1.00741e+22
-11.9064  1.01566e+22
-11.7891  1.02337e+22
-11.6718  1.03058e+22
-11.5544  1.03745e+22
-11.4371  1.04424e+22
-11.3198  1.05111e+22
-11.2025  1.05838e+22
-11.0852  1.06633e+22
-10.9679  1.07514e+22
-10.8506  1.08494e+22
-10.7333  1.09575e+22
-10.616  1.10748e+22
-10.4987  1.12011e+22
-10.3814  1.13327e+22
-10.2641  1.14677e+22
-10.1468  1.16027e+22
-10.0295  1.17352e+22
-9.91217  1.1862e+22
-9.79487  1.19811e+22
-9.67756  1.20902e+22
-9.56026  1.21878e+22
-9.44295  1.22721e+22
-9.32565  1.23433e+22
-9.20834  1.24e+22
-9.09104  1.24425e+22
-8.97373  1.24715e+22
-8.85643  1.24872e+22
-8.73913  1.24911e+22
-8.62182  1.24846e+22
-8.50452  1.24697e+22
-8.38721  1.2449e+22
-8.26991  1.2424e+22
-8.1526  1.23986e+22
-8.03529  1.23751e+22
-7.91799  1.23572e+22
-7.80069  1.23482e+22
-7.68338  1.23517e+22
-7.56608  1.23717e+22
-7.44877  1.24116e+22
-7.33146  1.24741e+22
-7.21416  1.25616e+22
-7.09685  1.26753e+22
-6.97955  1.28146e+22
-6.86224  1.2978e+22
-6.74494  1.31633e+22
-6.62763  1.33643e+22
-6.51033  1.35756e+22
-6.39302  1.379e+22
-6.27572  1.39994e+22
-6.15842  1.41957e+22
-6.04111  1.43715e+22
-5.92381  1.45199e+22
-5.8065  1.46372e+22
-5.68919  1.47195e+22
-5.57189  1.47673e+22
-5.45458  1.47823e+22
-5.33728  1.47696e+22
-5.21997  1.47346e+22
-5.10267  1.46849e+22
-4.98536  1.46281e+22
-4.86806  1.45715e+22
-4.75075  1.45214e+22
-4.63345  1.44831e+22
-4.51614  1.44593e+22
-4.39884  1.44512e+22
-4.28154  1.44588e+22
-4.16423  1.44791e+22
-4.04692  1.45086e+22
-3.92962  1.4543e+22
-3.81231  1.45783e+22
-3.69501  1.46099e+22
-3.5777  1.46346e+22
-3.4604  1.46508e+22
-3.34309  1.4658e+22
-3.22579  1.46576e+22
-3.10849  1.46527e+22
-2.99118  1.46474e+22
-2.87387  1.46475e+22
-2.75657  1.46585e+22
-2.63926  1.46859e+22
-2.52196  1.47341e+22
-2.40465  1.48058e+22
-2.28735  1.49014e+22
-2.17005  1.50193e+22
-2.05274  1.51563e+22
-1.93544  1.53049e+22
-1.81813  1.54578e+22
-1.70083  1.56058e+22
-1.58352  1.57399e+22
-1.46622  1.58514e+22
-1.34891  1.59339e+22
-1.2316  1.59822e+22
-1.1143  1.59949e+22
-0.996995  1.59728e+22
-0.87969  1.59203e+22
-0.762385  1.58436e+22
-0.64508  1.5752e+22
-0.527775  1.5655e+22
-0.41047  1.55624e+22
-0.293165  1.54836e+22
-0.17586  1.54264e+22
-0.058555  1.53964e+22
0.05875  1.53965e+22
0.176055  1.54265e+22
0.29336  1.54835e+22
0.410665  1.55623e+22
0.52797  1.56547e+22
0.645275  1.57512e+22
0.76258  1.5842e+22
0.879885  1.59175e+22
0.99719  1.59689e+22
1.1145  1.59896e+22
1.2318  1.59754e+22
1.3491  1.59257e+22
1.46641  1.58419e+22
1.58371  1.57286e+22
1.70102  1.5593e+22
1.81832  1.54438e+22
1.93563  1.52894e+22
2.05294  1.51396e+22
2.17024  1.50022e+22
2.28754  1.4883e+22
2.40485  1.47865e+22
2.52216  1.47139e+22
2.63946  1.46651e+22
2.75677  1.46367e+22
2.87407  1.46248e+22
2.99137  1.46236e+22
3.10868  1.46277e+22
3.22599  1.46315e+22
3.34329  1.46311e+22
3.4606  1.46231e+22
3.5779  1.46061e+22
3.69521  1.45803e+22
3.81251  1.45481e+22
3.92982  1.45122e+22
4.04712  1.4477e+22
4.16443  1.44472e+22
4.28173  1.44265e+22
4.39903  1.44188e+22
4.51634  1.44263e+22
4.63364  1.44499e+22
4.75095  1.44877e+22
4.86825  1.4537e+22
4.98556  1.45927e+22
5.10286  1.46485e+22
5.22017  1.46971e+22
5.33748  1.47308e+22
5.45478  1.47423e+22
5.57209  1.47257e+22
5.68939  1.46764e+22
5.8067  1.45928e+22
5.924  1.44745e+22
6.0413  1.43249e+22
6.15861  1.41482e+22
6.27591  1.39512e+22
6.39322  1.37417e+22
6.51052  1.35275e+22
6.62783  1.3316e+22
6.74514  1.31152e+22
6.86244  1.29309e+22
6.97975  1.27676e+22
7.09705  1.26289e+22
7.21436  1.25159e+22
7.33166  1.24288e+22
7.44897  1.23664e+22
7.56627  1.2327e+22
7.68358  1.23067e+22
7.80088  1.23028e+22
7.91819  1.23111e+22
8.03549  1.23286e+22
8.1528  1.23514e+22
8.2701  1.23758e+22
8.38741  1.23991e+22
8.50471  1.24188e+22
8.62202  1.24321e+22
8.73932  1.24369e+22
8.85662  1.24316e+22
8.97393  1.24144e+22
9.09123  1.2384e+22
9.20854  1.23401e+22
9.32584  1.22826e+22
9.44315  1.22106e+22
9.56045  1.21252e+22
9.67776  1.20273e+22
9.79506  1.19176e+22
9.91237  1.17984e+22
10.0297  1.16715e+22
10.147  1.15393e+22
10.2643  1.14046e+22
10.3816  1.12699e+22
10.4989  1.11387e+22
10.6162  1.10132e+22
10.7335  1.08959e+22
10.8508  1.0788e+22
10.9681  1.06903e+22
11.0854  1.06027e+22
11.2027  1.05236e+22
11.32  1.04505e+22
11.4373  1.03815e+22
11.5546  1.03138e+22
11.6719  1.02446e+22
11.7893  1.01724e+22
11.9066  1.00951e+22
12.0239  1.00124e+22
12.1412  9.92496e+21
12.2585  9.8338e+21
12.3758  9.74084e+21
12.4931  9.64885e+21
12.6104  9.56033e+21
12.7277  9.47847e+21
12.845  9.40555e+21
12.9623  9.34257e+21
13.0796  9.2908e+21
13.1969  9.249e+21
13.3142  9.21504e+21
13.4315  9.18557e+21
13.5488  9.15665e+21
13.6661  9.12346e+21
13.7834  9.08141e+21
13.9007  9.02709e+21
14.018  8.95814e+21
14.1354  8.87267e+21
14.2527  8.77185e+21
14.37  8.65766e+21
14.4873  8.53295e+21
14.6046  8.40245e+21
14.7219  8.27043e+21
14.8392  8.14139e+21
14.9565  8.01933e+21
15.0738  7.90668e+21
15.1911  7.80607e+21
15.3084  7.71734e+21
15.4257  7.64004e+21
15.543  7.57197e+21
15.6603  7.51016e+21
15.7776  7.45098e+21
15.8949  7.38972e+21
16.0122  7.32216e+21
16.1295  7.24438e+21
16.2468  7.15352e+21
16.3641  7.04761e+21
16.4815  6.92654e+21
16.5988  6.79097e+21
16.7161  6.64317e+21
16.8334  6.48759e+21
16.9507  6.3281e+21
17.068  6.16988e+21
17.1853  6.01771e+21
17.3026  5.87589e+21
17.4199  5.74818e+21
17.5372  5.63705e+21
17.6545  5.54312e+21
17.7718  5.46714e+21
17.8891  5.40717e+21
18.0064  5.36138e+21
18.1237  5.32641e+21
18.241  5.2992e+21
18.3583  5.27631e+21
18.4756  5.25449e+21
18.5929  5.23134e+21
18.7102  5.20497e+21
18.8275  5.1739e+21
18.9449  5.13824e+21
19.0622  5.09804e+21
19.1795  5.05377e+21
19.2968  5.00656e+21
19.4141  4.95685e+21
19.5314  4.9054e+21
19.6487  4.85184e+21
19.766  4.79576e+21
19.8833  4.7365e+21
20.0006  4.6727e+21
20.1179  4.60351e+21
20.2352  4.52804e+21
20.3525  4.44593e+21
20.4698  4.35733e+21
20.5871  4.26279e+21
20.7044  4.16363e+21
20.8217  4.06146e+21
20.939  3.95853e+21
21.0563  3.85709e+21
21.1736  3.7595e+21
21.291  3.66784e+21
21.4083  3.58355e+21
21.5256  3.5084e+21
21.6429  3.44251e+21
21.7602  3.3859e+21
21.8775  3.33744e+21
21.9948  3.29565e+21
22.1121  3.25836e+21
22.2294  3.22335e+21
22.3467  3.18795e+21
22.464  3.15069e+21
22.5813  3.10975e+21
22.6986  3.06487e+21
22.8159  3.01592e+21
22.9332  2.96406e+21
23.0505  2.91085e+21
23.1678  2.85834e+21
23.2851  2.80864e+21
23.4024  2.76379e+21
23.5198  2.7254e+21
23.6371  2.69479e+21
23.7544  2.67241e+21
23.8717  2.65776e+21
23.989  2.64996e+21
24.1063  2.64726e+21
24.2236  2.64725e+21
24.3409  2.64686e+21
24.4582  2.64325e+21
24.5755  2.6333e+21
24.6928  2.61433e+21
24.8101  2.5844e+21
24.9274  2.54261e+21
25.0447  2.48891e+21
25.162  2.42459e+21
25.2793  2.35161e+21
25.3966  2.27285e+21
25.5139  2.19131e+21
25.6312  2.1103e+21
25.7485  2.03275e+21
25.8658  1.96094e+21
25.9832  1.89663e+21
26.1005  1.84022e+21
26.2178  1.79203e+21
26.3351  1.75117e+21
26.4524  1.7164e+21
26.5697  1.68616e+21
26.687  1.65877e+21
26.8043  1.63266e+21
26.9216  1.60667e+21
27.0389  1.58009e+21
27.1562  1.55286e+21
27.2735  1.5252e+21
27.3908  1.4982e+21
27.5081  1.47286e+21
27.6254  1.45027e+21
27.7427  1.43137e+21
27.86  1.41664e+21
27.9773  1.40596e+21
28.0946  1.39878e+21
28.212  1.39412e+21
28.3293  1.39082e+21
28.4466  1.38757e+21
28.5639  1.38341e+21
28.6812  1.37739e+21
28.7985  1.36926e+21
28.9158  1.35869e+21
29.0331  1.34576e+21
29.1504  1.33072e+21
29.2677  1.31375e+21
29.385  1.29499e+21
29.5023  1.27458e+21
29.6196  1.25266e+21
29.7369  1.22927e+21
29.8542  1.20452e+21
29.9715  1.17842e+21
30.0888  1.15106e+21
30.2061  1.12237e+21
30.3234  1.09229e+21
30.4407  1.06074e+21
30.558  1.02778e+21
30.6754  9.93429e+20
30.7927  9.57889e+20
30.91  9.2168e+20
31.0273  8.85392e+20
31.1446  8.49678e+20
31.2619  8.15411e+20
31.3792  7.8332e+20
31.4965  7.53967e+20
31.6138  7.27886e+20
31.7311  7.053e+20
31.8484  6.86347e+20
31.9657  6.70884e+20
32.083  6.58794e+20
32.2003  6.49676e+20
32.3176  6.42961e+20
32.4349  6.38149e+20
32.5522  6.34426e+20
32.6695  6.31145e+20
32.7868  6.277e+20
32.9042  6.23652e+20
33.0215  6.19042e+20
33.1388  6.14134e+20
33.2561  6.09753e+20
33.3734  6.06713e+20
33.4907  6.06064e+20
33.608  6.08744e+20
33.7253  6.14979e+20
33.8426  6.24826e+20
33.9599  6.37696e+20
34.0772  6.52501e+20
34.1945  6.68045e+20
34.3118  6.82874e+20
34.4291  6.95993e+20
34.5464  7.06422e+20
34.6637  7.13768e+20
34.781  7.18104e+20
34.8983  7.19745e+20
35.0156  7.19456e+20
35.1329  7.18183e+20
35.2503  7.1686e+20
35.3676  7.16528e+20
35.4849  7.18213e+20
35.6022  7.22832e+20
35.7195  7.30678e+20
35.8368  7.41759e+20
35.9541  7.55399e+20
36.0714  7.7e+20
36.1887  7.83823e+20
36.306  7.94483e+20
36.4233  7.99343e+20
36.5406  7.96556e+20
36.6579  7.84847e+20
36.7752  7.63918e+20
36.8925  7.3452e+20
37.0098  6.98703e+20
37.1271  6.59078e+20
37.2444  6.18705e+20
37.3617  5.8044e+20
37.479  5.46855e+20
37.5964  5.19532e+20
37.7137  4.99055e+20
37.831  4.85401e+20
37.9483  4.77462e+20
38.0656  4.74101e+20
38.1829  4.73648e+20
38.3002  4.74598e+20
38.4175  4.75534e+20
38.5348  4.75384e+20
38.6521  4.73425e+20
38.7694  4.69121e+20
38.8867  4.62473e+20
39.004  4.53811e+20
39.1213  4.43835e+20
39.2386  4.33596e+20
39.3559  4.24323e+20
39.4732  4.17453e+20
39.5905  4.14256e+20
39.7078  4.15864e+20
39.8251  4.22853e+20
39.9425  4.35001e+20
40.0598  4.51862e+20
40.1771  4.71763e+20
40.2944  4.93251e+20
40.4117  5.14286e+20
40.529  5.33018e+20
40.6463  5.4769e+20
40.7636  5.57298e+20
40.8809  5.61331e+20
40.9982  5.59781e+20
41.1155  5.53349e+20
41.2328  5.43281e+20
41.3501  5.31165e+20
41.4674  5.18579e+20
41.5847  5.07185e+20
41.702  4.9833e+20
41.8193  4.92587e+20
41.9366  4.90471e+20
42.0539  4.91343e+20
42.1712  4.94344e+20
42.2885  4.98173e+20
42.4059  5.01192e+20
42.5232  5.02202e+20
42.6405  5.0004e+20
42.7578  4.94637e+20
42.8751  4.86222e+20
42.9924  4.75826e+20
43.1097  4.65198e+20
43.227  4.56065e+20
43.3443  4.50198e+20
43.4616  4.48946e+20
43.5789  4.53088e+20
43.6962  4.62711e+20
43.8135  4.77003e+20
43.9308  4.94727e+20
44.0481  5.13896e+20
44.1654  5.32544e+20
44.2827  5.48559e+20
44.4  5.60067e+20
44.5173  5.65574e+20
44.6347  5.64299e+20
44.752  5.55996e+20
44.8693  5.40898e+20
44.9866  5.2003e+20
45.1039  4.95039e+20
45.2212  4.67693e+20
45.3385  4.40015e+20
45.4558  4.14152e+20
45.5731  3.91578e+20
45.6904  3.73385e+20
45.8077  3.60012e+20
45.925  3.51102e+20
46.0423  3.45719e+20
46.1596  3.42373e+20
46.2769  3.39531e+20
46.3942  3.35713e+20
46.5115  3.29772e+20
46.6288  3.21126e+20
46.7461  3.09699e+20
46.8634  2.95927e+20
46.9808  2.80642e+20
47.0981  2.65035e+20
47.2154  2.5017e+20
47.3327  2.37093e+20
47.45  2.26596e+20
47.5673  2.19355e+20
47.6846  2.15707e+20
47.8019  2.15919e+20
47.9192  2.19912e+20
48.0365  2.27548e+20
48.1538  2.38471e+20
48.2711  2.52136e+20
48.3884  2.67843e+20
48.5057  2.84689e+20
48.623  3.01786e+20
48.7403  3.1814e+20
48.8576  3.32948e+20
48.9749  3.45459e+20
49.0922  3.55157e+20
49.2095  3.61842e+20
49.3269  3.6562e+20
49.4442  3.66741e+20
49.5615  3.6564e+20
49.6788  3.62821e+20
49.7961  3.58894e+20
49.9134  3.54233e+20
50.0307  3.49159e+20
50.148  3.43778e+20
50.2653  3.37838e+20
50.3826  3.30986e+20
50.4999  3.22687e+20
50.6172  3.12381e+20
50.7345  2.99564e+20
50.8518  2.84126e+20
