#S 1 spectral density
#N 2
#UFWHM 21.2322
#L  abscissas [um]  spectral density
-58.5938  1.38829e+20
-58.4764  1.36633e+20
-58.3591  1.34007e+20
-58.2418  1.30943e+20
-58.1245  1.27473e+20
-58.0072  1.23982e+20
-57.8899  1.20845e+20
-57.7726  1.18681e+20
-57.6553  1.17981e+20
-57.538  1.19151e+20
-57.4207  1.22347e+20
-57.3034  1.27509e+20
-57.1861  1.34373e+20
-57.0688  1.42526e+20
-56.9515  1.51624e+20
-56.8342  1.61263e+20
-56.7169  1.71154e+20
-56.5996  1.81045e+20
-56.4823  1.9066e+20
-56.365  1.99693e+20
-56.2477  2.07774e+20
-56.1303  2.14318e+20
-56.013  2.18889e+20
-55.8957  2.21093e+20
-55.7784  2.20755e+20
-55.6611  2.17891e+20
-55.5438  2.12858e+20
-55.4265  2.06254e+20
-55.3092  1.9873e+20
-55.1919  1.91064e+20
-55.0746  1.83887e+20
-54.9573  1.77669e+20
-54.84  1.72872e+20
-54.7227  1.69652e+20
-54.6054  1.68232e+20
-54.4881  1.68644e+20
-54.3708  1.7088e+20
-54.2535  1.74932e+20
-54.1362  1.80661e+20
-54.0189  1.87641e+20
-53.9016  1.95362e+20
-53.7842  2.03155e+20
-53.6669  2.10203e+20
-53.5496  2.15905e+20
-53.4323  2.19598e+20
-53.315  2.21108e+20
-53.1977  2.20351e+20
-53.0804  2.17617e+20
-52.9631  2.13351e+20
-52.8458  2.08157e+20
-52.7285  2.02543e+20
-52.6112  1.96987e+20
-52.4939  1.91875e+20
-52.3766  1.87535e+20
-52.2593  1.8425e+20
-52.142  1.82251e+20
-52.0247  1.81847e+20
-51.9074  1.83256e+20
-51.7901  1.86644e+20
-51.6728  1.91985e+20
-51.5555  1.99138e+20
-51.4381  2.07441e+20
-51.3208  2.16292e+20
-51.2035  2.24828e+20
-51.0862  2.32243e+20
-50.9689  2.37794e+20
-50.8516  2.40953e+20
-50.7343  2.41624e+20
-50.617  2.39793e+20
-50.4997  2.35866e+20
-50.3824  2.3036e+20
-50.2651  2.23785e+20
-50.1478  2.16844e+20
-50.0305  2.10022e+20
-49.9132  2.03834e+20
-49.7959  1.9859e+20
-49.6786  1.94453e+20
-49.5613  1.91659e+20
-49.444  1.90284e+20
-49.3267  1.90168e+20
-49.2094  1.91095e+20
-49.092  1.92831e+20
-48.9747  1.94908e+20
-48.8574  1.97077e+20
-48.7401  1.9884e+20
-48.6228  2.00086e+20
-48.5055  2.0058e+20
-48.3882  2.00273e+20
-48.2709  1.99338e+20
-48.1536  1.98086e+20
-48.0363  1.96816e+20
-47.919  1.96029e+20
-47.8017  1.96224e+20
-47.6844  1.98009e+20
-47.5671  2.01842e+20
-47.4498  2.08106e+20
-47.3325  2.17019e+20
-47.2152  2.28521e+20
-47.0979  2.42256e+20
-46.9806  2.57483e+20
-46.8633  2.73364e+20
-46.7459  2.885e+20
-46.6286  3.01769e+20
-46.5113  3.12041e+20
-46.394  3.18465e+20
-46.2767  3.20562e+20
-46.1594  3.18203e+20
-46.0421  3.11803e+20
-45.9248  3.01953e+20
-45.8075  2.89575e+20
-45.6902  2.75658e+20
-45.5729  2.61124e+20
-45.4556  2.46905e+20
-45.3383  2.33843e+20
-45.221  2.22561e+20
-45.1037  2.13689e+20
-44.9864  2.07561e+20
-44.8691  2.04527e+20
-44.7518  2.04721e+20
-44.6345  2.07961e+20
-44.5172  2.13755e+20
-44.3998  2.21476e+20
-44.2825  2.30176e+20
-44.1652  2.39015e+20
-44.0479  2.46974e+20
-43.9306  2.53488e+20
-43.8133  2.58063e+20
-43.696  2.60552e+20
-43.5787  2.61258e+20
-43.4614  2.60684e+20
-43.3441  2.59347e+20
-43.2268  2.57941e+20
-43.1095  2.57005e+20
-42.9922  2.57033e+20
-42.8749  2.58205e+20
-42.7576  2.60693e+20
-42.6403  2.64461e+20
-42.523  2.6945e+20
-42.4057  2.75472e+20
-42.2884  2.8227e+20
-42.171  2.89584e+20
-42.0537  2.96902e+20
-41.9364  3.03794e+20
-41.8191  3.09757e+20
-41.7018  3.14304e+20
-41.5845  3.17125e+20
-41.4672  3.18002e+20
-41.3499  3.17004e+20
-41.2326  3.14349e+20
-41.1153  3.10579e+20
-40.998  3.06292e+20
-40.8807  3.02238e+20
-40.7634  2.99036e+20
-40.6461  2.97463e+20
-40.5288  2.97885e+20
-40.4115  3.00735e+20
-40.2942  3.06151e+20
-40.1769  3.14008e+20
-40.0596  3.2408e+20
-39.9423  3.35892e+20
-39.825  3.48597e+20
-39.7076  3.61407e+20
-39.5903  3.73247e+20
-39.473  3.83327e+20
-39.3557  3.90855e+20
-39.2384  3.95443e+20
-39.1211  3.96954e+20
-39.0038  3.95632e+20
-38.8865  3.9211e+20
-38.7692  3.87131e+20
-38.6519  3.81421e+20
-38.5346  3.75776e+20
-38.4173  3.7073e+20
-38.3  3.66614e+20
-38.1827  3.63508e+20
-38.0654  3.6153e+20
-37.9481  3.60596e+20
-37.8308  3.60814e+20
-37.7135  3.62192e+20
-37.5962  3.6485e+20
-37.4789  3.68774e+20
-37.3615  3.73783e+20
-37.2442  3.79543e+20
-37.1269  3.85379e+20
-37.0096  3.90662e+20
-36.8923  3.94687e+20
-36.775  3.96963e+20
-36.6577  3.97307e+20
-36.5404  3.95884e+20
-36.4231  3.93356e+20
-36.3058  3.90477e+20
-36.1885  3.88268e+20
-36.0712  3.87476e+20
-35.9539  3.88852e+20
-35.8366  3.92579e+20
-35.7193  3.9863e+20
-35.602  4.06835e+20
-35.4847  4.1665e+20
-35.3674  4.27777e+20
-35.2501  4.39995e+20
-35.1328  4.52968e+20
-35.0154  4.66757e+20
-34.8981  4.81011e+20
-34.7808  4.95729e+20
-34.6635  5.10609e+20
-34.5462  5.25206e+20
-34.4289  5.39028e+20
-34.3116  5.51659e+20
-34.1943  5.62816e+20
-34.077  5.72235e+20
-33.9597  5.79866e+20
-33.8424  5.85955e+20
-33.7251  5.90736e+20
-33.6078  5.94373e+20
-33.4905  5.9699e+20
-33.3732  5.98776e+20
-33.2559  5.99664e+20
-33.1386  5.9973e+20
-33.0213  5.9898e+20
-32.904  5.9768e+20
-32.7867  5.96038e+20
-32.6693  5.94458e+20
-32.552  5.93382e+20
-32.4347  5.92996e+20
-32.3174  5.93796e+20
-32.2001  5.95839e+20
-32.0828  5.99308e+20
-31.9655  6.04184e+20
-31.8482  6.10424e+20
-31.7309  6.18157e+20
-31.6136  6.27093e+20
-31.4963  6.37266e+20
-31.379  6.48324e+20
-31.2617  6.6013e+20
-31.1444  6.72149e+20
-31.0271  6.83721e+20
-30.9098  6.9448e+20
-30.7925  7.03627e+20
-30.6752  7.10829e+20
-30.5579  7.15888e+20
-30.4406  7.18482e+20
-30.3232  7.18903e+20
-30.2059  7.16882e+20
-30.0886  7.1301e+20
-29.9713  7.07545e+20
-29.854  7.00793e+20
-29.7367  6.93183e+20
-29.6194  6.85232e+20
-29.5021  6.77565e+20
-29.3848  6.70625e+20
-29.2675  6.64839e+20
-29.1502  6.60711e+20
-29.0329  6.58422e+20
-28.9156  6.57804e+20
-28.7983  6.58549e+20
-28.681  6.60264e+20
-28.5637  6.62345e+20
-28.4464  6.64323e+20
-28.3291  6.65808e+20
-28.2118  6.66846e+20
-28.0944  6.67498e+20
-27.9771  6.68074e+20
-27.8598  6.69119e+20
-27.7425  6.70775e+20
-27.6252  6.73676e+20
-27.5079  6.77771e+20
-27.3906  6.83232e+20
-27.2733  6.8986e+20
-27.156  6.97467e+20
-27.0387  7.06002e+20
-26.9214  7.15019e+20
-26.8041  7.24425e+20
-26.6868  7.33929e+20
-26.5695  7.4345e+20
-26.4522  7.52715e+20
-26.3349  7.61322e+20
-26.2176  7.69274e+20
-26.1003  7.7618e+20
-25.983  7.82134e+20
-25.8657  7.87278e+20
-25.7483  7.91698e+20
-25.631  7.95896e+20
-25.5137  7.9997e+20
-25.3964  8.04502e+20
-25.2791  8.09824e+20
-25.1618  8.16099e+20
-25.0445  8.23525e+20
-24.9272  8.32154e+20
-24.8099  8.42051e+20
-24.6926  8.53041e+20
-24.5753  8.64899e+20
-24.458  8.77481e+20
-24.3407  8.90473e+20
-24.2234  9.0338e+20
-24.1061  9.15856e+20
-23.9888  9.27484e+20
-23.8715  9.3805e+20
-23.7542  9.47395e+20
-23.6369  9.55668e+20
-23.5196  9.63314e+20
-23.4023  9.70959e+20
-23.2849  9.79286e+20
-23.1676  9.89216e+20
-23.0503  1.00136e+21
-22.933  1.01666e+21
-22.8157  1.03544e+21
-22.6984  1.05823e+21
-22.5811  1.08514e+21
-22.4638  1.11632e+21
-22.3465  1.15172e+21
-22.2292  1.19101e+21
-22.1119  1.23378e+21
-21.9946  1.2794e+21
-21.8773  1.32713e+21
-21.76  1.37588e+21
-21.6427  1.42442e+21
-21.5254  1.47176e+21
-21.4081  1.51663e+21
-21.2908  1.55825e+21
-21.1735  1.59613e+21
-21.0561  1.63001e+21
-20.9388  1.66021e+21
-20.8215  1.68746e+21
-20.7042  1.71259e+21
-20.5869  1.73695e+21
-20.4696  1.76189e+21
-20.3523  1.78885e+21
-20.235  1.81926e+21
-20.1177  1.85447e+21
-20.0004  1.8956e+21
-19.8831  1.94378e+21
-19.7658  1.99945e+21
-19.6485  2.06308e+21
-19.5312  2.13436e+21
-19.4139  2.21283e+21
-19.2966  2.29721e+21
-19.1793  2.38621e+21
-19.062  2.47796e+21
-18.9447  2.57059e+21
-18.8274  2.66223e+21
-18.71  2.7515e+21
-18.5927  2.83687e+21
-18.4754  2.91761e+21
-18.3581  2.9935e+21
-18.2408  3.06478e+21
-18.1235  3.13196e+21
-18.0062  3.19618e+21
-17.8889  3.25868e+21
-17.7716  3.32121e+21
-17.6543  3.38491e+21
-17.537  3.45148e+21
-17.4197  3.52171e+21
-17.3024  3.59653e+21
-17.1851  3.67614e+21
-17.0678  3.76014e+21
-16.9505  3.84789e+21
-16.8332  3.9384e+21
-16.7159  4.03007e+21
-16.5986  4.12147e+21
-16.4813  4.21127e+21
-16.364  4.29833e+21
-16.2466  4.38216e+21
-16.1293  4.46335e+21
-16.012  4.54195e+21
-15.8947  4.61968e+21
-15.7774  4.69842e+21
-15.6601  4.78045e+21
-15.5428  4.86813e+21
-15.4255  4.96372e+21
-15.3082  5.06927e+21
-15.1909  5.18702e+21
-15.0736  5.31725e+21
-14.9563  5.46077e+21
-14.839  5.61673e+21
-14.7217  5.7839e+21
-14.6044  5.95935e+21
-14.4871  6.14017e+21
-14.3698  6.32233e+21
-14.2525  6.5015e+21
-14.1352  6.67356e+21
-14.0178  6.83547e+21
-13.9005  6.98393e+21
-13.7832  7.11745e+21
-13.6659  7.2363e+21
-13.5486  7.34141e+21
-13.4313  7.43526e+21
-13.314  7.52138e+21
-13.1967  7.60401e+21
-13.0794  7.68823e+21
-12.9621  7.77777e+21
-12.8448  7.8776e+21
-12.7275  7.99047e+21
-12.6102  8.11919e+21
-12.4929  8.2649e+21
-12.3756  8.42734e+21
-12.2583  8.60571e+21
-12.141  8.79757e+21
-12.0237  8.99963e+21
-11.9064  9.2078e+21
-11.7891  9.41784e+21
-11.6718  9.62536e+21
-11.5544  9.82685e+21
-11.4371  1.00202e+22
-11.3198  1.02026e+22
-11.2025  1.03744e+22
-11.0852  1.05363e+22
-10.9679  1.06906e+22
-10.8506  1.084e+22
-10.7333  1.09876e+22
-10.616  1.11369e+22
-10.4987  1.12919e+22
-10.3814  1.1454e+22
-10.2641  1.16257e+22
-10.1468  1.18075e+22
-10.0295  1.19992e+22
-9.91217  1.21989e+22
-9.79487  1.24046e+22
-9.67756  1.26127e+22
-9.56026  1.28194e+22
-9.44295  1.30209e+22
-9.32565  1.32144e+22
-9.20834  1.33963e+22
-9.09104  1.35649e+22
-8.97373  1.37204e+22
-8.85643  1.3863e+22
-8.73913  1.3995e+22
-8.62182  1.41195e+22
-8.50452  1.42402e+22
-8.38721  1.43621e+22
-8.26991  1.44882e+22
-8.1526  1.46227e+22
-8.03529  1.47675e+22
-7.91799  1.49243e+22
-7.80069  1.50929e+22
-7.68338  1.52715e+22
-7.56608  1.5458e+22
-7.44877  1.56488e+22
-7.33146  1.58396e+22
-7.21416  1.60264e+22
-7.09685  1.6205e+22
-6.97955  1.63723e+22
-6.86224  1.65261e+22
-6.74494  1.66663e+22
-6.62763  1.67926e+22
-6.51033  1.69072e+22
-6.39302  1.70134e+22
-6.27572  1.7115e+22
-6.15842  1.72162e+22
-6.04111  1.73209e+22
-5.92381  1.74331e+22
-5.8065  1.75564e+22
-5.68919  1.7692e+22
-5.57189  1.7841e+22
-5.45458  1.80029e+22
-5.33728  1.8176e+22
-5.21997  1.8357e+22
-5.10267  1.85426e+22
-4.98536  1.87281e+22
-4.86806  1.89088e+22
-4.75075  1.90806e+22
-4.63345  1.92401e+22
-4.51614  1.93843e+22
-4.39884  1.95118e+22
-4.28154  1.96232e+22
-4.16423  1.97197e+22
-4.04692  1.98038e+22
-3.92962  1.98787e+22
-3.81231  1.99482e+22
-3.69501  2.00166e+22
-3.5777  2.0086e+22
-3.4604  2.01593e+22
-3.34309  2.0237e+22
-3.22579  2.03193e+22
-3.10849  2.04045e+22
-2.99118  2.04905e+22
-2.87387  2.05746e+22
-2.75657  2.06535e+22
-2.63926  2.07243e+22
-2.52196  2.07849e+22
-2.40465  2.08339e+22
-2.28735  2.08711e+22
-2.17005  2.08978e+22
-2.05274  2.09167e+22
-1.93544  2.09309e+22
-1.81813  2.09447e+22
-1.70083  2.0963e+22
-1.58352  2.09903e+22
-1.46622  2.10306e+22
-1.34891  2.10869e+22
-1.2316  2.1161e+22
-1.1143  2.12533e+22
-0.996995  2.13619e+22
-0.87969  2.14832e+22
-0.762385  2.16123e+22
-0.64508  2.17427e+22
-0.527775  2.18672e+22
-0.41047  2.19783e+22
-0.293165  2.2069e+22
-0.17586  2.21333e+22
-0.058555  2.21668e+22
0.05875  2.21673e+22
0.176055  2.21347e+22
0.29336  2.20714e+22
0.410665  2.19817e+22
0.52797  2.18719e+22
0.645275  2.17488e+22
0.76258  2.16199e+22
0.879885  2.14925e+22
0.99719  2.13731e+22
1.1145  2.12667e+22
1.2318  2.11766e+22
1.3491  2.11045e+22
1.46641  2.10506e+22
1.58371  2.10126e+22
1.70102  2.09878e+22
1.81832  2.0972e+22
1.93563  2.09604e+22
2.05294  2.09486e+22
2.17024  2.09321e+22
2.28754  2.09074e+22
2.40485  2.08722e+22
2.52216  2.08252e+22
2.63946  2.07665e+22
2.75677  2.06975e+22
2.87407  2.06202e+22
2.99137  2.05378e+22
3.10868  2.0453e+22
3.22599  2.03689e+22
3.34329  2.02879e+22
3.4606  2.02113e+22
3.5779  2.0139e+22
3.69521  2.00704e+22
3.81251  2.0003e+22
3.92982  1.9934e+22
4.04712  1.98597e+22
4.16443  1.97765e+22
4.28173  1.96809e+22
4.39903  1.95703e+22
4.51634  1.94436e+22
4.63364  1.93008e+22
4.75095  1.91426e+22
4.86825  1.8972e+22
4.98556  1.87928e+22
5.10286  1.86088e+22
5.22017  1.8425e+22
5.33748  1.82455e+22
5.45478  1.80742e+22
5.57209  1.79143e+22
5.68939  1.77667e+22
5.8067  1.76326e+22
5.924  1.75108e+22
6.0413  1.73996e+22
6.15861  1.72958e+22
6.27591  1.71954e+22
6.39322  1.70948e+22
6.51052  1.69892e+22
6.62783  1.68747e+22
6.74514  1.67486e+22
6.86244  1.66091e+22
6.97975  1.64553e+22
7.09705  1.62885e+22
7.21436  1.61105e+22
7.33166  1.5924e+22
7.44897  1.57338e+22
7.56627  1.55438e+22
7.68358  1.5358e+22
7.80088  1.51799e+22
7.91819  1.50119e+22
8.03549  1.4856e+22
8.1528  1.47121e+22
8.2701  1.4578e+22
8.38741  1.44522e+22
8.50471  1.4331e+22
8.62202  1.42102e+22
8.73932  1.40857e+22
8.85662  1.39539e+22
8.97393  1.38113e+22
9.09123  1.36558e+22
9.20854  1.34868e+22
9.32584  1.33052e+22
9.44315  1.31118e+22
9.56045  1.291e+22
9.67776  1.27035e+22
9.79506  1.24954e+22
9.91237  1.22899e+22
10.0297  1.20902e+22
10.147  1.18988e+22
10.2643  1.17173e+22
10.3816  1.15453e+22
10.4989  1.1383e+22
10.6162  1.12278e+22
10.7335  1.1078e+22
10.8508  1.09295e+22
10.9681  1.07794e+22
11.0854  1.06245e+22
11.2027  1.04616e+22
11.32  1.02886e+22
11.4373  1.01049e+22
11.5546  9.91105e+21
11.6719  9.7084e+21
11.7893  9.50016e+21
11.9066  9.28968e+21
12.0239  9.08087e+21
12.1412  8.87865e+21
12.2585  8.68674e+21
12.3758  8.50829e+21
12.4931  8.34566e+21
12.6104  8.1999e+21
12.7277  8.07143e+21
12.845  7.95867e+21
12.9623  7.85861e+21
13.0796  7.76853e+21
13.1969  7.68413e+21
13.3142  7.60068e+21
13.4315  7.51355e+21
13.5488  7.41889e+21
13.6661  7.31262e+21
13.7834  7.19247e+21
13.9007  7.05736e+21
14.018  6.90773e+21
14.1354  6.74444e+21
14.2527  6.57073e+21
14.37  6.39034e+21
14.4873  6.20696e+21
14.6046  6.02512e+21
14.7219  5.84865e+21
14.8392  5.68084e+21
14.9565  5.52423e+21
15.0738  5.37995e+21
15.1911  5.24912e+21
15.3084  5.13094e+21
15.4257  5.02477e+21
15.543  4.9285e+21
15.6603  4.84018e+21
15.7776  4.75764e+21
15.8949  4.67814e+21
16.0122  4.59949e+21
16.1295  4.51986e+21
16.2468  4.43795e+21
16.3641  4.35297e+21
16.4815  4.26496e+21
16.5988  4.17429e+21
16.7161  4.0818e+21
16.8334  3.98921e+21
16.9507  3.89794e+21
17.068  3.80926e+21
17.1853  3.72438e+21
17.3026  3.64394e+21
17.4199  3.5685e+21
17.5372  3.49759e+21
17.6545  3.4302e+21
17.7718  3.36561e+21
17.8891  3.30237e+21
18.0064  3.23889e+21
18.1237  3.17362e+21
18.241  3.10556e+21
18.3583  3.03322e+21
18.4756  2.95617e+21
18.5929  2.87418e+21
18.7102  2.78772e+21
18.8275  2.69727e+21
18.9449  2.60432e+21
19.0622  2.51064e+21
19.1795  2.41779e+21
19.2968  2.32786e+21
19.4141  2.24257e+21
19.5314  2.16338e+21
19.6487  2.09141e+21
19.766  2.02712e+21
19.8833  1.97089e+21
20.0006  1.92218e+21
20.1179  1.88054e+21
20.2352  1.84481e+21
20.3525  1.8139e+21
20.4698  1.78647e+21
20.5871  1.76093e+21
20.7044  1.73598e+21
20.8217  1.71011e+21
20.939  1.68214e+21
21.0563  1.65114e+21
21.1736  1.61639e+21
21.291  1.57778e+21
21.4083  1.53519e+21
21.5256  1.48939e+21
21.6429  1.44131e+21
21.7602  1.39192e+21
21.8775  1.34243e+21
21.9948  1.29401e+21
22.1121  1.24779e+21
22.2294  1.20449e+21
22.3467  1.16467e+21
22.464  1.12884e+21
22.5813  1.0973e+21
22.6986  1.07001e+21
22.8159  1.04687e+21
22.9332  1.02781e+21
23.0505  1.01222e+21
23.1678  9.99692e+20
23.2851  9.89425e+20
23.4024  9.80695e+20
23.5198  9.72647e+20
23.6371  9.64504e+20
23.7544  9.55801e+20
23.8717  9.45985e+20
23.989  9.34993e+20
24.1063  9.22947e+20
24.2236  9.10102e+20
24.3409  8.96826e+20
24.4582  8.8355e+20
24.5755  8.70699e+20
24.6928  8.58513e+20
24.8101  8.47329e+20
24.9274  8.37263e+20
25.0447  8.28442e+20
25.162  8.20872e+20
25.2793  8.14357e+20
25.3966  8.08962e+20
25.5139  8.04198e+20
25.6312  7.99845e+20
25.7485  7.95563e+20
25.8658  7.90837e+20
25.9832  7.85607e+20
26.1005  7.7929e+20
26.2178  7.72062e+20
26.3351  7.63983e+20
26.4524  7.55122e+20
26.5697  7.45694e+20
26.687  7.36021e+20
26.8043  7.26353e+20
26.9216  7.16839e+20
27.0389  7.07695e+20
27.1562  6.99158e+20
27.2735  6.91508e+20
27.3908  6.84882e+20
27.5081  6.79444e+20
27.6254  6.75362e+20
27.7427  6.72509e+20
27.86  6.708e+20
27.9773  6.69777e+20
28.0946  6.69095e+20
28.212  6.68402e+20
28.3293  6.67254e+20
28.4466  6.65702e+20
28.5639  6.63635e+20
28.6812  6.61521e+20
28.7985  6.59798e+20
28.9158  6.59024e+20
29.0331  6.59662e+20
29.1504  6.62013e+20
29.2677  6.66202e+20
29.385  6.71947e+20
29.5023  6.78934e+20
29.6196  6.86678e+20
29.7369  6.94638e+20
29.8542  7.0228e+20
29.9715  7.08963e+20
30.0888  7.14535e+20
30.2061  7.18334e+20
30.3234  7.20221e+20
30.4407  7.19936e+20
30.558  7.1722e+20
30.6754  7.12268e+20
30.7927  7.04914e+20
30.91  6.9569e+20
31.0273  6.85032e+20
31.1446  6.73425e+20
31.2619  6.61476e+20
31.3792  6.49756e+20
31.4965  6.38704e+20
31.6138  6.28636e+20
31.7311  6.19734e+20
31.8484  6.12151e+20
31.9657  6.05984e+20
32.083  6.01224e+20
32.2003  5.9787e+20
32.3176  5.95916e+20
32.4349  5.95255e+20
32.5522  5.95691e+20
32.6695  5.96865e+20
32.7868  5.98453e+20
32.9042  6.00128e+20
33.0215  6.0144e+20
33.1388  6.02203e+20
33.2561  6.02143e+20
33.3734  6.01252e+20
33.4907  5.99487e+20
33.608  5.96839e+20
33.7253  5.9319e+20
33.8426  5.88386e+20
33.9599  5.82269e+20
34.0772  5.7453e+20
34.1945  5.65071e+20
34.3118  5.5389e+20
34.4291  5.4119e+20
34.5464  5.27345e+20
34.6637  5.12683e+20
34.781  4.97857e+20
34.8983  4.83093e+20
35.0156  4.68798e+20
35.1329  4.55096e+20
35.2503  4.4208e+20
35.3676  4.29963e+20
35.4849  4.1878e+20
35.6022  4.08956e+20
35.7195  4.00871e+20
35.8368  3.9484e+20
35.9541  3.91173e+20
36.0714  3.89909e+20
36.1887  3.90705e+20
36.306  3.92964e+20
36.4233  3.95803e+20
36.5406  3.98319e+20
36.6579  3.99672e+20
36.7752  3.99256e+20
36.8925  3.96919e+20
37.0098  3.92813e+20
37.1271  3.87522e+20
37.2444  3.81651e+20
37.3617  3.75925e+20
37.479  3.70924e+20
37.5964  3.67028e+20
37.7137  3.64396e+20
37.831  3.63041e+20
37.9483  3.6287e+20
38.0656  3.63802e+20
38.1829  3.65821e+20
38.3002  3.68927e+20
38.4175  3.73077e+20
38.5348  3.7811e+20
38.6521  3.83738e+20
38.7694  3.89398e+20
38.8867  3.94339e+20
39.004  3.97778e+20
39.1213  3.98939e+20
39.2386  3.97334e+20
39.3559  3.92612e+20
39.4732  3.84963e+20
39.5905  3.74787e+20
39.7078  3.62854e+20
39.8251  3.49992e+20
39.9425  3.37274e+20
40.0598  3.25526e+20
40.1771  3.15481e+20
40.2944  3.0763e+20
40.4117  3.02323e+20
40.529  2.99503e+20
40.6463  2.99094e+20
40.7636  3.00778e+20
40.8809  3.03941e+20
40.9982  3.07986e+20
41.1155  3.12223e+20
41.2328  3.15936e+20
41.3501  3.18479e+20
41.4674  3.19361e+20
41.5847  3.1837e+20
41.702  3.15414e+20
41.8193  3.10742e+20
41.9366  3.04679e+20
42.0539  2.9771e+20
42.1712  2.90321e+20
42.2885  2.82972e+20
42.4059  2.76125e+20
42.5232  2.70092e+20
42.6405  2.65107e+20
42.7578  2.61342e+20
42.8751  2.58869e+20
42.9924  2.57685e+20
43.1097  2.57716e+20
43.227  2.58634e+20
43.3443  2.60025e+20
43.4616  2.61344e+20
43.5789  2.61899e+20
43.6962  2.61129e+20
43.8135  2.58492e+20
43.9308  2.53879e+20
44.0481  2.47321e+20
44.1654  2.39262e+20
44.2827  2.3043e+20
44.4  2.21708e+20
44.5173  2.13968e+20
44.6347  2.08218e+20
44.752  2.05088e+20
44.8693  2.05011e+20
44.9866  2.08068e+20
45.1039  2.14273e+20
45.2212  2.23217e+20
45.3385  2.34505e+20
45.4558  2.47681e+20
45.5731  2.61892e+20
45.6904  2.76362e+20
45.8077  2.90266e+20
45.925  3.02581e+20
46.0423  3.12309e+20
46.1596  3.18555e+20
46.2769  3.20755e+20
46.3942  3.18537e+20
46.5115  3.11949e+20
46.6288  3.01575e+20
46.7461  2.88222e+20
46.8634  2.73034e+20
46.9808  2.57229e+20
47.0981  2.42001e+20
47.2154  2.28355e+20
47.3327  2.16925e+20
47.45  2.08127e+20
47.5673  2.01958e+20
47.6846  1.98169e+20
47.8019  1.96481e+20
47.9192  1.96305e+20
48.0365  1.97111e+20
48.1538  1.98401e+20
48.2711  1.99656e+20
48.3884  2.00581e+20
48.5057  2.008e+20
48.623  2.00338e+20
48.7403  1.99126e+20
48.8576  1.9731e+20
48.9749  1.95199e+20
49.0922  1.9312e+20
49.2095  1.91406e+20
49.3269  1.90498e+20
49.4442  1.90727e+20
49.5615  1.92197e+20
49.6788  1.94999e+20
49.7961  1.99168e+20
49.9134  2.04468e+20
50.0307  2.10673e+20
50.148  2.17553e+20
50.2653  2.24501e+20
50.3826  2.3098e+20
50.4999  2.36482e+20
50.6172  2.40356e+20
50.7345  2.42074e+20
50.8518  2.41306e+20
