#S 1 spectral density
#N 2
#UFWHM 26.8628
#L  abscissas [um]  spectral density
-58.5938  1.48649e+20
-58.4764  1.68838e+20
-58.3591  1.88594e+20
-58.2418  2.06565e+20
-58.1245  2.21869e+20
-58.0072  2.34022e+20
-57.8899  2.42932e+20
-57.7726  2.48957e+20
-57.6553  2.52474e+20
-57.538  2.53914e+20
-57.4207  2.53501e+20
-57.3034  2.51206e+20
-57.1861  2.46853e+20
-57.0688  2.40048e+20
-56.9515  2.30669e+20
-56.8342  2.18671e+20
-56.7169  2.04371e+20
-56.5996  1.88318e+20
-56.4823  1.71359e+20
-56.365  1.54428e+20
-56.2477  1.38377e+20
-56.1303  1.2414e+20
-56.013  1.12407e+20
-55.8957  1.03775e+20
-55.7784  9.87025e+19
-55.6611  9.74681e+19
-55.5438  1.00243e+20
-55.4265  1.06908e+20
-55.3092  1.17116e+20
-55.1919  1.30088e+20
-55.0746  1.44877e+20
-54.9573  1.60221e+20
-54.84  1.74814e+20
-54.7227  1.87528e+20
-54.6054  1.9746e+20
-54.4881  2.04185e+20
-54.3708  2.07694e+20
-54.2535  2.08414e+20
-54.1362  2.06932e+20
-54.0189  2.04075e+20
-53.9016  2.00451e+20
-53.7842  1.96514e+20
-53.6669  1.92569e+20
-53.5496  1.88689e+20
-53.4323  1.84922e+20
-53.315  1.81264e+20
-53.1977  1.77778e+20
-53.0804  1.74614e+20
-52.9631  1.71915e+20
-52.8458  1.69762e+20
-52.7285  1.68114e+20
-52.6112  1.66828e+20
-52.4939  1.65539e+20
-52.3766  1.63943e+20
-52.2593  1.61639e+20
-52.142  1.58533e+20
-52.0247  1.54607e+20
-51.9074  1.50186e+20
-51.7901  1.45658e+20
-51.6728  1.41533e+20
-51.5555  1.38233e+20
-51.4381  1.36153e+20
-51.3208  1.35322e+20
-51.2035  1.35714e+20
-51.0862  1.37099e+20
-50.9689  1.39259e+20
-50.8516  1.4196e+20
-50.7343  1.45049e+20
-50.617  1.48465e+20
-50.4997  1.52377e+20
-50.3824  1.56892e+20
-50.2651  1.6231e+20
-50.1478  1.6878e+20
-50.0305  1.76585e+20
-49.9132  1.85814e+20
-49.7959  1.9657e+20
-49.6786  2.08775e+20
-49.5613  2.22325e+20
-49.444  2.3695e+20
-49.3267  2.52198e+20
-49.2094  2.67593e+20
-49.092  2.82461e+20
-48.9747  2.96229e+20
-48.8574  3.08235e+20
-48.7401  3.1797e+20
-48.6228  3.25087e+20
-48.5055  3.29384e+20
-48.3882  3.30743e+20
-48.2709  3.29253e+20
-48.1536  3.25078e+20
-48.0363  3.18353e+20
-47.919  3.09366e+20
-47.8017  2.98363e+20
-47.6844  2.85746e+20
-47.5671  2.7196e+20
-47.4498  2.57466e+20
-47.3325  2.43048e+20
-47.2152  2.29273e+20
-47.0979  2.16981e+20
-46.9806  2.06805e+20
-46.8633  1.99332e+20
-46.7459  1.95181e+20
-46.6286  1.94738e+20
-46.5113  1.98389e+20
-46.394  2.0628e+20
-46.2767  2.18377e+20
-46.1594  2.34396e+20
-46.0421  2.53677e+20
-45.9248  2.75204e+20
-45.8075  2.97502e+20
-45.6902  3.1888e+20
-45.5729  3.3741e+20
-45.4556  3.51331e+20
-45.3383  3.59226e+20
-45.221  3.60245e+20
-45.1037  3.54401e+20
-44.9864  3.4233e+20
-44.8691  3.25558e+20
-44.7518  3.0607e+20
-44.6345  2.86177e+20
-44.5172  2.67929e+20
-44.3998  2.53112e+20
-44.2825  2.43005e+20
-44.1652  2.3821e+20
-44.0479  2.386e+20
-43.9306  2.43666e+20
-43.8133  2.52476e+20
-43.696  2.6379e+20
-43.5787  2.76507e+20
-43.4614  2.89552e+20
-43.3441  3.01918e+20
-43.2268  3.12948e+20
-43.1095  3.22064e+20
-42.9922  3.29136e+20
-42.8749  3.34162e+20
-42.7576  3.37428e+20
-42.6403  3.39541e+20
-42.523  3.4113e+20
-42.4057  3.4301e+20
-42.2884  3.45951e+20
-42.171  3.50508e+20
-42.0537  3.56891e+20
-41.9364  3.6501e+20
-41.8191  3.74448e+20
-41.7018  3.84519e+20
-41.5845  3.94308e+20
-41.4672  4.02956e+20
-41.3499  4.09638e+20
-41.2326  4.1387e+20
-41.1153  4.15503e+20
-40.998  4.14725e+20
-40.8807  4.12064e+20
-40.7634  4.0849e+20
-40.6461  4.05112e+20
-40.5288  4.03232e+20
-40.4115  4.03919e+20
-40.2942  4.08109e+20
-40.1769  4.16402e+20
-40.0596  4.28952e+20
-39.9423  4.4516e+20
-39.825  4.63836e+20
-39.7076  4.83426e+20
-39.5903  5.01825e+20
-39.473  5.17133e+20
-39.3557  5.27426e+20
-39.2384  5.31513e+20
-39.1211  5.28919e+20
-39.0038  5.19961e+20
-38.8865  5.05834e+20
-38.7692  4.88392e+20
-38.6519  4.69706e+20
-38.5346  4.52068e+20
-38.4173  4.37328e+20
-38.3  4.27013e+20
-38.1827  4.21837e+20
-38.0654  4.22072e+20
-37.9481  4.27211e+20
-37.8308  4.36446e+20
-37.7135  4.48529e+20
-37.5962  4.62204e+20
-37.4789  4.76104e+20
-37.3615  4.88791e+20
-37.2442  4.99249e+20
-37.1269  5.06571e+20
-37.0096  5.10617e+20
-36.8923  5.11491e+20
-36.775  5.10094e+20
-36.6577  5.07812e+20
-36.5404  5.06551e+20
-36.4231  5.08172e+20
-36.3058  5.14165e+20
-36.1885  5.25665e+20
-36.0712  5.42844e+20
-35.9539  5.64789e+20
-35.8366  5.89901e+20
-35.7193  6.15589e+20
-35.602  6.39393e+20
-35.4847  6.58673e+20
-35.3674  6.71596e+20
-35.2501  6.77133e+20
-35.1328  6.75272e+20
-35.0154  6.67e+20
-34.8981  6.53718e+20
-34.7808  6.37478e+20
-34.6635  6.20555e+20
-34.5462  6.04707e+20
-34.4289  5.91645e+20
-34.3116  5.82595e+20
-34.1943  5.78209e+20
-34.077  5.78497e+20
-33.9597  5.83282e+20
-33.8424  5.91703e+20
-33.7251  6.02732e+20
-33.6078  6.14725e+20
-33.4905  6.26116e+20
-33.3732  6.35274e+20
-33.2559  6.40708e+20
-33.1386  6.41608e+20
-33.0213  6.37477e+20
-32.904  6.28734e+20
-32.7867  6.16388e+20
-32.6693  6.02025e+20
-32.552  5.87606e+20
-32.4347  5.74945e+20
-32.3174  5.6588e+20
-32.2001  5.6185e+20
-32.0828  5.63823e+20
-31.9655  5.72255e+20
-31.8482  5.87144e+20
-31.7309  6.08121e+20
-31.6136  6.34503e+20
-31.4963  6.65411e+20
-31.379  6.99704e+20
-31.2617  7.36482e+20
-31.1444  7.7444e+20
-31.0271  8.12599e+20
-30.9098  8.50305e+20
-30.7925  8.86557e+20
-30.6752  9.20911e+20
-30.5579  9.53105e+20
-30.4406  9.8285e+20
-30.3232  1.00994e+21
-30.2059  1.03398e+21
-30.0886  1.05457e+21
-29.9713  1.0713e+21
-29.854  1.08351e+21
-29.7367  1.09063e+21
-29.6194  1.09247e+21
-29.5021  1.08899e+21
-29.3848  1.08066e+21
-29.2675  1.06832e+21
-29.1502  1.05312e+21
-29.0329  1.03649e+21
-28.9156  1.01985e+21
-28.7983  1.00452e+21
-28.681  9.91705e+20
-28.5637  9.82365e+20
-28.4464  9.7715e+20
-28.3291  9.76553e+20
-28.2118  9.80771e+20
-28.0944  9.89922e+20
-27.9771  1.00392e+21
-27.8598  1.02257e+21
-27.7425  1.04561e+21
-27.6252  1.07265e+21
-27.5079  1.10332e+21
-27.3906  1.13728e+21
-27.2733  1.17432e+21
-27.156  1.21407e+21
-27.0387  1.2565e+21
-26.9214  1.3013e+21
-26.8041  1.34802e+21
-26.6868  1.39593e+21
-26.5695  1.44397e+21
-26.4522  1.49071e+21
-26.3349  1.53465e+21
-26.2176  1.57396e+21
-26.1003  1.60703e+21
-25.983  1.63281e+21
-25.8657  1.65065e+21
-25.7483  1.6606e+21
-25.631  1.66364e+21
-25.5137  1.66132e+21
-25.3964  1.65607e+21
-25.2791  1.65042e+21
-25.1618  1.64745e+21
-25.0445  1.64998e+21
-24.9272  1.66067e+21
-24.8099  1.68148e+21
-24.6926  1.71392e+21
-24.5753  1.75808e+21
-24.458  1.8135e+21
-24.3407  1.87825e+21
-24.2234  1.94989e+21
-24.1061  2.02494e+21
-23.9888  2.09979e+21
-23.8715  2.17097e+21
-23.7542  2.23546e+21
-23.6369  2.29107e+21
-23.5196  2.33677e+21
-23.4023  2.37296e+21
-23.2849  2.40114e+21
-23.1676  2.42405e+21
-23.0503  2.44507e+21
-22.933  2.46831e+21
-22.8157  2.49775e+21
-22.6984  2.53718e+21
-22.5811  2.58952e+21
-22.4638  2.65701e+21
-22.3465  2.74044e+21
-22.2292  2.83929e+21
-22.1119  2.95165e+21
-21.9946  3.07452e+21
-21.8773  3.2037e+21
-21.76  3.33429e+21
-21.6427  3.46133e+21
-21.5254  3.57995e+21
-21.4081  3.68617e+21
-21.2908  3.777e+21
-21.1735  3.85114e+21
-21.0561  3.90858e+21
-20.9388  3.95093e+21
-20.8215  3.98049e+21
-20.7042  4.00106e+21
-20.5869  4.01603e+21
-20.4696  4.02927e+21
-20.3523  4.04377e+21
-20.235  4.06203e+21
-20.1177  4.08517e+21
-20.0004  4.11402e+21
-19.8831  4.14821e+21
-19.7658  4.18692e+21
-19.6485  4.22866e+21
-19.5312  4.27249e+21
-19.4139  4.31666e+21
-19.2966  4.36064e+21
-19.1793  4.40384e+21
-19.062  4.44675e+21
-18.9447  4.48982e+21
-18.8274  4.53418e+21
-18.71  4.58171e+21
-18.5927  4.63385e+21
-18.4754  4.69197e+21
-18.3581  4.75708e+21
-18.2408  4.82971e+21
-18.1235  4.90966e+21
-18.0062  4.99591e+21
-17.8889  5.0869e+21
-17.7716  5.18105e+21
-17.6543  5.27603e+21
-17.537  5.37023e+21
-17.4197  5.46195e+21
-17.3024  5.55059e+21
-17.1851  5.63599e+21
-17.0678  5.71856e+21
-16.9505  5.79995e+21
-16.8332  5.88221e+21
-16.7159  5.9677e+21
-16.5986  6.0587e+21
-16.4813  6.15768e+21
-16.364  6.26655e+21
-16.2466  6.38672e+21
-16.1293  6.51818e+21
-16.012  6.65991e+21
-15.8947  6.80984e+21
-15.7774  6.96502e+21
-15.6601  7.12118e+21
-15.5428  7.27393e+21
-15.4255  7.41814e+21
-15.3082  7.54974e+21
-15.1909  7.66578e+21
-15.0736  7.76343e+21
-14.9563  7.84242e+21
-14.839  7.90383e+21
-14.7217  7.9499e+21
-14.6044  7.98433e+21
-14.4871  8.0119e+21
-14.3698  8.03753e+21
-14.2525  8.06621e+21
-14.1352  8.10189e+21
-14.0178  8.14914e+21
-13.9005  8.20997e+21
-13.7832  8.28581e+21
-13.6659  8.37688e+21
-13.5486  8.48178e+21
-13.4313  8.59835e+21
-13.314  8.72306e+21
-13.1967  8.85221e+21
-13.0794  8.98255e+21
-12.9621  9.10945e+21
-12.8448  9.23116e+21
-12.7275  9.34522e+21
-12.6102  9.45183e+21
-12.4929  9.55188e+21
-12.3756  9.64758e+21
-12.2583  9.74246e+21
-12.141  9.84072e+21
-12.0237  9.94593e+21
-11.9064  1.00615e+22
-11.7891  1.01898e+22
-11.6718  1.03321e+22
-11.5544  1.04883e+22
-11.4371  1.06574e+22
-11.3198  1.08356e+22
-11.2025  1.10197e+22
-11.0852  1.12048e+22
-10.9679  1.13859e+22
-10.8506  1.15579e+22
-10.7333  1.1716e+22
-10.616  1.1856e+22
-10.4987  1.19761e+22
-10.3814  1.20736e+22
-10.2641  1.21492e+22
-10.1468  1.22042e+22
-10.0295  1.2242e+22
-9.91217  1.22661e+22
-9.79487  1.22821e+22
-9.67756  1.22949e+22
-9.56026  1.23099e+22
-9.44295  1.23316e+22
-9.32565  1.23652e+22
-9.20834  1.2413e+22
-9.09104  1.24776e+22
-8.97373  1.25605e+22
-8.85643  1.26616e+22
-8.73913  1.27807e+22
-8.62182  1.29156e+22
-8.50452  1.30646e+22
-8.38721  1.32249e+22
-8.26991  1.3392e+22
-8.1526  1.35628e+22
-8.03529  1.37321e+22
-7.91799  1.38958e+22
-7.80069  1.40487e+22
-7.68338  1.41864e+22
-7.56608  1.43054e+22
-7.44877  1.44026e+22
-7.33146  1.44752e+22
-7.21416  1.45224e+22
-7.09685  1.45442e+22
-6.97955  1.45418e+22
-6.86224  1.45183e+22
-6.74494  1.44789e+22
-6.62763  1.44277e+22
-6.51033  1.43717e+22
-6.39302  1.43175e+22
-6.27572  1.42714e+22
-6.15842  1.42399e+22
-6.04111  1.42282e+22
-5.92381  1.42398e+22
-5.8065  1.42783e+22
-5.68919  1.43433e+22
-5.57189  1.44344e+22
-5.45458  1.45487e+22
-5.33728  1.46829e+22
-5.21997  1.48309e+22
-5.10267  1.49872e+22
-4.98536  1.51454e+22
-4.86806  1.52995e+22
-4.75075  1.5444e+22
-4.63345  1.55753e+22
-4.51614  1.56903e+22
-4.39884  1.5788e+22
-4.28154  1.58701e+22
-4.16423  1.59384e+22
-4.04692  1.59963e+22
-3.92962  1.60483e+22
-3.81231  1.60991e+22
-3.69501  1.61521e+22
-3.5777  1.62102e+22
-3.4604  1.62751e+22
-3.34309  1.63463e+22
-3.22579  1.6422e+22
-3.10849  1.64987e+22
-2.99118  1.65718e+22
-2.87387  1.66367e+22
-2.75657  1.66884e+22
-2.63926  1.67222e+22
-2.52196  1.6735e+22
-2.40465  1.6725e+22
-2.28735  1.66923e+22
-2.17005  1.66389e+22
-2.05274  1.657e+22
-1.93544  1.64901e+22
-1.81813  1.64071e+22
-1.70083  1.63283e+22
-1.58352  1.62614e+22
-1.46622  1.62137e+22
-1.34891  1.61907e+22
-1.2316  1.61959e+22
-1.1143  1.62311e+22
-0.996995  1.62946e+22
-0.87969  1.63833e+22
-0.762385  1.64901e+22
-0.64508  1.6608e+22
-0.527775  1.67268e+22
-0.41047  1.68369e+22
-0.293165  1.69289e+22
-0.17586  1.69949e+22
-0.058555  1.70292e+22
0.05875  1.70285e+22
0.176055  1.69928e+22
0.29336  1.69252e+22
0.410665  1.6832e+22
0.52797  1.67209e+22
0.645275  1.6601e+22
0.76258  1.64826e+22
0.879885  1.6375e+22
0.99719  1.62858e+22
1.1145  1.62216e+22
1.2318  1.6186e+22
1.3491  1.61804e+22
1.46641  1.62029e+22
1.58371  1.62501e+22
1.70102  1.6316e+22
1.81832  1.63939e+22
1.93563  1.64756e+22
2.05294  1.65541e+22
2.17024  1.66221e+22
2.28754  1.66737e+22
2.40485  1.67049e+22
2.52216  1.67133e+22
2.63946  1.66991e+22
2.75677  1.66637e+22
2.87407  1.66107e+22
2.99137  1.65441e+22
3.10868  1.64694e+22
3.22599  1.63914e+22
3.34329  1.63147e+22
3.4606  1.62426e+22
3.5779  1.61766e+22
3.69521  1.61171e+22
3.81251  1.60631e+22
3.92982  1.6011e+22
4.04712  1.59577e+22
4.16443  1.58987e+22
4.28173  1.58294e+22
4.39903  1.57464e+22
4.51634  1.56474e+22
4.63364  1.55318e+22
4.75095  1.53997e+22
4.86825  1.52544e+22
4.98556  1.50999e+22
5.10286  1.49415e+22
5.22017  1.47852e+22
5.33748  1.46374e+22
5.45478  1.45038e+22
5.57209  1.43898e+22
5.68939  1.42991e+22
5.8067  1.42344e+22
5.924  1.41965e+22
6.0413  1.4185e+22
6.15861  1.41969e+22
6.27591  1.42282e+22
6.39322  1.42739e+22
6.51052  1.43279e+22
6.62783  1.43827e+22
6.74514  1.44325e+22
6.86244  1.4471e+22
6.97975  1.44926e+22
7.09705  1.44933e+22
7.21436  1.44699e+22
7.33166  1.44209e+22
7.44897  1.43466e+22
7.56627  1.4248e+22
7.68358  1.41272e+22
7.80088  1.39879e+22
7.91819  1.38335e+22
8.03549  1.3669e+22
8.1528  1.34992e+22
8.2701  1.33278e+22
8.38741  1.316e+22
8.50471  1.29999e+22
8.62202  1.28505e+22
8.73932  1.27152e+22
8.85662  1.25966e+22
8.97393  1.24954e+22
9.09123  1.24125e+22
9.20854  1.23478e+22
9.32584  1.23001e+22
9.44315  1.22662e+22
9.56045  1.22437e+22
9.67776  1.2228e+22
9.79506  1.22142e+22
9.91237  1.21973e+22
10.0297  1.2172e+22
10.147  1.21333e+22
10.2643  1.20773e+22
10.3816  1.20005e+22
10.4989  1.19022e+22
10.6162  1.17818e+22
10.7335  1.16412e+22
10.8508  1.1483e+22
10.9681  1.13112e+22
11.0854  1.1131e+22
11.2027  1.09468e+22
11.32  1.07637e+22
11.4373  1.05865e+22
11.5546  1.04189e+22
11.6719  1.02637e+22
11.7893  1.01227e+22
11.9066  9.99551e+21
12.0239  9.88067e+21
12.1412  9.77637e+21
12.2585  9.67868e+21
12.3758  9.5838e+21
12.4931  9.48795e+21
12.6104  9.38756e+21
12.7277  9.28061e+21
12.845  9.16623e+21
12.9623  9.04396e+21
13.0796  8.91655e+21
13.1969  8.78614e+21
13.3142  8.65661e+21
13.4315  8.53162e+21
13.5488  8.41519e+21
13.6661  8.31048e+21
13.7834  8.21948e+21
13.9007  8.14379e+21
14.018  8.08344e+21
14.1354  8.03638e+21
14.2527  8.00048e+21
14.37  7.9721e+21
14.4873  7.94631e+21
14.6046  7.91859e+21
14.7219  7.88371e+21
14.8392  7.83745e+21
14.9565  7.77586e+21
15.0738  7.69634e+21
15.1911  7.59853e+21
15.3084  7.48235e+21
15.4257  7.35049e+21
15.543  7.20613e+21
15.6603  7.0537e+21
15.7776  6.89808e+21
15.8949  6.74348e+21
16.0122  6.59406e+21
16.1295  6.45295e+21
16.2468  6.32231e+21
16.3641  6.20302e+21
16.4815  6.09501e+21
16.5988  5.99684e+21
16.7161  5.9064e+21
16.8334  5.82196e+21
16.9507  5.7404e+21
17.068  5.65968e+21
17.1853  5.5777e+21
17.3026  5.49294e+21
17.4199  5.40503e+21
17.5372  5.314e+21
17.6545  5.22025e+21
17.7718  5.12611e+21
17.8891  5.03265e+21
18.0064  4.94241e+21
18.1237  4.85683e+21
18.241  4.77761e+21
18.3583  4.70564e+21
18.4756  4.64106e+21
18.5929  4.58354e+21
18.7102  4.53207e+21
18.8275  4.48495e+21
18.9449  4.44093e+21
19.0622  4.39843e+21
19.1795  4.35593e+21
19.2968  4.313e+21
19.4141  4.26937e+21
19.5314  4.2256e+21
19.6487  4.18231e+21
19.766  4.14074e+21
19.8833  4.10261e+21
20.0006  4.06866e+21
20.1179  4.04006e+21
20.2352  4.01705e+21
20.3525  3.99907e+21
20.4698  3.98475e+21
20.5871  3.97153e+21
20.7044  3.95642e+21
20.8217  3.93576e+21
20.939  3.90591e+21
21.0563  3.86347e+21
21.1736  3.80592e+21
21.291  3.73189e+21
21.4083  3.64099e+21
21.5256  3.53526e+21
21.6429  3.41716e+21
21.7602  3.29098e+21
21.8775  3.16134e+21
21.9948  3.03338e+21
22.1121  2.9118e+21
22.2294  2.80078e+21
22.3467  2.70321e+21
22.464  2.6212e+21
22.5813  2.5549e+21
22.6986  2.5037e+21
22.8159  2.4652e+21
22.9332  2.43649e+21
23.0505  2.41381e+21
23.1678  2.39322e+21
23.2851  2.37067e+21
23.4024  2.34264e+21
23.5198  2.30663e+21
23.6371  2.26116e+21
23.7544  2.20585e+21
23.8717  2.14172e+21
23.989  2.07096e+21
24.1063  1.99668e+21
24.2236  1.92236e+21
24.3409  1.85155e+21
24.4582  1.78764e+21
24.5755  1.73314e+21
24.6928  1.68984e+21
24.8101  1.65824e+21
24.9274  1.63815e+21
25.0447  1.62808e+21
25.162  1.62609e+21
25.2793  1.6295e+21
25.3966  1.63544e+21
25.5139  1.64093e+21
25.6312  1.6433e+21
25.7485  1.64028e+21
25.8658  1.63029e+21
25.9832  1.61253e+21
26.1005  1.5868e+21
26.2178  1.55379e+21
26.3351  1.51468e+21
26.4524  1.47104e+21
26.5697  1.4246e+21
26.687  1.37706e+21
26.8043  1.32962e+21
26.9216  1.28341e+21
27.0389  1.23919e+21
27.1562  1.19739e+21
27.2735  1.15808e+21
27.3908  1.12167e+21
27.5081  1.08825e+21
27.6254  1.05807e+21
27.7427  1.03159e+21
27.86  1.00908e+21
27.9773  9.90915e+20
28.0946  9.77346e+20
28.212  9.68653e+20
28.3293  9.6486e+20
28.4466  9.65859e+20
28.5639  9.71444e+20
28.6812  9.81068e+20
28.7985  9.94196e+20
28.9158  1.00978e+21
29.0331  1.0266e+21
29.1504  1.04341e+21
29.2677  1.05874e+21
29.385  1.07121e+21
29.5023  1.07965e+21
29.6196  1.08319e+21
29.7369  1.08152e+21
29.8542  1.0745e+21
29.9715  1.0625e+21
30.0888  1.04599e+21
30.2061  1.02553e+21
30.3234  1.0017e+21
30.4407  9.74875e+20
30.558  9.45351e+20
30.6754  9.13349e+20
30.7927  8.79127e+20
30.91  8.43115e+20
31.0273  8.05757e+20
31.1446  7.67706e+20
31.2619  7.30032e+20
31.3792  6.93606e+20
31.4965  6.59565e+20
31.6138  6.29104e+20
31.7311  6.03093e+20
31.8484  5.82552e+20
31.9657  5.6807e+20
32.083  5.60085e+20
32.2003  5.58537e+20
32.3176  5.62898e+20
32.4349  5.72297e+20
32.5522  5.85159e+20
32.6695  5.99726e+20
32.7868  6.14165e+20
32.9042  6.2647e+20
33.0215  6.35131e+20
33.1388  6.3918e+20
33.2561  6.38215e+20
33.3734  6.32671e+20
33.4907  6.23472e+20
33.608  6.12155e+20
33.7253  6.0023e+20
33.8426  5.89345e+20
33.9599  5.81098e+20
34.0772  5.76511e+20
34.1945  5.76422e+20
34.3118  5.81044e+20
34.4291  5.90376e+20
34.5464  6.03625e+20
34.6637  6.19531e+20
34.781  6.36585e+20
34.8983  6.52699e+20
35.0156  6.65858e+20
35.1329  6.7412e+20
35.2503  6.75744e+20
35.3676  6.7002e+20
35.4849  6.56781e+20
35.6022  6.37356e+20
35.7195  6.13509e+20
35.8368  5.87822e+20
35.9541  5.62869e+20
36.0714  5.40991e+20
36.1887  5.24082e+20
36.306  5.1284e+20
36.4233  5.06946e+20
36.5406  5.05515e+20
36.6579  5.06928e+20
36.7752  5.092e+20
36.8925  5.10517e+20
37.0098  5.09645e+20
37.1271  5.05526e+20
37.2444  4.98125e+20
37.3617  4.87584e+20
37.479  4.74821e+20
37.5964  4.60985e+20
37.7137  4.47279e+20
37.831  4.35293e+20
37.9483  4.26094e+20
38.0656  4.21123e+20
38.1829  4.21081e+20
38.3002  4.26365e+20
38.4175  4.36867e+20
38.5348  4.5167e+20
38.6521  4.69402e+20
38.7694  4.88052e+20
38.8867  5.05388e+20
39.004  5.19371e+20
39.1213  5.28121e+20
39.2386  5.30547e+20
39.3559  5.26226e+20
39.4732  5.1575e+20
39.5905  5.00327e+20
39.7078  4.81813e+20
39.8251  4.62224e+20
39.9425  4.43504e+20
40.0598  4.27487e+20
40.1771  4.14997e+20
40.2944  4.06732e+20
40.4117  4.02592e+20
40.529  4.02e+20
40.6463  4.03905e+20
40.7636  4.07265e+20
40.8809  4.108e+20
40.9982  4.13341e+20
41.1155  4.14056e+20
41.2328  4.12372e+20
41.3501  4.08088e+20
41.4674  4.01312e+20
41.5847  3.92638e+20
41.702  3.82875e+20
41.8193  3.72771e+20
41.9366  3.63402e+20
42.0539  3.55343e+20
42.1712  3.49003e+20
42.2885  3.44488e+20
42.4059  3.41579e+20
42.5232  3.39685e+20
42.6405  3.38076e+20
42.7578  3.35949e+20
42.8751  3.32646e+20
42.9924  3.27579e+20
43.1097  3.20518e+20
43.227  3.11356e+20
43.3443  3.00358e+20
43.4616  2.88022e+20
43.5789  2.75043e+20
43.6962  2.62396e+20
43.8135  2.51127e+20
43.9308  2.42453e+20
44.0481  2.37495e+20
44.1654  2.37232e+20
44.2827  2.422e+20
44.4  2.52408e+20
44.5173  2.67243e+20
44.6347  2.85511e+20
44.752  3.05395e+20
44.8693  3.24772e+20
44.9866  3.41334e+20
45.1039  3.5318e+20
45.2212  3.58853e+20
45.3385  3.57566e+20
45.4558  3.49512e+20
45.5731  3.35424e+20
45.6904  3.16796e+20
45.8077  2.95456e+20
45.925  2.73215e+20
46.0423  2.51823e+20
46.1596  2.327e+20
46.2769  2.16836e+20
46.3942  2.04898e+20
46.5115  1.97171e+20
46.6288  1.93693e+20
46.7461  1.94255e+20
46.8634  1.98515e+20
46.9808  2.06026e+20
47.0981  2.16275e+20
47.2154  2.28587e+20
47.3327  2.42351e+20
47.45  2.56713e+20
47.5673  2.71113e+20
47.6846  2.84811e+20
47.8019  2.97358e+20
47.9192  3.08257e+20
48.0365  3.17108e+20
48.1538  3.23745e+20
48.2711  3.2782e+20
48.3884  3.2922e+20
48.5057  3.27751e+20
48.623  3.23377e+20
48.7403  3.16172e+20
48.8576  3.06353e+20
48.9749  2.94338e+20
49.0922  2.8057e+20
49.2095  2.6567e+20
49.3269  2.50335e+20
49.4442  2.35116e+20
49.5615  2.20589e+20
49.6788  2.07129e+20
49.7961  1.95009e+20
49.9134  1.84338e+20
50.0307  1.75186e+20
50.148  1.67492e+20
50.2653  1.61048e+20
50.3826  1.55691e+20
50.4999  1.51203e+20
50.6172  1.47358e+20
50.7345  1.43932e+20
50.8518  1.40878e+20
50.9691  1.38231e+20
