#S 1 spectral density
#N 2
#UFWHM 26.7455
#L  abscissas [um]  spectral density
-58.5938  1.49085e+20
-58.4764  1.64474e+20
-58.3591  1.79014e+20
-58.2418  1.91418e+20
-58.1245  2.0089e+20
-58.0072  2.07148e+20
-57.8899  2.10362e+20
-57.7726  2.11222e+20
-57.6553  2.10516e+20
-57.538  2.09084e+20
-57.4207  2.07523e+20
-57.3034  2.06083e+20
-57.1861  2.04732e+20
-57.0688  2.03039e+20
-56.9515  2.00644e+20
-56.8342  1.97074e+20
-56.7169  1.92048e+20
-56.5996  1.85423e+20
-56.4823  1.77301e+20
-56.365  1.67901e+20
-56.2477  1.57518e+20
-56.1303  1.46631e+20
-56.013  1.3579e+20
-55.8957  1.25639e+20
-55.7784  1.16932e+20
-55.6611  1.10426e+20
-55.5438  1.06911e+20
-55.4265  1.06963e+20
-55.3092  1.10898e+20
-55.1919  1.18516e+20
-55.0746  1.29319e+20
-54.9573  1.42301e+20
-54.84  1.56256e+20
-54.7227  1.69929e+20
-54.6054  1.82197e+20
-54.4881  1.92263e+20
-54.3708  1.99725e+20
-54.2535  2.04565e+20
-54.1362  2.06955e+20
-54.0189  2.07391e+20
-53.9016  2.06206e+20
-53.7842  2.03666e+20
-53.6669  1.99994e+20
-53.5496  1.95256e+20
-53.4323  1.89568e+20
-53.315  1.83083e+20
-53.1977  1.76051e+20
-53.0804  1.68879e+20
-52.9631  1.61982e+20
-52.8458  1.55726e+20
-52.7285  1.50358e+20
-52.6112  1.45976e+20
-52.4939  1.42434e+20
-52.3766  1.3954e+20
-52.2593  1.36973e+20
-52.142  1.3461e+20
-52.0247  1.32325e+20
-51.9074  1.30288e+20
-51.7901  1.28673e+20
-51.6728  1.27775e+20
-51.5555  1.2781e+20
-51.4381  1.28996e+20
-51.3208  1.3126e+20
-51.2035  1.3452e+20
-51.0862  1.38577e+20
-50.9689  1.43281e+20
-50.8516  1.48513e+20
-50.7343  1.54248e+20
-50.617  1.6055e+20
-50.4997  1.67664e+20
-50.3824  1.75741e+20
-50.2651  1.8507e+20
-50.1478  1.95706e+20
-50.0305  2.07816e+20
-49.9132  2.21313e+20
-49.7959  2.36097e+20
-49.6786  2.51887e+20
-49.5613  2.68382e+20
-49.444  2.85138e+20
-49.3267  3.01567e+20
-49.2094  3.17102e+20
-49.092  3.31022e+20
-48.9747  3.42754e+20
-48.8574  3.51709e+20
-48.7401  3.57496e+20
-48.6228  3.5993e+20
-48.5055  3.59033e+20
-48.3882  3.54959e+20
-48.2709  3.48098e+20
-48.1536  3.38919e+20
-48.0363  3.27861e+20
-47.919  3.15477e+20
-47.8017  3.02209e+20
-47.6844  2.88537e+20
-47.5671  2.74863e+20
-47.4498  2.61463e+20
-47.3325  2.48786e+20
-47.2152  2.36965e+20
-47.0979  2.26308e+20
-46.9806  2.16908e+20
-46.8633  2.08865e+20
-46.7459  2.02445e+20
-46.6286  1.97849e+20
-46.5113  1.95542e+20
-46.394  1.95952e+20
-46.2767  1.99628e+20
-46.1594  2.07022e+20
-46.0421  2.18355e+20
-45.9248  2.33486e+20
-45.8075  2.5176e+20
-45.6902  2.72105e+20
-45.5729  2.92934e+20
-45.4556  3.12516e+20
-45.3383  3.29077e+20
-45.221  3.41121e+20
-45.1037  3.47719e+20
-44.9864  3.4841e+20
-44.8691  3.43548e+20
-44.7518  3.34028e+20
-44.6345  3.21269e+20
-44.5172  3.06715e+20
-44.3998  2.91892e+20
-44.2825  2.78227e+20
-44.1652  2.66811e+20
-44.0479  2.58315e+20
-43.9306  2.5323e+20
-43.8133  2.5169e+20
-43.696  2.53503e+20
-43.5787  2.5841e+20
-43.4614  2.65933e+20
-43.3441  2.7531e+20
-43.2268  2.85795e+20
-43.1095  2.96385e+20
-42.9922  3.06267e+20
-42.8749  3.14622e+20
-42.7576  3.20886e+20
-42.6403  3.24922e+20
-42.523  3.2683e+20
-42.4057  3.27198e+20
-42.2884  3.26878e+20
-42.171  3.26838e+20
-42.0537  3.27993e+20
-41.9364  3.31052e+20
-41.8191  3.36481e+20
-41.7018  3.44329e+20
-41.5845  3.54202e+20
-41.4672  3.65431e+20
-41.3499  3.77002e+20
-41.2326  3.87881e+20
-41.1153  3.97054e+20
-40.998  4.03676e+20
-40.8807  4.07182e+20
-40.7634  4.07559e+20
-40.6461  4.05221e+20
-40.5288  4.01141e+20
-40.4115  3.96526e+20
-40.2942  3.92871e+20
-40.1769  3.91764e+20
-40.0596  3.94584e+20
-39.9423  4.02058e+20
-39.825  4.14256e+20
-39.7076  4.30582e+20
-39.5903  4.4953e+20
-39.473  4.69248e+20
-39.3557  4.87324e+20
-39.2384  5.0162e+20
-39.1211  5.10344e+20
-39.0038  5.12281e+20
-38.8865  5.07125e+20
-38.7692  4.95455e+20
-38.6519  4.7844e+20
-38.5346  4.58011e+20
-38.4173  4.36232e+20
-38.3  4.15403e+20
-38.1827  3.97475e+20
-38.0654  3.84225e+20
-37.9481  3.76824e+20
-37.8308  3.7594e+20
-37.7135  3.81584e+20
-37.5962  3.9324e+20
-37.4789  4.09742e+20
-37.3615  4.29288e+20
-37.2442  4.49991e+20
-37.1269  4.69681e+20
-37.0096  4.8672e+20
-36.8923  4.99697e+20
-36.775  5.08141e+20
-36.6577  5.12382e+20
-36.5404  5.13728e+20
-36.4231  5.13895e+20
-36.3058  5.14752e+20
-36.1885  5.18226e+20
-36.0712  5.25571e+20
-35.9539  5.37152e+20
-35.8366  5.52619e+20
-35.7193  5.70487e+20
-35.602  5.89098e+20
-35.4847  6.06305e+20
-35.3674  6.20287e+20
-35.2501  6.2968e+20
-35.1328  6.33765e+20
-35.0154  6.32597e+20
-34.8981  6.26522e+20
-34.7808  6.16596e+20
-34.6635  6.04201e+20
-34.5462  5.90506e+20
-34.4289  5.76997e+20
-34.3116  5.64977e+20
-34.1943  5.55627e+20
-34.077  5.49731e+20
-33.9597  5.48076e+20
-33.8424  5.50903e+20
-33.7251  5.58155e+20
-33.6078  5.69024e+20
-33.4905  5.82441e+20
-33.3732  5.9693e+20
-33.2559  6.10769e+20
-33.1386  6.22525e+20
-33.0213  6.30792e+20
-32.904  6.34915e+20
-32.7867  6.34762e+20
-32.6693  6.30848e+20
-32.552  6.24295e+20
-32.4347  6.16349e+20
-32.3174  6.08674e+20
-32.2001  6.02836e+20
-32.0828  6.00272e+20
-31.9655  6.02134e+20
-31.8482  6.09213e+20
-31.7309  6.21912e+20
-31.6136  6.40204e+20
-31.4963  6.63624e+20
-31.379  6.91219e+20
-31.2617  7.21963e+20
-31.1444  7.54223e+20
-31.0271  7.86546e+20
-30.9098  8.17787e+20
-30.7925  8.46484e+20
-30.6752  8.71978e+20
-30.5579  8.94001e+20
-30.4406  9.12587e+20
-30.3232  9.28086e+20
-30.2059  9.40871e+20
-30.0886  9.51415e+20
-29.9713  9.60136e+20
-29.854  9.67051e+20
-29.7367  9.72021e+20
-29.6194  9.74936e+20
-29.5021  9.75487e+20
-29.3848  9.73536e+20
-29.2675  9.69101e+20
-29.1502  9.62343e+20
-29.0329  9.53758e+20
-28.9156  9.43878e+20
-28.7983  9.33466e+20
-28.681  9.23446e+20
-28.5637  9.1484e+20
-28.4464  9.08676e+20
-28.3291  9.06057e+20
-28.2118  9.07903e+20
-28.0944  9.15078e+20
-27.9771  9.28102e+20
-27.8598  9.47151e+20
-27.7425  9.72022e+20
-27.6252  1.00206e+21
-27.5079  1.03638e+21
-27.3906  1.07386e+21
-27.2733  1.11342e+21
-27.156  1.15382e+21
-27.0387  1.19432e+21
-26.9214  1.23416e+21
-26.8041  1.27281e+21
-26.6868  1.30983e+21
-26.5695  1.34484e+21
-26.4522  1.37737e+21
-26.3349  1.40714e+21
-26.2176  1.4336e+21
-26.1003  1.4564e+21
-25.983  1.47549e+21
-25.8657  1.49093e+21
-25.7483  1.50308e+21
-25.631  1.51275e+21
-25.5137  1.52094e+21
-25.3964  1.52917e+21
-25.2791  1.53879e+21
-25.1618  1.55164e+21
-25.0445  1.56928e+21
-24.9272  1.59338e+21
-24.8099  1.6252e+21
-24.6926  1.66592e+21
-24.5753  1.71573e+21
-24.458  1.77464e+21
-24.3407  1.84149e+21
-24.2234  1.91477e+21
-24.1061  1.99192e+21
-23.9888  2.07014e+21
-23.8715  2.14645e+21
-23.7542  2.21796e+21
-23.6369  2.28212e+21
-23.5196  2.33721e+21
-23.4023  2.3825e+21
-23.2849  2.41822e+21
-23.1676  2.44577e+21
-23.0503  2.46737e+21
-22.933  2.48628e+21
-22.8157  2.50614e+21
-22.6984  2.5309e+21
-22.5811  2.56425e+21
-22.4638  2.60969e+21
-22.3465  2.66967e+21
-22.2292  2.74547e+21
-22.1119  2.83699e+21
-21.9946  2.94277e+21
-21.8773  3.05972e+21
-21.76  3.18349e+21
-21.6427  3.309e+21
-21.5254  3.43076e+21
-21.4081  3.54361e+21
-21.2908  3.64306e+21
-21.1735  3.72626e+21
-21.0561  3.79173e+21
-20.9388  3.83997e+21
-20.8215  3.87259e+21
-20.7042  3.89336e+21
-20.5869  3.90612e+21
-20.4696  3.91569e+21
-20.3523  3.92642e+21
-20.235  3.94223e+21
-20.1177  3.96556e+21
-20.0004  3.99834e+21
-19.8831  4.04073e+21
-19.7658  4.09191e+21
-19.6485  4.1497e+21
-19.5312  4.21192e+21
-19.4139  4.27515e+21
-19.2966  4.33684e+21
-19.1793  4.39441e+21
-19.062  4.44656e+21
-18.9447  4.49236e+21
-18.8274  4.53221e+21
-18.71  4.56798e+21
-18.5927  4.60188e+21
-18.4754  4.63679e+21
-18.3581  4.67585e+21
-18.2408  4.72218e+21
-18.1235  4.77821e+21
-18.0062  4.84555e+21
-17.8889  4.92486e+21
-17.7716  5.01614e+21
-17.6543  5.11789e+21
-17.537  5.22833e+21
-17.4197  5.3447e+21
-17.3024  5.46456e+21
-17.1851  5.58506e+21
-17.0678  5.70361e+21
-16.9505  5.81861e+21
-16.8332  5.92913e+21
-16.7159  6.03493e+21
-16.5986  6.13645e+21
-16.4813  6.23533e+21
-16.364  6.3336e+21
-16.2466  6.43387e+21
-16.1293  6.53823e+21
-16.012  6.64848e+21
-15.8947  6.76573e+21
-15.7774  6.89026e+21
-15.6601  7.02082e+21
-15.5428  7.1554e+21
-15.4255  7.29043e+21
-15.3082  7.42239e+21
-15.1909  7.54793e+21
-15.0736  7.66283e+21
-14.9563  7.76472e+21
-14.839  7.85213e+21
-14.7217  7.92456e+21
-14.6044  7.98312e+21
-14.4871  8.03058e+21
-14.3698  8.07041e+21
-14.2525  8.10699e+21
-14.1352  8.14447e+21
-14.0178  8.18839e+21
-13.9005  8.24224e+21
-13.7832  8.30927e+21
-13.6659  8.39148e+21
-13.5486  8.48904e+21
-13.4313  8.60087e+21
-13.314  8.7238e+21
-13.1967  8.85382e+21
-13.0794  8.98663e+21
-12.9621  9.116e+21
-12.8448  9.23815e+21
-12.7275  9.34847e+21
-12.6102  9.44526e+21
-12.4929  9.52788e+21
-12.3756  9.59774e+21
-12.2583  9.65839e+21
-12.141  9.71503e+21
-12.0237  9.77311e+21
-11.9064  9.8387e+21
-11.7891  9.91763e+21
-11.6718  1.00146e+22
-11.5544  1.01333e+22
-11.4371  1.02759e+22
-11.3198  1.04413e+22
-11.2025  1.06278e+22
-11.0852  1.08314e+22
-10.9679  1.10461e+22
-10.8506  1.12652e+22
-10.7333  1.1481e+22
-10.616  1.16855e+22
-10.4987  1.18727e+22
-10.3814  1.20355e+22
-10.2641  1.21705e+22
-10.1468  1.22756e+22
-10.0295  1.23514e+22
-9.91217  1.24003e+22
-9.79487  1.24277e+22
-9.67756  1.24397e+22
-9.56026  1.24438e+22
-9.44295  1.24475e+22
-9.32565  1.24595e+22
-9.20834  1.24859e+22
-9.09104  1.25323e+22
-8.97373  1.2603e+22
-8.85643  1.26994e+22
-8.73913  1.28218e+22
-8.62182  1.29677e+22
-8.50452  1.31338e+22
-8.38721  1.3315e+22
-8.26991  1.35044e+22
-8.1526  1.36961e+22
-8.03529  1.38824e+22
-7.91799  1.40574e+22
-7.80069  1.42152e+22
-7.68338  1.43513e+22
-7.56608  1.44634e+22
-7.44877  1.45501e+22
-7.33146  1.46114e+22
-7.21416  1.46492e+22
-7.09685  1.4666e+22
-6.97955  1.46658e+22
-6.86224  1.4653e+22
-6.74494  1.46335e+22
-6.62763  1.4611e+22
-6.51033  1.4591e+22
-6.39302  1.45775e+22
-6.27572  1.45737e+22
-6.15842  1.45824e+22
-6.04111  1.4605e+22
-5.92381  1.46419e+22
-5.8065  1.46938e+22
-5.68919  1.47588e+22
-5.57189  1.48358e+22
-5.45458  1.49226e+22
-5.33728  1.5018e+22
-5.21997  1.5119e+22
-5.10267  1.52239e+22
-4.98536  1.53306e+22
-4.86806  1.54375e+22
-4.75075  1.55432e+22
-4.63345  1.56474e+22
-4.51614  1.57491e+22
-4.39884  1.58486e+22
-4.28154  1.59469e+22
-4.16423  1.60445e+22
-4.04692  1.61419e+22
-3.92962  1.624e+22
-3.81231  1.63396e+22
-3.69501  1.644e+22
-3.5777  1.65404e+22
-3.4604  1.66395e+22
-3.34309  1.67353e+22
-3.22579  1.68249e+22
-3.10849  1.69057e+22
-2.99118  1.69745e+22
-2.87387  1.70291e+22
-2.75657  1.70675e+22
-2.63926  1.7088e+22
-2.52196  1.70901e+22
-2.40465  1.70741e+22
-2.28735  1.7041e+22
-2.17005  1.69926e+22
-2.05274  1.69329e+22
-1.93544  1.68639e+22
-1.81813  1.67905e+22
-1.70083  1.67162e+22
-1.58352  1.66454e+22
-1.46622  1.65819e+22
-1.34891  1.65289e+22
-1.2316  1.64887e+22
-1.1143  1.64633e+22
-0.996995  1.64524e+22
-0.87969  1.64561e+22
-0.762385  1.64712e+22
-0.64508  1.64959e+22
-0.527775  1.65257e+22
-0.41047  1.65562e+22
-0.293165  1.65836e+22
-0.17586  1.66039e+22
-0.058555  1.66148e+22
0.05875  1.66144e+22
0.176055  1.66027e+22
0.29336  1.65812e+22
0.410665  1.65532e+22
0.52797  1.65219e+22
0.645275  1.64914e+22
0.76258  1.64662e+22
0.879885  1.64503e+22
0.99719  1.64461e+22
1.1145  1.6456e+22
1.2318  1.64807e+22
1.3491  1.65201e+22
1.46641  1.65721e+22
1.58371  1.66346e+22
1.70102  1.67041e+22
1.81832  1.6777e+22
1.93563  1.68488e+22
2.05294  1.6916e+22
2.17024  1.69745e+22
2.28754  1.70209e+22
2.40485  1.70523e+22
2.52216  1.70665e+22
2.63946  1.70629e+22
2.75677  1.70406e+22
2.87407  1.70007e+22
2.99137  1.69443e+22
3.10868  1.68738e+22
3.22599  1.67918e+22
3.34329  1.67011e+22
3.4606  1.66047e+22
3.5779  1.65046e+22
3.69521  1.64031e+22
3.81251  1.63022e+22
3.92982  1.62018e+22
4.04712  1.61029e+22
4.16443  1.60051e+22
4.28173  1.5907e+22
4.39903  1.58082e+22
4.51634  1.5708e+22
4.63364  1.56059e+22
4.75095  1.55012e+22
4.86825  1.53946e+22
4.98556  1.52871e+22
5.10286  1.51798e+22
5.22017  1.50744e+22
5.33748  1.4973e+22
5.45478  1.48775e+22
5.57209  1.47902e+22
5.68939  1.47129e+22
5.8067  1.46476e+22
5.924  1.45958e+22
6.0413  1.45586e+22
6.15861  1.45358e+22
6.27591  1.45268e+22
6.39322  1.45303e+22
6.51052  1.45437e+22
6.62783  1.45628e+22
6.74514  1.45843e+22
6.86244  1.46033e+22
6.97975  1.46145e+22
7.09705  1.46135e+22
7.21436  1.45952e+22
7.33166  1.45559e+22
7.44897  1.4493e+22
7.56627  1.44048e+22
7.68358  1.42909e+22
7.80088  1.4153e+22
7.91819  1.39936e+22
8.03549  1.38176e+22
8.1528  1.36307e+22
8.2701  1.34384e+22
8.38741  1.32483e+22
8.50471  1.30672e+22
8.62202  1.29008e+22
8.73932  1.27547e+22
8.85662  1.26328e+22
8.97393  1.25365e+22
9.09123  1.2466e+22
9.20854  1.24194e+22
9.32584  1.23932e+22
9.44315  1.23807e+22
9.56045  1.23759e+22
9.67776  1.2371e+22
9.79506  1.23579e+22
9.91237  1.23293e+22
10.0297  1.22789e+22
10.147  1.22019e+22
10.2643  1.20958e+22
10.3816  1.19596e+22
10.4989  1.17961e+22
10.6162  1.16088e+22
10.7335  1.1404e+22
10.8508  1.11885e+22
10.9681  1.097e+22
11.0854  1.07566e+22
11.2027  1.05545e+22
11.32  1.03694e+22
11.4373  1.02054e+22
11.5546  1.00647e+22
11.6719  9.94726e+21
11.7893  9.85172e+21
11.9066  9.77403e+21
12.0239  9.70908e+21
12.1412  9.65183e+21
12.2585  9.5956e+21
12.3758  9.53476e+21
12.4931  9.46454e+21
12.6104  9.38138e+21
12.7277  9.28406e+21
12.845  9.17326e+21
12.9623  9.05042e+21
13.0796  8.92046e+21
13.1969  8.78752e+21
13.3142  8.65708e+21
13.4315  8.53384e+21
13.5488  8.42215e+21
13.6661  8.32475e+21
13.7834  8.24258e+21
13.9007  8.17566e+21
14.018  8.12221e+21
14.1354  8.07841e+21
14.2527  8.04063e+21
14.37  8.00429e+21
14.4873  7.9643e+21
14.6046  7.91668e+21
14.7219  7.85771e+21
14.8392  7.7852e+21
14.9565  7.69778e+21
15.0738  7.59552e+21
15.1911  7.48064e+21
15.3084  7.35515e+21
15.4257  7.22306e+21
15.543  7.08799e+21
15.6603  6.95376e+21
15.7776  6.82371e+21
15.8949  6.69961e+21
16.0122  6.58272e+21
16.1295  6.47286e+21
16.2468  6.36903e+21
16.3641  6.26936e+21
16.4815  6.17168e+21
16.5988  6.07343e+21
16.7161  5.97231e+21
16.8334  5.86754e+21
16.9507  5.75778e+21
17.068  5.64359e+21
17.1853  5.52587e+21
17.3026  5.40631e+21
17.4199  5.28752e+21
17.5372  5.17218e+21
17.6545  5.06256e+21
17.7718  4.96194e+21
17.8891  4.87158e+21
18.0064  4.79316e+21
18.1237  4.72654e+21
18.241  4.67122e+21
18.3583  4.62546e+21
18.4756  4.58674e+21
18.5929  4.55218e+21
18.7102  4.51868e+21
18.8275  4.48307e+21
18.9449  4.44331e+21
19.0622  4.39788e+21
19.1795  4.34601e+21
19.2968  4.28864e+21
19.4141  4.2273e+21
19.5314  4.16454e+21
19.6487  4.10298e+21
19.766  4.04553e+21
19.8833  3.99512e+21
20.0006  3.95313e+21
20.1179  3.92078e+21
20.2352  3.89771e+21
20.3525  3.88228e+21
20.4698  3.87181e+21
20.5871  3.86227e+21
20.7044  3.84939e+21
20.8217  3.82855e+21
20.939  3.79563e+21
21.0563  3.74735e+21
21.1736  3.68182e+21
21.291  3.59882e+21
21.4083  3.49943e+21
21.5256  3.38722e+21
21.6429  3.26615e+21
21.7602  3.14162e+21
21.8775  3.01894e+21
21.9948  2.90329e+21
22.1121  2.79881e+21
22.2294  2.70856e+21
22.3467  2.63394e+21
22.464  2.57519e+21
22.5813  2.5307e+21
22.6986  2.49825e+21
22.8159  2.47417e+21
22.9332  2.45483e+21
23.0505  2.43625e+21
23.1678  2.41496e+21
23.2851  2.38769e+21
23.4024  2.3521e+21
23.5198  2.30706e+21
23.6371  2.2523e+21
23.7544  2.18854e+21
23.8717  2.11754e+21
23.989  2.04178e+21
24.1063  1.96423e+21
24.2236  1.88788e+21
24.3409  1.81547e+21
24.4582  1.74946e+21
24.5755  1.69144e+21
24.6928  1.64246e+21
24.8101  1.60255e+21
24.9274  1.57143e+21
25.0447  1.54796e+21
25.162  1.53089e+21
25.2793  1.5186e+21
25.3966  1.50939e+21
25.5139  1.50159e+21
25.6312  1.49363e+21
25.7485  1.48418e+21
25.8658  1.4722e+21
25.9832  1.45699e+21
26.1005  1.43807e+21
26.2178  1.41543e+21
26.3351  1.38917e+21
26.4524  1.35966e+21
26.5697  1.32735e+21
26.687  1.29273e+21
26.8043  1.25602e+21
26.9216  1.21773e+21
27.0389  1.17831e+21
27.1562  1.1383e+21
27.2735  1.09826e+21
27.3908  1.05926e+21
27.5081  1.0223e+21
27.6254  9.88474e+20
27.7427  9.59009e+20
27.86  9.34703e+20
27.9773  9.16195e+20
28.0946  9.0365e+20
28.212  8.96951e+20
28.3293  8.95527e+20
28.4466  8.98532e+20
28.5639  9.0502e+20
28.6812  9.13853e+20
28.7985  9.24122e+20
28.9158  9.34732e+20
29.0331  9.44745e+20
29.1504  9.53508e+20
29.2677  9.60385e+20
29.385  9.6498e+20
29.5023  9.67083e+20
29.6196  9.66674e+20
29.7369  9.6398e+20
29.8542  9.5919e+20
29.9715  9.52517e+20
30.0888  9.44041e+20
30.2061  9.33617e+20
30.3234  9.2101e+20
30.4407  9.05729e+20
30.558  8.87303e+20
30.6754  8.6539e+20
30.7927  8.3997e+20
30.91  8.11468e+20
31.0273  7.80558e+20
31.1446  7.48338e+20
31.2619  7.16367e+20
31.3792  6.85994e+20
31.4965  6.58692e+20
31.6138  6.35734e+20
31.7311  6.17803e+20
31.8484  6.05506e+20
31.9657  5.9878e+20
32.083  5.97261e+20
32.2003  6.00112e+20
32.3176  6.06129e+20
32.4349  6.13983e+20
32.5522  6.21966e+20
32.6695  6.28516e+20
32.7868  6.32394e+20
32.9042  6.32439e+20
33.0215  6.28201e+20
33.1388  6.19865e+20
33.2561  6.08092e+20
33.3734  5.9424e+20
33.4907  5.79809e+20
33.608  5.6656e+20
33.7253  5.55866e+20
33.8426  5.48831e+20
33.9599  5.46232e+20
34.0772  5.48086e+20
34.1945  5.54153e+20
34.3118  5.63693e+20
34.4291  5.75907e+20
34.5464  5.89537e+20
34.6637  6.03198e+20
34.781  6.15669e+20
34.8983  6.25441e+20
35.0156  6.31391e+20
35.1329  6.32573e+20
35.2503  6.28322e+20
35.3676  6.18843e+20
35.4849  6.04663e+20
35.6022  5.8742e+20
35.7195  5.68866e+20
35.8368  5.51089e+20
35.9541  5.3583e+20
36.0714  5.24333e+20
36.1887  5.17214e+20
36.306  5.1392e+20
36.4233  5.13046e+20
36.5406  5.12925e+20
36.6579  5.11595e+20
36.7752  5.07199e+20
36.8925  4.98563e+20
37.0098  4.8551e+20
37.1271  4.6836e+20
37.2444  4.48609e+20
37.3617  4.27893e+20
37.479  4.08363e+20
37.5964  3.92036e+20
37.7137  3.80485e+20
37.831  3.75049e+20
37.9483  3.76052e+20
38.0656  3.83673e+20
38.1829  3.97108e+20
38.3002  4.15103e+20
38.4175  4.3605e+20
38.5348  4.57784e+20
38.6521  4.78186e+20
38.7694  4.95048e+20
38.8867  5.06525e+20
39.004  5.11478e+20
39.1213  5.09299e+20
39.2386  5.00427e+20
39.3559  4.85949e+20
39.4732  4.67756e+20
39.5905  4.48028e+20
39.7078  4.29062e+20
39.8251  4.12792e+20
39.9425  4.00605e+20
40.0598  3.93325e+20
40.1771  3.90556e+20
40.2944  3.91632e+20
40.4117  3.9525e+20
40.529  3.99867e+20
40.6463  4.03864e+20
40.7636  4.06111e+20
40.8809  4.05624e+20
40.9982  4.01976e+20
41.1155  3.95309e+20
41.2328  3.86121e+20
41.3501  3.7526e+20
41.4674  3.63679e+20
41.5847  3.52522e+20
41.702  3.42755e+20
41.8193  3.34952e+20
41.9366  3.29636e+20
42.0539  3.26654e+20
42.1712  3.25555e+20
42.2885  3.25591e+20
42.4059  3.2591e+20
42.5232  3.25473e+20
42.6405  3.23508e+20
42.7578  3.19406e+20
42.8751  3.13082e+20
42.9924  3.04695e+20
43.1097  2.94836e+20
43.227  2.84238e+20
43.3443  2.73826e+20
43.4616  2.64516e+20
43.5789  2.5709e+20
43.6962  2.52273e+20
43.8135  2.50499e+20
43.9308  2.52133e+20
44.0481  2.57273e+20
44.1654  2.65813e+20
44.2827  2.77314e+20
44.4  2.90977e+20
44.5173  3.05724e+20
44.6347  3.20224e+20
44.752  3.32921e+20
44.8693  3.42307e+20
44.9866  3.46975e+20
45.1039  3.46115e+20
45.2212  3.39423e+20
45.3385  3.27223e+20
45.4558  3.10616e+20
45.5731  2.90995e+20
45.6904  2.70182e+20
45.8077  2.49969e+20
45.925  2.31817e+20
46.0423  2.16846e+20
46.1596  2.0568e+20
46.2769  1.98409e+20
46.3942  1.94835e+20
46.5115  1.94507e+20
46.6288  1.96909e+20
46.7461  2.01551e+20
46.8634  2.08014e+20
46.9808  2.16047e+20
47.0981  2.25501e+20
47.2154  2.36177e+20
47.3327  2.48015e+20
47.45  2.60678e+20
47.5673  2.74043e+20
47.6846  2.87695e+20
47.8019  3.01362e+20
47.9192  3.14587e+20
48.0365  3.26878e+20
48.1538  3.37885e+20
48.2711  3.46971e+20
48.3884  3.53747e+20
48.5057  3.5769e+20
48.623  3.58466e+20
48.7403  3.55892e+20
48.8576  3.49963e+20
48.9749  3.40925e+20
49.0922  3.29126e+20
49.2095  3.1509e+20
49.3269  2.99545e+20
49.4442  2.83081e+20
49.5615  2.66374e+20
49.6788  2.49931e+20
49.7961  2.34211e+20
49.9134  2.195e+20
50.0307  2.06098e+20
50.148  1.94124e+20
50.2653  1.83544e+20
50.3826  1.74328e+20
50.4999  1.66323e+20
50.6172  1.59316e+20
50.7345  1.53047e+20
50.8518  1.47379e+20
