#S 1 spectral density
#N 2
#UFWHM 12.7862
#L  abscissas [um]  spectral density
-58.5938  2.54445e+19
-58.4764  2.77317e+19
-58.3591  3.11167e+19
-58.2418  3.49947e+19
-58.1245  3.87581e+19
-58.0072  4.19092e+19
-57.8899  4.41932e+19
-57.7726  4.55055e+19
-57.6553  4.59178e+19
-57.538  4.55756e+19
-57.4207  4.46662e+19
-57.3034  4.33607e+19
-57.1861  4.19005e+19
-57.0688  4.05175e+19
-56.9515  3.95452e+19
-56.8342  3.93427e+19
-56.7169  4.03322e+19
-56.5996  4.28558e+19
-56.4823  4.71452e+19
-56.365  5.31075e+19
-56.2477  6.05151e+19
-56.1303  6.87659e+19
-56.013  7.71921e+19
-55.8957  8.50029e+19
-55.7784  9.15766e+19
-55.6611  9.64054e+19
-55.5438  9.92206e+19
-55.4265  1.00105e+20
-55.3092  9.9203e+19
-55.1919  9.68338e+19
-55.0746  9.33415e+19
-54.9573  8.90505e+19
-54.84  8.42235e+19
-54.7227  7.91718e+19
-54.6054  7.41082e+19
-54.4881  6.93127e+19
-54.3708  6.50024e+19
-54.2535  6.14438e+19
-54.1362  5.87349e+19
-54.0189  5.68307e+19
-53.9016  5.55397e+19
-53.7842  5.45526e+19
-53.6669  5.33508e+19
-53.5496  5.15627e+19
-53.4323  4.89107e+19
-53.315  4.52818e+19
-53.1977  4.08241e+19
-53.0804  3.58736e+19
-52.9631  3.08851e+19
-52.8458  2.63367e+19
-52.7285  2.26905e+19
-52.6112  2.01998e+19
-52.4939  1.904e+19
-52.3766  1.92169e+19
-52.2593  2.07151e+19
-52.142  2.34391e+19
-52.0247  2.73327e+19
-51.9074  3.23035e+19
-51.7901  3.82364e+19
-51.6728  4.4949e+19
-51.5555  5.21128e+19
-51.4381  5.92523e+19
-51.3208  6.58813e+19
-51.2035  7.14077e+19
-51.0862  7.54e+19
-50.9689  7.75519e+19
-50.8516  7.77943e+19
-50.7343  7.64317e+19
-50.617  7.38351e+19
-50.4997  7.05862e+19
-50.3824  6.73721e+19
-50.2651  6.46298e+19
-50.1478  6.29026e+19
-50.0305  6.23238e+19
-49.9132  6.30489e+19
-49.7959  6.49539e+19
-49.6786  6.7819e+19
-49.5613  7.13829e+19
-49.444  7.53726e+19
-49.3267  7.94255e+19
-49.2094  8.32639e+19
-49.092  8.66371e+19
-48.9747  8.93322e+19
-48.8574  9.11765e+19
-48.7401  9.20695e+19
-48.6228  9.20006e+19
-48.5055  9.09701e+19
-48.3882  8.90824e+19
-48.2709  8.64193e+19
-48.1536  8.31351e+19
-48.0363  7.93425e+19
-47.919  7.51913e+19
-47.8017  7.08009e+19
-47.6844  6.64301e+19
-47.5671  6.2268e+19
-47.4498  5.8614e+19
-47.3325  5.57079e+19
-47.2152  5.37572e+19
-47.0979  5.28835e+19
-46.9806  5.30838e+19
-46.8633  5.42661e+19
-46.7459  5.61527e+19
-46.6286  5.85271e+19
-46.5113  6.11858e+19
-46.394  6.39931e+19
-46.2767  6.695e+19
-46.1594  7.01811e+19
-46.0421  7.3867e+19
-45.9248  7.81757e+19
-45.8075  8.31586e+19
-45.6902  8.87435e+19
-45.5729  9.46711e+19
-45.4556  1.00565e+20
-45.3383  1.05878e+20
-45.221  1.10218e+20
-45.1037  1.13198e+20
-44.9864  1.14574e+20
-44.8691  1.1439e+20
-44.7518  1.12802e+20
-44.6345  1.10035e+20
-44.5172  1.06423e+20
-44.3998  1.02318e+20
-44.2825  9.8019e+19
-44.1652  9.38369e+19
-44.0479  8.9991e+19
-43.9306  8.68452e+19
-43.8133  8.46865e+19
-43.696  8.38419e+19
-43.5787  8.45774e+19
-43.4614  8.70626e+19
-43.3441  9.12144e+19
-43.2268  9.6792e+19
-43.1095  1.03246e+20
-42.9922  1.09925e+20
-42.8749  1.15993e+20
-42.7576  1.20731e+20
-42.6403  1.2344e+20
-42.523  1.23802e+20
-42.4057  1.21621e+20
-42.2884  1.17122e+20
-42.171  1.10741e+20
-42.0537  1.02975e+20
-41.9364  9.45478e+19
-41.8191  8.61121e+19
-41.7018  7.83631e+19
-41.5845  7.181e+19
-41.4672  6.69018e+19
-41.3499  6.39173e+19
-41.2326  6.30614e+19
-41.1153  6.42552e+19
-40.998  6.72657e+19
-40.8807  7.17125e+19
-40.7634  7.70813e+19
-40.6461  8.27314e+19
-40.5288  8.80471e+19
-40.4115  9.24e+19
-40.2942  9.53844e+19
-40.1769  9.68429e+19
-40.0596  9.67009e+19
-39.9423  9.51712e+19
-39.825  9.26509e+19
-39.7076  8.96305e+19
-39.5903  8.66537e+19
-39.473  8.43395e+19
-39.3557  8.33456e+19
-39.2384  8.42267e+19
-39.1211  8.75813e+19
-39.0038  9.37892e+19
-38.8865  1.03053e+20
-38.7692  1.15176e+20
-38.6519  1.29747e+20
-38.5346  1.45809e+20
-38.4173  1.62258e+20
-38.3  1.77595e+20
-38.1827  1.90503e+20
-38.0654  1.99785e+20
-37.9481  2.04618e+20
-37.8308  2.04801e+20
-37.7135  2.00601e+20
-37.5962  1.92888e+20
-37.4789  1.82813e+20
-37.3615  1.71683e+20
-37.2442  1.60784e+20
-37.1269  1.51067e+20
-37.0096  1.43415e+20
-36.8923  1.38137e+20
-36.775  1.35422e+20
-36.6577  1.35229e+20
-36.5404  1.37458e+20
-36.4231  1.4182e+20
-36.3058  1.47994e+20
-36.1885  1.55506e+20
-36.0712  1.63786e+20
-35.9539  1.72049e+20
-35.8366  1.79454e+20
-35.7193  1.85138e+20
-35.602  1.88405e+20
-35.4847  1.88893e+20
-35.3674  1.86507e+20
-35.2501  1.81675e+20
-35.1328  1.75159e+20
-35.0154  1.67848e+20
-34.8981  1.60804e+20
-34.7808  1.54831e+20
-34.6635  1.5061e+20
-34.5462  1.48419e+20
-34.4289  1.48338e+20
-34.3116  1.50166e+20
-34.1943  1.53601e+20
-34.077  1.58263e+20
-33.9597  1.63896e+20
-33.8424  1.70197e+20
-33.7251  1.76938e+20
-33.6078  1.83848e+20
-33.4905  1.90748e+20
-33.3732  1.97301e+20
-33.2559  2.03315e+20
-33.1386  2.08501e+20
-33.0213  2.12837e+20
-32.904  2.16374e+20
-32.7867  2.19243e+20
-32.6693  2.21779e+20
-32.552  2.24305e+20
-32.4347  2.27165e+20
-32.3174  2.30658e+20
-32.2001  2.34941e+20
-32.0828  2.4014e+20
-31.9655  2.46246e+20
-31.8482  2.53244e+20
-31.7309  2.61078e+20
-31.6136  2.69587e+20
-31.4963  2.78592e+20
-31.379  2.87735e+20
-31.2617  2.9673e+20
-31.1444  3.05095e+20
-31.0271  3.12234e+20
-30.9098  3.17779e+20
-30.7925  3.21172e+20
-30.6752  3.22355e+20
-30.5579  3.21365e+20
-30.4406  3.18366e+20
-30.3232  3.13805e+20
-30.2059  3.08225e+20
-30.0886  3.02237e+20
-29.9713  2.9648e+20
-29.854  2.9139e+20
-29.7367  2.87479e+20
-29.6194  2.85011e+20
-29.5021  2.84314e+20
-29.3848  2.85364e+20
-29.2675  2.88053e+20
-29.1502  2.92124e+20
-29.0329  2.97123e+20
-28.9156  3.02283e+20
-28.7983  3.06911e+20
-28.681  3.10122e+20
-28.5637  3.1133e+20
-28.4464  3.09999e+20
-28.3291  3.06073e+20
-28.2118  2.99878e+20
-28.0944  2.91933e+20
-27.9771  2.83076e+20
-27.8598  2.74261e+20
-27.7425  2.66267e+20
-27.6252  2.59864e+20
-27.5079  2.55434e+20
-27.3906  2.53177e+20
-27.2733  2.53057e+20
-27.156  2.54779e+20
-27.0387  2.58149e+20
-26.9214  2.62745e+20
-26.8041  2.68314e+20
-26.6868  2.74528e+20
-26.5695  2.81301e+20
-26.4522  2.88433e+20
-26.3349  2.95773e+20
-26.2176  3.03404e+20
-26.1003  3.11116e+20
-25.983  3.19138e+20
-25.8657  3.27534e+20
-25.7483  3.36278e+20
-25.631  3.45563e+20
-25.5137  3.5518e+20
-25.3964  3.65068e+20
-25.2791  3.75004e+20
-25.1618  3.84554e+20
-25.0445  3.93308e+20
-24.9272  4.00901e+20
-24.8099  4.07128e+20
-24.6926  4.11773e+20
-24.5753  4.14805e+20
-24.458  4.16475e+20
-24.3407  4.17166e+20
-24.2234  4.17253e+20
-24.1061  4.17312e+20
-23.9888  4.17925e+20
-23.8715  4.1968e+20
-23.7542  4.23263e+20
-23.6369  4.29242e+20
-23.5196  4.38204e+20
-23.4023  4.50605e+20
-23.2849  4.66658e+20
-23.1676  4.8642e+20
-23.0503  5.09603e+20
-22.933  5.35651e+20
-22.8157  5.63837e+20
-22.6984  5.93204e+20
-22.5811  6.22945e+20
-22.4638  6.51969e+20
-22.3465  6.79655e+20
-22.2292  7.05388e+20
-22.1119  7.28824e+20
-21.9946  7.49641e+20
-21.8773  7.67779e+20
-21.76  7.83293e+20
-21.6427  7.96278e+20
-21.5254  8.06971e+20
-21.4081  8.15715e+20
-21.2908  8.23099e+20
-21.1735  8.29651e+20
-21.0561  8.36209e+20
-20.9388  8.4352e+20
-20.8215  8.52424e+20
-20.7042  8.63409e+20
-20.5869  8.77074e+20
-20.4696  8.93385e+20
-20.3523  9.12235e+20
-20.235  9.33147e+20
-20.1177  9.55604e+20
-20.0004  9.78708e+20
-19.8831  1.00145e+21
-19.7658  1.02304e+21
-19.6485  1.0428e+21
-19.5312  1.05989e+21
-19.4139  1.07399e+21
-19.2966  1.08482e+21
-19.1793  1.09233e+21
-19.062  1.09677e+21
-18.9447  1.09873e+21
-18.8274  1.09918e+21
-18.71  1.09888e+21
-18.5927  1.0992e+21
-18.4754  1.1014e+21
-18.3581  1.10651e+21
-18.2408  1.11562e+21
-18.1235  1.1291e+21
-18.0062  1.14717e+21
-17.8889  1.16976e+21
-17.7716  1.19573e+21
-17.6543  1.22467e+21
-17.537  1.25494e+21
-17.4197  1.28557e+21
-17.3024  1.31501e+21
-17.1851  1.34225e+21
-17.0678  1.36648e+21
-16.9505  1.38696e+21
-16.8332  1.40336e+21
-16.7159  1.4159e+21
-16.5986  1.42505e+21
-16.4813  1.43163e+21
-16.364  1.43689e+21
-16.2466  1.44183e+21
-16.1293  1.44772e+21
-16.012  1.45592e+21
-15.8947  1.4673e+21
-15.7774  1.48234e+21
-15.6601  1.50136e+21
-15.5428  1.52417e+21
-15.4255  1.55041e+21
-15.3082  1.57959e+21
-15.1909  1.61053e+21
-15.0736  1.64317e+21
-14.9563  1.67685e+21
-14.839  1.7114e+21
-14.7217  1.74671e+21
-14.6044  1.78315e+21
-14.4871  1.82091e+21
-14.3698  1.86041e+21
-14.2525  1.9021e+21
-14.1352  1.94661e+21
-14.0178  1.99404e+21
-13.9005  2.04516e+21
-13.7832  2.1004e+21
-13.6659  2.16001e+21
-13.5486  2.22475e+21
-13.4313  2.29454e+21
-13.314  2.36964e+21
-13.1967  2.44992e+21
-13.0794  2.53491e+21
-12.9621  2.6246e+21
-12.8448  2.71824e+21
-12.7275  2.81576e+21
-12.6102  2.91694e+21
-12.4929  3.02213e+21
-12.3756  3.13163e+21
-12.2583  3.24625e+21
-12.141  3.36686e+21
-12.0237  3.49444e+21
-11.9064  3.62996e+21
-11.7891  3.77447e+21
-11.6718  3.92881e+21
-11.5544  4.0935e+21
-11.4371  4.26877e+21
-11.3198  4.45529e+21
-11.2025  4.65279e+21
-11.0852  4.86131e+21
-10.9679  5.08058e+21
-10.8506  5.31001e+21
-10.7333  5.54893e+21
-10.616  5.79673e+21
-10.4987  6.05229e+21
-10.3814  6.31481e+21
-10.2641  6.58324e+21
-10.1468  6.8572e+21
-10.0295  7.13558e+21
-9.91217  7.41778e+21
-9.79487  7.70373e+21
-9.67756  7.99291e+21
-9.56026  8.28466e+21
-9.44295  8.57903e+21
-9.32565  8.87614e+21
-9.20834  9.17589e+21
-9.09104  9.47874e+21
-8.97373  9.78526e+21
-8.85643  1.00973e+22
-8.73913  1.04152e+22
-8.62182  1.07409e+22
-8.50452  1.10759e+22
-8.38721  1.14214e+22
-8.26991  1.17788e+22
-8.1526  1.21484e+22
-8.03529  1.25301e+22
-7.91799  1.29232e+22
-7.80069  1.33267e+22
-7.68338  1.37378e+22
-7.56608  1.41545e+22
-7.44877  1.45736e+22
-7.33146  1.49921e+22
-7.21416  1.54068e+22
-7.09685  1.58155e+22
-6.97955  1.62161e+22
-6.86224  1.66077e+22
-6.74494  1.69903e+22
-6.62763  1.73645e+22
-6.51033  1.77323e+22
-6.39302  1.80963e+22
-6.27572  1.84595e+22
-6.15842  1.88255e+22
-6.04111  1.91967e+22
-5.92381  1.95767e+22
-5.8065  1.99673e+22
-5.68919  2.03698e+22
-5.57189  2.07849e+22
-5.45458  2.12118e+22
-5.33728  2.16493e+22
-5.21997  2.20946e+22
-5.10267  2.25452e+22
-4.98536  2.29973e+22
-4.86806  2.34473e+22
-4.75075  2.3892e+22
-4.63345  2.43285e+22
-4.51614  2.47547e+22
-4.39884  2.51696e+22
-4.28154  2.55731e+22
-4.16423  2.59671e+22
-4.04692  2.63522e+22
-3.92962  2.67318e+22
-3.81231  2.71083e+22
-3.69501  2.74841e+22
-3.5777  2.78611e+22
-3.4604  2.824e+22
-3.34309  2.86205e+22
-3.22579  2.90015e+22
-3.10849  2.93813e+22
-2.99118  2.97562e+22
-2.87387  3.01236e+22
-2.75657  3.04796e+22
-2.63926  3.08217e+22
-2.52196  3.1147e+22
-2.40465  3.14549e+22
-2.28735  3.17445e+22
-2.17005  3.20176e+22
-2.05274  3.22763e+22
-1.93544  3.25235e+22
-1.81813  3.27632e+22
-1.70083  3.29997e+22
-1.58352  3.32365e+22
-1.46622  3.34772e+22
-1.34891  3.37233e+22
-1.2316  3.39763e+22
-1.1143  3.42347e+22
-0.996995  3.44961e+22
-0.87969  3.47564e+22
-0.762385  3.50086e+22
-0.64508  3.52463e+22
-0.527775  3.54615e+22
-0.41047  3.56461e+22
-0.293165  3.57923e+22
-0.17586  3.58945e+22
-0.058555  3.59478e+22
0.05875  3.59496e+22
0.176055  3.59006e+22
0.29336  3.58026e+22
0.410665  3.56604e+22
0.52797  3.54801e+22
0.645275  3.52693e+22
0.76258  3.50359e+22
0.879885  3.47882e+22
0.99719  3.45331e+22
1.1145  3.42767e+22
1.2318  3.40231e+22
1.3491  3.37752e+22
1.46641  3.3534e+22
1.58371  3.32983e+22
1.70102  3.30666e+22
1.81832  3.28351e+22
1.93563  3.26002e+22
2.05294  3.23575e+22
2.17024  3.21036e+22
2.28754  3.18349e+22
2.40485  3.15492e+22
2.52216  3.12453e+22
2.63946  3.09233e+22
2.75677  3.05847e+22
2.87407  3.02316e+22
2.99137  2.98672e+22
3.10868  2.94947e+22
3.22599  2.91172e+22
3.34329  2.87382e+22
3.4606  2.83592e+22
3.5779  2.79821e+22
3.69521  2.76069e+22
3.81251  2.72326e+22
3.92982  2.68574e+22
4.04712  2.64789e+22
4.16443  2.6095e+22
4.28173  2.57025e+22
4.39903  2.53e+22
4.51634  2.48863e+22
4.63364  2.44615e+22
4.75095  2.40264e+22
4.86825  2.3583e+22
4.98556  2.31344e+22
5.10286  2.26839e+22
5.22017  2.22342e+22
5.33748  2.17901e+22
5.45478  2.13538e+22
5.57209  2.09278e+22
5.68939  2.05134e+22
5.8067  2.01113e+22
5.924  1.97208e+22
6.0413  1.93409e+22
6.15861  1.89695e+22
6.27591  1.8603e+22
6.39322  1.82394e+22
6.51052  1.78745e+22
6.62783  1.75057e+22
6.74514  1.71303e+22
6.86244  1.67466e+22
6.97975  1.63536e+22
7.09705  1.59516e+22
7.21436  1.55416e+22
7.33166  1.51249e+22
7.44897  1.4705e+22
7.56627  1.42843e+22
7.68358  1.3866e+22
7.80088  1.34529e+22
7.91819  1.30479e+22
8.03549  1.26529e+22
8.1528  1.22694e+22
8.2701  1.18978e+22
8.38741  1.15388e+22
8.50471  1.1191e+22
8.62202  1.08541e+22
8.73932  1.05264e+22
8.85662  1.02064e+22
8.97393  9.89238e+21
9.09123  9.5834e+21
9.20854  9.27831e+21
9.32584  8.97619e+21
9.44315  8.67676e+21
9.56045  8.37973e+21
9.67776  8.0854e+21
9.79506  7.79382e+21
9.91237  7.50494e+21
10.0297  7.21988e+21
10.147  6.93883e+21
10.2643  6.66214e+21
10.3816  6.39091e+21
10.4989  6.12559e+21
10.6162  5.86724e+21
10.7335  5.61687e+21
10.8508  5.37552e+21
10.9681  5.1436e+21
11.0854  4.92214e+21
11.2027  4.7114e+21
11.32  4.51181e+21
11.4373  4.32336e+21
11.5546  4.14604e+21
11.6719  3.97943e+21
11.7893  3.8233e+21
11.9066  3.67693e+21
12.0239  3.53942e+21
12.1412  3.41007e+21
12.2585  3.28763e+21
12.3758  3.17126e+21
12.4931  3.05992e+21
12.6104  2.95307e+21
12.7277  2.85012e+21
12.845  2.75082e+21
12.9623  2.65558e+21
13.0796  2.56446e+21
13.1969  2.47776e+21
13.3142  2.39619e+21
13.4315  2.31979e+21
13.5488  2.24855e+21
13.6661  2.18258e+21
13.7834  2.12164e+21
13.9007  2.06523e+21
14.018  2.01274e+21
14.1354  1.96411e+21
14.2527  1.91857e+21
14.37  1.87566e+21
14.4873  1.83518e+21
14.6046  1.79626e+21
14.7219  1.75892e+21
14.8392  1.7226e+21
14.9565  1.68705e+21
15.0738  1.6527e+21
15.1911  1.61918e+21
15.3084  1.58745e+21
15.4257  1.55784e+21
15.543  1.53119e+21
15.6603  1.50793e+21
15.7776  1.48844e+21
15.8949  1.473e+21
16.0122  1.46145e+21
16.1295  1.45302e+21
16.2468  1.4468e+21
16.3641  1.44164e+21
16.4815  1.4361e+21
16.5988  1.42908e+21
16.7161  1.41975e+21
16.8334  1.4068e+21
16.9507  1.39002e+21
17.068  1.36928e+21
17.1853  1.34487e+21
17.3026  1.31741e+21
17.4199  1.28779e+21
17.5372  1.25702e+21
17.6545  1.22685e+21
17.7718  1.19798e+21
17.8891  1.17195e+21
18.0064  1.14964e+21
18.1237  1.13182e+21
18.241  1.11851e+21
18.3583  1.10973e+21
18.4756  1.10482e+21
18.5929  1.10286e+21
18.7102  1.10255e+21
18.8275  1.10304e+21
18.9449  1.10276e+21
19.0622  1.10074e+21
19.1795  1.09639e+21
19.2968  1.08887e+21
19.4141  1.07809e+21
19.5314  1.06388e+21
19.6487  1.04663e+21
19.766  1.02694e+21
19.8833  1.00514e+21
20.0006  9.82401e+20
20.1179  9.59392e+20
20.2352  9.37071e+20
20.3525  9.16178e+20
20.4698  8.97385e+20
20.5871  8.81208e+20
20.7044  8.67698e+20
20.8217  8.56816e+20
20.939  8.48121e+20
21.0563  8.40898e+20
21.1736  8.34401e+20
21.291  8.27818e+20
21.4083  8.20528e+20
21.5256  8.11656e+20
21.6429  8.009e+20
21.7602  7.8775e+20
21.8775  7.72063e+20
21.9948  7.53679e+20
22.1121  7.32691e+20
22.2294  7.09072e+20
22.3467  6.83131e+20
22.464  6.55168e+20
22.5813  6.25898e+20
22.6986  5.9603e+20
22.8159  5.66512e+20
22.9332  5.38239e+20
23.0505  5.12152e+20
23.1678  4.88966e+20
23.2851  4.692e+20
23.4024  4.53131e+20
23.5198  4.40756e+20
23.6371  4.31797e+20
23.7544  4.25793e+20
23.8717  4.22209e+20
23.989  4.20418e+20
24.1063  4.19779e+20
24.2236  4.19622e+20
24.3409  4.1942e+20
24.4582  4.18609e+20
24.5755  4.16769e+20
24.6928  4.13572e+20
24.8101  4.08839e+20
24.9274  4.02471e+20
25.0447  3.94703e+20
25.162  3.8584e+20
25.2793  3.76176e+20
25.3966  3.66194e+20
25.5139  3.56178e+20
25.6312  3.46464e+20
25.7485  3.37172e+20
25.8658  3.28298e+20
25.9832  3.19944e+20
26.1005  3.11804e+20
26.2178  3.03928e+20
26.3351  2.96355e+20
26.4524  2.88927e+20
26.5697  2.8175e+20
26.687  2.74969e+20
26.8043  2.68719e+20
26.9216  2.632e+20
27.0389  2.58619e+20
27.1562  2.55289e+20
27.2735  2.53613e+20
27.3908  2.53844e+20
27.5081  2.56155e+20
27.6254  2.60691e+20
27.7427  2.67155e+20
27.86  2.75196e+20
27.9773  2.84032e+20
28.0946  2.92836e+20
28.212  3.00722e+20
28.3293  3.06815e+20
28.4466  3.10642e+20
28.5639  3.11847e+20
28.6812  3.10559e+20
28.7985  3.0728e+20
28.9158  3.02617e+20
29.0331  2.97457e+20
29.1504  2.92496e+20
29.2677  2.88455e+20
29.385  2.85802e+20
29.5023  2.84854e+20
29.6196  2.85651e+20
29.7369  2.88155e+20
29.8542  2.9213e+20
29.9715  2.97192e+20
30.0888  3.03058e+20
30.2061  3.09025e+20
30.3234  3.14592e+20
30.4407  3.19138e+20
30.558  3.22062e+20
30.6754  3.23107e+20
30.7927  3.21815e+20
30.91  3.18286e+20
31.0273  3.12792e+20
31.1446  3.0565e+20
31.2619  2.97293e+20
31.3792  2.88334e+20
31.4965  2.7917e+20
31.6138  2.70217e+20
31.7311  2.61745e+20
31.8484  2.53934e+20
31.9657  2.46988e+20
32.083  2.40899e+20
32.2003  2.35718e+20
32.3176  2.31474e+20
32.4349  2.27981e+20
32.5522  2.25135e+20
32.6695  2.22592e+20
32.7868  2.20027e+20
32.9042  2.17125e+20
33.0215  2.13543e+20
33.1388  2.09152e+20
33.2561  2.03918e+20
33.3734  1.97867e+20
33.4907  1.91281e+20
33.608  1.84377e+20
33.7253  1.77445e+20
33.8426  1.70725e+20
33.9599  1.64437e+20
34.0772  1.58834e+20
34.1945  1.54201e+20
34.3118  1.50838e+20
34.4291  1.49078e+20
34.5464  1.49226e+20
34.6637  1.51474e+20
34.781  1.55764e+20
34.8983  1.61775e+20
35.0156  1.68877e+20
35.1329  1.76163e+20
35.2503  1.8265e+20
35.3676  1.87376e+20
35.4849  1.89621e+20
35.6022  1.89034e+20
35.7195  1.85615e+20
35.8368  1.79834e+20
35.9541  1.72368e+20
36.0714  1.64034e+20
36.1887  1.55741e+20
36.306  1.48206e+20
36.4233  1.42054e+20
36.5406  1.3773e+20
36.6579  1.35572e+20
36.7752  1.35809e+20
36.8925  1.386e+20
37.0098  1.43964e+20
37.1271  1.51721e+20
37.2444  1.61445e+20
37.3617  1.7236e+20
37.479  1.83464e+20
37.5964  1.93494e+20
37.7137  2.01054e+20
37.831  2.05095e+20
37.9483  2.0471e+20
38.0656  1.99707e+20
38.1829  1.90255e+20
38.3002  1.77214e+20
38.4175  1.61768e+20
38.5348  1.45298e+20
38.6521  1.29238e+20
38.7694  1.14726e+20
38.8867  1.02648e+20
39.004  9.35039e+19
39.1213  8.74076e+19
39.2386  8.41668e+19
39.3559  8.33332e+19
39.4732  8.43785e+19
39.5905  8.67248e+19
39.7078  8.97272e+19
39.8251  9.27758e+19
39.9425  9.52887e+19
40.0598  9.6784e+19
40.1771  9.6871e+19
40.2944  9.53912e+19
40.4117  9.23253e+19
40.529  8.79385e+19
40.6463  8.26382e+19
40.7636  7.69726e+19
40.8809  7.1649e+19
40.9982  6.72357e+19
41.1155  6.42691e+19
41.2328  6.31563e+19
41.3501  6.41272e+19
41.4674  6.71703e+19
41.5847  7.21485e+19
41.702  7.87996e+19
41.8193  8.66025e+19
41.9366  9.50592e+19
42.0539  1.03482e+20
42.1712  1.11225e+20
42.2885  1.17597e+20
42.4059  1.2201e+20
42.5232  1.24105e+20
42.6405  1.23628e+20
42.7578  1.20851e+20
42.8751  1.16044e+20
42.9924  1.09921e+20
43.1097  1.03234e+20
43.227  9.67802e+19
43.3443  9.12364e+19
43.4616  8.71178e+19
43.5789  8.46786e+19
43.6962  8.39937e+19
43.8135  8.48758e+19
43.9308  8.70855e+19
44.0481  9.0281e+19
44.1654  9.41105e+19
44.2827  9.83331e+19
44.4  1.02636e+20
44.5173  1.06732e+20
44.6347  1.10318e+20
44.752  1.13073e+20
44.8693  1.1465e+20
44.9866  1.14792e+20
45.1039  1.13339e+20
45.2212  1.10342e+20
45.3385  1.05954e+20
45.4558  1.00592e+20
45.5731  9.47251e+19
45.6904  8.87853e+19
45.8077  8.32129e+19
45.925  7.82428e+19
46.0423  7.39754e+19
46.1596  7.02942e+19
46.2769  6.70639e+19
46.3942  6.41276e+19
46.5115  6.13197e+19
46.6288  5.86888e+19
46.7461  5.63284e+19
46.8634  5.44649e+19
46.9808  5.33423e+19
47.0981  5.31804e+19
47.2154  5.41057e+19
47.3327  5.60821e+19
47.45  5.90344e+19
47.5673  6.27313e+19
47.6846  6.69074e+19
47.8019  7.129e+19
47.9192  7.56735e+19
48.0365  7.98321e+19
48.1538  8.36131e+19
48.2711  8.68838e+19
48.3884  8.94952e+19
48.5057  9.13334e+19
48.623  9.23093e+19
48.7403  9.23581e+19
48.8576  9.14108e+19
48.9749  8.95063e+19
49.0922  8.67593e+19
49.2095  8.33437e+19
49.3269  7.94518e+19
49.4442  7.53958e+19
49.5615  7.14151e+19
49.6788  6.78482e+19
49.7961  6.49898e+19
49.9134  6.31325e+19
50.0307  6.24511e+19
50.148  6.30354e+19
50.2653  6.48193e+19
50.3826  6.75303e+19
50.4999  7.0791e+19
50.6172  7.39977e+19
50.7345  7.65372e+19
50.8518  7.78369e+19
