#S 1 spectral density
#N 2
#UFWHM 50.7931
#L  abscissas [um]  spectral density
-58.5938  3.84276e+20
-58.4764  3.73932e+20
-58.3591  3.64358e+20
-58.2418  3.56018e+20
-58.1245  3.49384e+20
-58.0072  3.44867e+20
-57.8899  3.43063e+20
-57.7726  3.44293e+20
-57.6553  3.48769e+20
-57.538  3.56441e+20
-57.4207  3.66959e+20
-57.3034  3.79699e+20
-57.1861  3.93813e+20
-57.0688  4.0848e+20
-56.9515  4.22949e+20
-56.8342  4.36602e+20
-56.7169  4.49001e+20
-56.5996  4.60013e+20
-56.4823  4.69481e+20
-56.365  4.77368e+20
-56.2477  4.83616e+20
-56.1303  4.87993e+20
-56.013  4.90402e+20
-55.8957  4.90611e+20
-55.7784  4.88809e+20
-55.6611  4.85003e+20
-55.5438  4.79547e+20
-55.4265  4.73046e+20
-55.3092  4.66005e+20
-55.1919  4.59019e+20
-55.0746  4.52559e+20
-54.9573  4.46936e+20
-54.84  4.42473e+20
-54.7227  4.39399e+20
-54.6054  4.37929e+20
-54.4881  4.3835e+20
-54.3708  4.40835e+20
-54.2535  4.45885e+20
-54.1362  4.53675e+20
-54.0189  4.64233e+20
-53.9016  4.77415e+20
-53.7842  4.92902e+20
-53.6669  5.09977e+20
-53.5496  5.28027e+20
-53.4323  5.46395e+20
-53.315  5.64343e+20
-53.1977  5.81606e+20
-53.0804  5.97694e+20
-52.9631  6.12476e+20
-52.8458  6.25763e+20
-52.7285  6.37275e+20
-52.6112  6.46862e+20
-52.4939  6.54296e+20
-52.3766  6.59295e+20
-52.2593  6.61898e+20
-52.142  6.62133e+20
-52.0247  6.60197e+20
-51.9074  6.56703e+20
-51.7901  6.51956e+20
-51.6728  6.46607e+20
-51.5555  6.40967e+20
-51.4381  6.35265e+20
-51.3208  6.29444e+20
-51.2035  6.23457e+20
-51.0862  6.17237e+20
-50.9689  6.10616e+20
-50.8516  6.03716e+20
-50.7343  5.96846e+20
-50.617  5.90415e+20
-50.4997  5.85063e+20
-50.3824  5.81426e+20
-50.2651  5.80146e+20
-50.1478  5.81731e+20
-50.0305  5.86648e+20
-49.9132  5.95141e+20
-49.7959  6.07283e+20
-49.6786  6.22893e+20
-49.5613  6.41903e+20
-49.444  6.63911e+20
-49.3267  6.88376e+20
-49.2094  7.14701e+20
-49.092  7.42118e+20
-48.9747  7.69699e+20
-48.8574  7.96679e+20
-48.7401  8.22076e+20
-48.6228  8.45186e+20
-48.5055  8.6532e+20
-48.3882  8.81981e+20
-48.2709  8.95004e+20
-48.1536  9.04261e+20
-48.0363  9.09908e+20
-47.919  9.12394e+20
-47.8017  9.1239e+20
-47.6844  9.10496e+20
-47.5671  9.07806e+20
-47.4498  9.05106e+20
-47.3325  9.0327e+20
-47.2152  9.02905e+20
-47.0979  9.04333e+20
-46.9806  9.07766e+20
-46.8633  9.12826e+20
-46.7459  9.19022e+20
-46.6286  9.25741e+20
-46.5113  9.32382e+20
-46.394  9.38598e+20
-46.2767  9.44076e+20
-46.1594  9.49092e+20
-46.0421  9.5404e+20
-45.9248  9.59511e+20
-45.8075  9.6641e+20
-45.6902  9.75353e+20
-45.5729  9.86972e+20
-45.4556  1.00167e+21
-45.3383  1.01964e+21
-45.221  1.04095e+21
-45.1037  1.06526e+21
-44.9864  1.09212e+21
-44.8691  1.12091e+21
-44.7518  1.15087e+21
-44.6345  1.18092e+21
-44.5172  1.20979e+21
-44.3998  1.23596e+21
-44.2825  1.25819e+21
-44.1652  1.27519e+21
-44.0479  1.28591e+21
-43.9306  1.28989e+21
-43.8133  1.28708e+21
-43.696  1.27811e+21
-43.5787  1.26419e+21
-43.4614  1.24691e+21
-43.3441  1.22813e+21
-43.2268  1.20978e+21
-43.1095  1.19377e+21
-42.9922  1.18174e+21
-42.8749  1.17512e+21
-42.7576  1.17473e+21
-42.6403  1.18124e+21
-42.523  1.19463e+21
-42.4057  1.21477e+21
-42.2884  1.24098e+21
-42.171  1.27229e+21
-42.0537  1.3072e+21
-41.9364  1.34429e+21
-41.8191  1.3819e+21
-41.7018  1.41862e+21
-41.5845  1.45288e+21
-41.4672  1.48378e+21
-41.3499  1.51086e+21
-41.2326  1.53399e+21
-41.1153  1.55369e+21
-40.998  1.57084e+21
-40.8807  1.58642e+21
-40.7634  1.6018e+21
-40.6461  1.61818e+21
-40.5288  1.63662e+21
-40.4115  1.65797e+21
-40.2942  1.68245e+21
-40.1769  1.71015e+21
-40.0596  1.74058e+21
-39.9423  1.77283e+21
-39.825  1.8054e+21
-39.7076  1.83659e+21
-39.5903  1.86489e+21
-39.473  1.88853e+21
-39.3557  1.90621e+21
-39.2384  1.9173e+21
-39.1211  1.92175e+21
-39.0038  1.92009e+21
-38.8865  1.91385e+21
-38.7692  1.90485e+21
-38.6519  1.89523e+21
-38.5346  1.88718e+21
-38.4173  1.88277e+21
-38.3  1.88378e+21
-38.1827  1.89161e+21
-38.0654  1.90691e+21
-37.9481  1.93026e+21
-37.8308  1.96134e+21
-37.7135  1.99963e+21
-37.5962  2.04405e+21
-37.4789  2.09295e+21
-37.3615  2.14403e+21
-37.2442  2.19482e+21
-37.1269  2.24265e+21
-37.0096  2.28477e+21
-36.8923  2.31876e+21
-36.775  2.34286e+21
-36.6577  2.35638e+21
-36.5404  2.35946e+21
-36.4231  2.35339e+21
-36.3058  2.34037e+21
-36.1885  2.32307e+21
-36.0712  2.30444e+21
-35.9539  2.28764e+21
-35.8366  2.27503e+21
-35.7193  2.26889e+21
-35.602  2.27047e+21
-35.4847  2.28078e+21
-35.3674  2.30003e+21
-35.2501  2.32796e+21
-35.1328  2.36357e+21
-35.0154  2.40554e+21
-34.8981  2.45247e+21
-34.7808  2.50193e+21
-34.6635  2.55172e+21
-34.5462  2.59952e+21
-34.4289  2.64346e+21
-34.3116  2.68151e+21
-34.1943  2.71281e+21
-34.077  2.73706e+21
-33.9597  2.75467e+21
-33.8424  2.76659e+21
-33.7251  2.77451e+21
-33.6078  2.78017e+21
-33.4905  2.78548e+21
-33.3732  2.79196e+21
-33.2559  2.80123e+21
-33.1386  2.81402e+21
-33.0213  2.83114e+21
-32.904  2.85283e+21
-32.7867  2.87885e+21
-32.6693  2.90882e+21
-32.552  2.94172e+21
-32.4347  2.9769e+21
-32.3174  3.01305e+21
-32.2001  3.04912e+21
-32.0828  3.08419e+21
-31.9655  3.11744e+21
-31.8482  3.14886e+21
-31.7309  3.17826e+21
-31.6136  3.20649e+21
-31.4963  3.23429e+21
-31.379  3.26247e+21
-31.2617  3.29228e+21
-31.1444  3.32421e+21
-31.0271  3.35916e+21
-30.9098  3.39701e+21
-30.7925  3.43785e+21
-30.6752  3.48091e+21
-30.5579  3.52536e+21
-30.4406  3.56996e+21
-30.3232  3.61317e+21
-30.2059  3.65396e+21
-30.0886  3.69033e+21
-29.9713  3.72101e+21
-29.854  3.74499e+21
-29.7367  3.76167e+21
-29.6194  3.77058e+21
-29.5021  3.77246e+21
-29.3848  3.76835e+21
-29.2675  3.76002e+21
-29.1502  3.74907e+21
-29.0329  3.73787e+21
-28.9156  3.72849e+21
-28.7983  3.72293e+21
-28.681  3.7227e+21
-28.5637  3.72933e+21
-28.4464  3.74351e+21
-28.3291  3.76604e+21
-28.2118  3.79687e+21
-28.0944  3.83581e+21
-27.9771  3.88237e+21
-27.8598  3.93509e+21
-27.7425  3.99312e+21
-27.6252  4.05407e+21
-27.5079  4.11627e+21
-27.3906  4.1776e+21
-27.2733  4.23583e+21
-27.156  4.28961e+21
-27.0387  4.33727e+21
-26.9214  4.37844e+21
-26.8041  4.41277e+21
-26.6868  4.44032e+21
-26.5695  4.4619e+21
-26.4522  4.47806e+21
-26.3349  4.49042e+21
-26.2176  4.4999e+21
-26.1003  4.508e+21
-25.983  4.51569e+21
-25.8657  4.5242e+21
-25.7483  4.53469e+21
-25.631  4.54743e+21
-25.5137  4.56397e+21
-25.3964  4.58386e+21
-25.2791  4.60749e+21
-25.1618  4.63475e+21
-25.0445  4.66542e+21
-24.9272  4.69909e+21
-24.8099  4.73533e+21
-24.6926  4.77382e+21
-24.5753  4.81455e+21
-24.458  4.85682e+21
-24.3407  4.90054e+21
-24.2234  4.94535e+21
-24.1061  4.99104e+21
-23.9888  5.03709e+21
-23.8715  5.08336e+21
-23.7542  5.12943e+21
-23.6369  5.17511e+21
-23.5196  5.21972e+21
-23.4023  5.26325e+21
-23.2849  5.30528e+21
-23.1676  5.34498e+21
-23.0503  5.38243e+21
-22.933  5.4162e+21
-22.8157  5.44608e+21
-22.6984  5.47143e+21
-22.5811  5.49174e+21
-22.4638  5.50731e+21
-22.3465  5.51811e+21
-22.2292  5.52542e+21
-22.1119  5.53024e+21
-21.9946  5.53407e+21
-21.8773  5.5384e+21
-21.76  5.54474e+21
-21.6427  5.55496e+21
-21.5254  5.57039e+21
-21.4081  5.59216e+21
-21.2908  5.62062e+21
-21.1735  5.65617e+21
-21.0561  5.69869e+21
-20.9388  5.74727e+21
-20.8215  5.80138e+21
-20.7042  5.8586e+21
-20.5869  5.91725e+21
-20.4696  5.97494e+21
-20.3523  6.02908e+21
-20.235  6.07758e+21
-20.1177  6.11795e+21
-20.0004  6.14873e+21
-19.8831  6.16965e+21
-19.7658  6.17998e+21
-19.6485  6.18066e+21
-19.5312  6.17317e+21
-19.4139  6.15963e+21
-19.2966  6.14247e+21
-19.1793  6.1245e+21
-19.062  6.1086e+21
-18.9447  6.09732e+21
-18.8274  6.09269e+21
-18.71  6.09679e+21
-18.5927  6.11054e+21
-18.4754  6.13433e+21
-18.3581  6.16804e+21
-18.2408  6.21013e+21
-18.1235  6.25919e+21
-18.0062  6.31284e+21
-17.8889  6.36885e+21
-17.7716  6.42494e+21
-17.6543  6.47843e+21
-17.537  6.52825e+21
-17.4197  6.57291e+21
-17.3024  6.61264e+21
-17.1851  6.64743e+21
-17.0678  6.67844e+21
-16.9505  6.70773e+21
-16.8332  6.73732e+21
-16.7159  6.76927e+21
-16.5986  6.80545e+21
-16.4813  6.84742e+21
-16.364  6.89634e+21
-16.2466  6.95246e+21
-16.1293  7.01551e+21
-16.012  7.08345e+21
-15.8947  7.15418e+21
-15.7774  7.22467e+21
-15.6601  7.29095e+21
-15.5428  7.34984e+21
-15.4255  7.39721e+21
-15.3082  7.4302e+21
-15.1909  7.44736e+21
-15.0736  7.4473e+21
-14.9563  7.43081e+21
-14.839  7.39994e+21
-14.7217  7.35787e+21
-14.6044  7.309e+21
-14.4871  7.25796e+21
-14.3698  7.21023e+21
-14.2525  7.17065e+21
-14.1352  7.1434e+21
-14.0178  7.13241e+21
-13.9005  7.13997e+21
-13.7832  7.16737e+21
-13.6659  7.21434e+21
-13.5486  7.27894e+21
-13.4313  7.35842e+21
-13.314  7.44838e+21
-13.1967  7.54414e+21
-13.0794  7.64029e+21
-12.9621  7.7309e+21
-12.8448  7.81146e+21
-12.7275  7.87765e+21
-12.6102  7.92723e+21
-12.4929  7.95846e+21
-12.3756  7.97212e+21
-12.2583  7.97025e+21
-12.141  7.95656e+21
-12.0237  7.935e+21
-11.9064  7.91044e+21
-11.7891  7.88744e+21
-11.6718  7.87058e+21
-11.5544  7.8636e+21
-11.4371  7.86873e+21
-11.3198  7.88684e+21
-11.2025  7.91798e+21
-11.0852  7.96054e+21
-10.9679  8.01135e+21
-10.8506  8.06705e+21
-10.7333  8.12302e+21
-10.616  8.17471e+21
-10.4987  8.2182e+21
-10.3814  8.24973e+21
-10.2641  8.26719e+21
-10.1468  8.26949e+21
-10.0295  8.25712e+21
-9.91217  8.2321e+21
-9.79487  8.19751e+21
-9.67756  8.15781e+21
-9.56026  8.11711e+21
-9.44295  8.08e+21
-9.32565  8.05113e+21
-9.20834  8.03374e+21
-9.09104  8.03074e+21
-8.97373  8.04317e+21
-8.85643  8.07109e+21
-8.73913  8.11361e+21
-8.62182  8.1682e+21
-8.50452  8.23197e+21
-8.38721  8.30096e+21
-8.26991  8.37113e+21
-8.1526  8.4386e+21
-8.03529  8.49972e+21
-7.91799  8.55189e+21
-7.80069  8.59304e+21
-7.68338  8.62254e+21
-7.56608  8.64059e+21
-7.44877  8.64909e+21
-7.33146  8.64977e+21
-7.21416  8.64572e+21
-7.09685  8.63967e+21
-6.97955  8.63467e+21
-6.86224  8.63406e+21
-6.74494  8.63898e+21
-6.62763  8.65086e+21
-6.51033  8.67016e+21
-6.39302  8.6959e+21
-6.27572  8.72624e+21
-6.15842  8.7591e+21
-6.04111  8.79143e+21
-5.92381  8.82017e+21
-5.8065  8.84297e+21
-5.68919  8.8576e+21
-5.57189  8.86299e+21
-5.45458  8.85888e+21
-5.33728  8.84589e+21
-5.21997  8.82596e+21
-5.10267  8.80129e+21
-4.98536  8.77479e+21
-4.86806  8.74908e+21
-4.75075  8.72687e+21
-4.63345  8.71074e+21
-4.51614  8.70208e+21
-4.39884  8.70228e+21
-4.28154  8.71099e+21
-4.16423  8.72833e+21
-4.04692  8.75288e+21
-3.92962  8.78327e+21
-3.81231  8.81746e+21
-3.69501  8.85335e+21
-3.5777  8.88899e+21
-3.4604  8.92228e+21
-3.34309  8.95187e+21
-3.22579  8.97672e+21
-3.10849  8.99669e+21
-2.99118  9.01217e+21
-2.87387  9.02351e+21
-2.75657  9.03256e+21
-2.63926  9.04038e+21
-2.52196  9.04862e+21
-2.40465  9.05845e+21
-2.28735  9.07059e+21
-2.17005  9.08567e+21
-2.05274  9.10234e+21
-1.93544  9.12011e+21
-1.81813  9.13728e+21
-1.70083  9.15142e+21
-1.58352  9.16051e+21
-1.46622  9.16287e+21
-1.34891  9.15677e+21
-1.2316  9.14142e+21
-1.1143  9.11684e+21
-0.996995  9.084e+21
-0.87969  9.04467e+21
-0.762385  9.00116e+21
-0.64508  8.9563e+21
-0.527775  8.91326e+21
-0.41047  8.87468e+21
-0.293165  8.84342e+21
-0.17586  8.82138e+21
-0.058555  8.8101e+21
0.05875  8.81054e+21
0.176055  8.82248e+21
0.29336  8.84533e+21
0.410665  8.8772e+21
0.52797  8.9165e+21
0.645275  8.96018e+21
0.76258  9.0055e+21
0.879885  9.04944e+21
0.99719  9.08904e+21
1.1145  9.12228e+21
1.2318  9.14696e+21
1.3491  9.16228e+21
1.46641  9.16836e+21
1.58371  9.16606e+21
1.70102  9.15695e+21
1.81832  9.14266e+21
1.93563  9.12565e+21
2.05294  9.10763e+21
2.17024  9.09063e+21
2.28754  9.07577e+21
2.40485  9.06343e+21
2.52216  9.05388e+21
2.63946  9.04541e+21
2.75677  9.03763e+21
2.87407  9.02888e+21
2.99137  9.01755e+21
3.10868  9.00244e+21
3.22599  8.98282e+21
3.34329  8.95841e+21
3.4606  8.92951e+21
3.5779  8.89674e+21
3.69521  8.86194e+21
3.81251  8.82679e+21
3.92982  8.79344e+21
4.04712  8.76393e+21
4.16443  8.74024e+21
4.28173  8.72373e+21
4.39903  8.71556e+21
4.51634  8.71613e+21
4.63364  8.72517e+21
4.75095  8.74189e+21
4.86825  8.76416e+21
4.98556  8.7902e+21
5.10286  8.81669e+21
5.22017  8.84148e+21
5.33748  8.8614e+21
5.45478  8.87414e+21
5.57209  8.87821e+21
5.68939  8.87274e+21
5.8067  8.8582e+21
5.924  8.8355e+21
6.0413  8.80671e+21
6.15861  8.77465e+21
6.27591  8.74221e+21
6.39322  8.71249e+21
6.51052  8.6874e+21
6.62783  8.6686e+21
6.74514  8.65694e+21
6.86244  8.65232e+21
6.97975  8.65368e+21
7.09705  8.65875e+21
7.21436  8.66511e+21
7.33166  8.66909e+21
7.44897  8.66855e+21
7.56627  8.6601e+21
7.68358  8.64162e+21
7.80088  8.61216e+21
7.91819  8.5708e+21
8.03549  8.51875e+21
8.1528  8.45782e+21
8.2701  8.39035e+21
8.38741  8.32053e+21
8.50471  8.25191e+21
8.62202  8.18873e+21
8.73932  8.13465e+21
8.85662  8.0928e+21
8.97393  8.06547e+21
9.09123  8.05368e+21
9.20854  8.05723e+21
9.32584  8.07502e+21
9.44315  8.1043e+21
9.56045  8.14151e+21
9.67776  8.18232e+21
9.79506  8.22192e+21
9.91237  8.25638e+21
10.0297  8.28114e+21
10.147  8.29322e+21
10.2643  8.29062e+21
10.3816  8.27288e+21
10.4989  8.24139e+21
10.6162  8.19802e+21
10.7335  8.14641e+21
10.8508  8.09077e+21
10.9681  8.03579e+21
11.0854  7.98576e+21
11.2027  7.94433e+21
11.32  7.91405e+21
11.4373  7.8967e+21
11.5546  7.89253e+21
11.6719  7.90052e+21
11.7893  7.91804e+21
11.9066  7.94139e+21
12.0239  7.96615e+21
12.1412  7.98797e+21
12.2585  8.00155e+21
12.3758  8.00287e+21
12.4931  7.98882e+21
12.6104  7.95685e+21
12.7277  7.90688e+21
12.845  7.84024e+21
12.9623  7.75907e+21
13.0796  7.6681e+21
13.1969  7.57194e+21
13.3142  7.47636e+21
13.4315  7.38653e+21
13.5488  7.30753e+21
13.6661  7.2436e+21
13.7834  7.19746e+21
13.9007  7.17082e+21
14.018  7.16431e+21
14.1354  7.17619e+21
14.2527  7.20414e+21
14.37  7.24456e+21
14.4873  7.29283e+21
14.6046  7.34422e+21
14.7219  7.39339e+21
14.8392  7.43566e+21
14.9565  7.4664e+21
15.0738  7.48264e+21
15.1911  7.48253e+21
15.3084  7.46518e+21
15.4257  7.43171e+21
15.543  7.38388e+21
15.6603  7.32492e+21
15.7776  7.25844e+21
15.8949  7.18819e+21
16.0122  7.11732e+21
16.1295  7.04935e+21
16.2468  6.98663e+21
16.3641  6.93063e+21
16.4815  6.88196e+21
16.5988  6.83988e+21
16.7161  6.80385e+21
16.8334  6.77222e+21
16.9507  6.74256e+21
17.068  6.71318e+21
17.1853  6.6819e+21
17.3026  6.64676e+21
17.4199  6.60693e+21
17.5372  6.56212e+21
17.6545  6.51212e+21
17.7718  6.45838e+21
17.8891  6.4024e+21
18.0064  6.3465e+21
18.1237  6.29294e+21
18.241  6.24418e+21
18.3583  6.2025e+21
18.4756  6.16926e+21
18.5929  6.14598e+21
18.7102  6.13295e+21
18.8275  6.12936e+21
18.9449  6.13455e+21
19.0622  6.1463e+21
19.1795  6.16266e+21
19.2968  6.18083e+21
19.4141  6.19806e+21
19.5314  6.21184e+21
19.6487  6.21921e+21
19.766  6.21824e+21
19.8833  6.20762e+21
20.0006  6.1865e+21
20.1179  6.15525e+21
20.2352  6.11434e+21
20.3525  6.06565e+21
20.4698  6.01112e+21
20.5871  5.95336e+21
20.7044  5.89434e+21
20.8217  5.83691e+21
20.939  5.78306e+21
21.0563  5.73437e+21
21.1736  5.6921e+21
21.291  5.65653e+21
21.4083  5.62838e+21
21.5256  5.60722e+21
21.6429  5.59203e+21
21.7602  5.58214e+21
21.8775  5.57605e+21
21.9948  5.57194e+21
22.1121  5.56849e+21
22.2294  5.56417e+21
22.3467  5.55704e+21
22.464  5.54635e+21
22.5813  5.53102e+21
22.6986  5.51078e+21
22.8159  5.4856e+21
22.9332  5.45577e+21
23.0505  5.422e+21
23.1678  5.38465e+21
23.2851  5.34479e+21
23.4024  5.30288e+21
23.5198  5.25907e+21
23.6371  5.2142e+21
23.7544  5.16831e+21
23.8717  5.12204e+21
23.989  5.07534e+21
24.1063  5.02884e+21
24.2236  4.98297e+21
24.3409  4.93785e+21
24.4582  4.89375e+21
24.5755  4.85116e+21
24.6928  4.81027e+21
24.8101  4.77156e+21
24.9274  4.73512e+21
25.0447  4.70143e+21
25.162  4.67069e+21
25.2793  4.64352e+21
25.3966  4.61986e+21
25.5139  4.60014e+21
25.6312  4.58396e+21
25.7485  4.57112e+21
25.8658  4.56098e+21
25.9832  4.5524e+21
26.1005  4.54487e+21
26.2178  4.53692e+21
26.3351  4.5274e+21
26.4524  4.51495e+21
26.5697  4.49853e+21
26.687  4.47682e+21
26.8043  4.44904e+21
26.9216  4.41455e+21
27.0389  4.37312e+21
27.1562  4.32508e+21
27.2735  4.27114e+21
27.3908  4.21257e+21
27.5081  4.15119e+21
27.6254  4.08887e+21
27.7427  4.02781e+21
27.86  3.96991e+21
27.9773  3.91719e+21
28.0946  3.87098e+21
28.212  3.83208e+21
28.3293  3.80149e+21
28.4466  3.77913e+21
28.5639  3.76517e+21
28.6812  3.75873e+21
28.7985  3.75901e+21
28.9158  3.76469e+21
29.0331  3.77416e+21
29.1504  3.78529e+21
29.2677  3.79601e+21
29.385  3.80424e+21
29.5023  3.80813e+21
29.6196  3.80592e+21
29.7369  3.79663e+21
29.8542  3.7796e+21
29.9715  3.75526e+21
30.0888  3.72418e+21
30.2061  3.6876e+21
30.3234  3.64676e+21
30.4407  3.60317e+21
30.558  3.55853e+21
30.6754  3.51392e+21
30.7927  3.47095e+21
30.91  3.43013e+21
31.0273  3.39226e+21
31.1446  3.35732e+21
31.2619  3.32529e+21
31.3792  3.29553e+21
31.4965  3.26725e+21
31.6138  3.23941e+21
31.7311  3.2111e+21
31.8484  3.18139e+21
31.9657  3.14988e+21
32.083  3.11623e+21
32.2003  3.08092e+21
32.3176  3.04463e+21
32.4349  3.00829e+21
32.5522  2.97292e+21
32.6695  2.93981e+21
32.7868  2.90983e+21
32.9042  2.88364e+21
33.0215  2.86192e+21
33.1388  2.84472e+21
33.2561  2.83188e+21
33.3734  2.82257e+21
33.4907  2.81597e+21
33.608  2.81049e+21
33.7253  2.80468e+21
33.8426  2.79647e+21
33.9599  2.78415e+21
34.0772  2.76623e+21
34.1945  2.74162e+21
34.3118  2.70997e+21
34.4291  2.67139e+21
34.5464  2.62715e+21
34.6637  2.57892e+21
34.781  2.52877e+21
34.8983  2.47919e+21
35.0156  2.43234e+21
35.1329  2.39011e+21
35.2503  2.35459e+21
35.3676  2.32679e+21
35.4849  2.30786e+21
35.6022  2.29768e+21
35.7195  2.29633e+21
35.8368  2.30277e+21
35.9541  2.31553e+21
36.0714  2.33259e+21
36.1887  2.35124e+21
36.306  2.36841e+21
36.4233  2.38133e+21
36.5406  2.38701e+21
36.6579  2.38351e+21
36.7752  2.36942e+21
36.8925  2.34476e+21
37.0098  2.31022e+21
37.1271  2.26756e+21
37.2444  2.21927e+21
37.3617  2.16804e+21
37.479  2.11665e+21
37.5964  2.06755e+21
37.7137  2.02299e+21
37.831  1.98461e+21
37.9483  1.95361e+21
38.0656  1.93039e+21
38.1829  1.91524e+21
38.3002  1.9076e+21
38.4175  1.90685e+21
38.5348  1.91144e+21
38.6521  1.91958e+21
38.7694  1.92935e+21
38.8867  1.9384e+21
39.004  1.94456e+21
39.1213  1.94589e+21
39.2386  1.9412e+21
39.3559  1.92978e+21
39.4732  1.91167e+21
39.5905  1.88769e+21
39.7078  1.8591e+21
39.8251  1.82739e+21
39.9425  1.79456e+21
40.0598  1.7621e+21
40.1771  1.73151e+21
40.2944  1.70355e+21
40.4117  1.67894e+21
40.529  1.65757e+21
40.6463  1.63893e+21
40.7636  1.62247e+21
40.8809  1.60695e+21
40.9982  1.59111e+21
41.1155  1.57382e+21
41.2328  1.55376e+21
41.3501  1.53027e+21
41.4674  1.50282e+21
41.5847  1.47144e+21
41.702  1.43681e+21
41.8193  1.39973e+21
41.9366  1.36175e+21
42.0539  1.32437e+21
42.1712  1.2892e+21
42.2885  1.25781e+21
42.4059  1.2315e+21
42.5232  1.21133e+21
42.6405  1.198e+21
42.7578  1.19165e+21
42.8751  1.19223e+21
42.9924  1.19906e+21
43.1097  1.21128e+21
43.227  1.22751e+21
43.3443  1.24589e+21
43.4616  1.26474e+21
43.5789  1.28201e+21
43.6962  1.29584e+21
43.8135  1.3045e+21
43.9308  1.30694e+21
44.0481  1.30258e+21
44.1654  1.29142e+21
44.2827  1.27402e+21
44.4  1.25133e+21
44.5173  1.22471e+21
44.6347  1.19544e+21
44.752  1.16513e+21
44.8693  1.13492e+21
44.9866  1.10581e+21
45.1039  1.07883e+21
45.2212  1.05443e+21
45.3385  1.03308e+21
45.4558  1.01509e+21
45.5731  1.00043e+21
45.6904  9.88801e+20
45.8077  9.79961e+20
45.925  9.73075e+20
46.0423  9.67545e+20
46.1596  9.62513e+20
46.2769  9.57408e+20
46.3942  9.51804e+20
46.5115  9.45483e+20
46.6288  9.38676e+20
46.7461  9.31829e+20
46.8634  9.25447e+20
46.9808  9.20321e+20
47.0981  9.16798e+20
47.2154  9.15257e+20
47.3327  9.15571e+20
47.45  9.17358e+20
47.5673  9.20004e+20
47.6846  9.22564e+20
47.8019  9.24288e+20
47.9192  9.24179e+20
48.0365  9.21467e+20
48.1538  9.15584e+20
48.2711  9.06065e+20
48.3884  8.92846e+20
48.5057  8.75837e+20
48.623  8.55377e+20
48.7403  8.31935e+20
48.8576  8.06188e+20
48.9749  7.78932e+20
49.0922  7.51061e+20
49.2095  7.2343e+20
49.3269  6.96848e+20
49.4442  6.72225e+20
49.5615  6.50137e+20
49.6788  6.31011e+20
49.7961  6.15339e+20
49.9134  6.03219e+20
50.0307  5.94793e+20
50.148  5.89935e+20
50.2653  5.88419e+20
50.3826  5.89743e+20
50.4999  5.93464e+20
50.6172  5.98843e+20
50.7345  6.05288e+20
