#S 1 spectral density
#N 2
#UFWHM 15.7189
#L  abscissas [um]  spectral density
-58.5938  8.95616e+19
-58.4764  8.27689e+19
-58.3591  7.67063e+19
-58.2418  7.17128e+19
-58.1245  6.81287e+19
-58.0072  6.62084e+19
-57.8899  6.6359e+19
-57.7726  6.87858e+19
-57.6553  7.35442e+19
-57.538  8.04277e+19
-57.4207  8.89735e+19
-57.3034  9.84544e+19
-57.1861  1.08036e+20
-57.0688  1.16879e+20
-56.9515  1.24298e+20
-56.8342  1.29831e+20
-56.7169  1.333e+20
-56.5996  1.34842e+20
-56.4823  1.34696e+20
-56.365  1.33227e+20
-56.2477  1.30816e+20
-56.1303  1.27812e+20
-56.013  1.24432e+20
-55.8957  1.20922e+20
-55.7784  1.1752e+20
-55.6611  1.14502e+20
-55.5438  1.12143e+20
-55.4265  1.1074e+20
-55.3092  1.10466e+20
-55.1919  1.11411e+20
-55.0746  1.13439e+20
-54.9573  1.16271e+20
-54.84  1.19459e+20
-54.7227  1.22607e+20
-54.6054  1.2531e+20
-54.4881  1.27308e+20
-54.3708  1.28535e+20
-54.2535  1.29047e+20
-54.1362  1.28988e+20
-54.0189  1.28487e+20
-53.9016  1.27724e+20
-53.7842  1.26749e+20
-53.6669  1.25593e+20
-53.5496  1.24223e+20
-53.4323  1.22756e+20
-53.315  1.21255e+20
-53.1977  1.20026e+20
-53.0804  1.1928e+20
-52.9631  1.1925e+20
-52.8458  1.20078e+20
-52.7285  1.21673e+20
-52.6112  1.2381e+20
-52.4939  1.2613e+20
-52.3766  1.282e+20
-52.2593  1.29588e+20
-52.142  1.30041e+20
-52.0247  1.29537e+20
-51.9074  1.28164e+20
-51.7901  1.26258e+20
-51.6728  1.24165e+20
-51.5555  1.22216e+20
-51.4381  1.20799e+20
-51.3208  1.20027e+20
-51.2035  1.20076e+20
-51.0862  1.20906e+20
-50.9689  1.22669e+20
-50.8516  1.25422e+20
-50.7343  1.2921e+20
-50.617  1.34149e+20
-50.4997  1.40301e+20
-50.3824  1.47531e+20
-50.2651  1.55692e+20
-50.1478  1.64233e+20
-50.0305  1.72757e+20
-49.9132  1.805e+20
-49.7959  1.86959e+20
-49.6786  1.91692e+20
-49.5613  1.94258e+20
-49.444  1.94577e+20
-49.3267  1.92787e+20
-49.2094  1.89155e+20
-49.092  1.84128e+20
-48.9747  1.78322e+20
-48.8574  1.72337e+20
-48.7401  1.66817e+20
-48.6228  1.62266e+20
-48.5055  1.59134e+20
-48.3882  1.57538e+20
-48.2709  1.57562e+20
-48.1536  1.58998e+20
-48.0363  1.61337e+20
-47.919  1.64066e+20
-47.8017  1.66596e+20
-47.6844  1.68346e+20
-47.5671  1.68751e+20
-47.4498  1.67498e+20
-47.3325  1.64538e+20
-47.2152  1.59819e+20
-47.0979  1.53656e+20
-46.9806  1.46311e+20
-46.8633  1.38216e+20
-46.7459  1.29935e+20
-46.6286  1.2197e+20
-46.5113  1.14999e+20
-46.394  1.09575e+20
-46.2767  1.0646e+20
-46.1594  1.06202e+20
-46.0421  1.09167e+20
-45.9248  1.15495e+20
-45.8075  1.25038e+20
-45.6902  1.37172e+20
-45.5729  1.51101e+20
-45.4556  1.65548e+20
-45.3383  1.79461e+20
-45.221  1.91498e+20
-45.1037  2.00858e+20
-44.9864  2.06997e+20
-44.8691  2.09618e+20
-44.7518  2.08958e+20
-44.6345  2.05562e+20
-44.5172  2.00028e+20
-44.3998  1.9317e+20
-44.2825  1.85762e+20
-44.1652  1.78569e+20
-44.0479  1.72243e+20
-43.9306  1.67338e+20
-43.8133  1.64287e+20
-43.696  1.63306e+20
-43.5787  1.64603e+20
-43.4614  1.68066e+20
-43.3441  1.73312e+20
-43.2268  1.79796e+20
-43.1095  1.86829e+20
-42.9922  1.93531e+20
-42.8749  1.99065e+20
-42.7576  2.02733e+20
-42.6403  2.04151e+20
-42.523  2.0315e+20
-42.4057  2.00019e+20
-42.2884  1.9521e+20
-42.171  1.89475e+20
-42.0537  1.83551e+20
-41.9364  1.78271e+20
-41.8191  1.74187e+20
-41.7018  1.71771e+20
-41.5845  1.71225e+20
-41.4672  1.7254e+20
-41.3499  1.75538e+20
-41.2326  1.79826e+20
-41.1153  1.84977e+20
-40.998  1.90416e+20
-40.8807  1.956e+20
-40.7634  1.99948e+20
-40.6461  2.03076e+20
-40.5288  2.04611e+20
-40.4115  2.04473e+20
-40.2942  2.0284e+20
-40.1769  1.99946e+20
-40.0596  1.96311e+20
-39.9423  1.92528e+20
-39.825  1.89142e+20
-39.7076  1.8675e+20
-39.5903  1.8566e+20
-39.473  1.8623e+20
-39.3557  1.88731e+20
-39.2384  1.93212e+20
-39.1211  1.9971e+20
-39.0038  2.08212e+20
-38.8865  2.18646e+20
-38.7692  2.30611e+20
-38.6519  2.43643e+20
-38.5346  2.56985e+20
-38.4173  2.69849e+20
-38.3  2.81102e+20
-38.1827  2.8986e+20
-38.0654  2.95356e+20
-37.9481  2.97145e+20
-37.8308  2.95295e+20
-37.7135  2.90245e+20
-37.5962  2.82813e+20
-37.4789  2.74076e+20
-37.3615  2.65097e+20
-37.2442  2.57008e+20
-37.1269  2.50392e+20
-37.0096  2.45933e+20
-36.8923  2.43821e+20
-36.775  2.442e+20
-36.6577  2.47168e+20
-36.5404  2.52659e+20
-36.4231  2.60701e+20
-36.3058  2.71124e+20
-36.1885  2.83625e+20
-36.0712  2.97611e+20
-35.9539  3.12244e+20
-35.8366  3.26368e+20
-35.7193  3.38653e+20
-35.602  3.48078e+20
-35.4847  3.53486e+20
-35.3674  3.54377e+20
-35.2501  3.50697e+20
-35.1328  3.42953e+20
-35.0154  3.32116e+20
-34.8981  3.19195e+20
-34.7808  3.05577e+20
-34.6635  2.92663e+20
-34.5462  2.81449e+20
-34.4289  2.72719e+20
-34.3116  2.67245e+20
-34.1943  2.65418e+20
-34.077  2.67266e+20
-33.9597  2.72805e+20
-33.8424  2.81675e+20
-33.7251  2.93466e+20
-33.6078  3.07225e+20
-33.4905  3.22055e+20
-33.3732  3.36831e+20
-33.2559  3.50374e+20
-33.1386  3.61786e+20
-33.0213  3.70256e+20
-32.904  3.75381e+20
-32.7867  3.77154e+20
-32.6693  3.7591e+20
-32.552  3.72387e+20
-32.4347  3.67172e+20
-32.3174  3.61231e+20
-32.2001  3.55287e+20
-32.0828  3.50038e+20
-31.9655  3.46164e+20
-31.8482  3.43904e+20
-31.7309  3.436e+20
-31.6136  3.45323e+20
-31.4963  3.48942e+20
-31.379  3.54141e+20
-31.2617  3.60463e+20
-31.1444  3.67297e+20
-31.0271  3.73946e+20
-30.9098  3.79912e+20
-30.7925  3.84587e+20
-30.6752  3.87716e+20
-30.5579  3.89247e+20
-30.4406  3.89471e+20
-30.3232  3.88832e+20
-30.2059  3.87781e+20
-30.0886  3.86981e+20
-29.9713  3.87136e+20
-29.854  3.88703e+20
-29.7367  3.92047e+20
-29.6194  3.97615e+20
-29.5021  4.05619e+20
-29.3848  4.16029e+20
-29.2675  4.28759e+20
-29.1502  4.4344e+20
-29.0329  4.59574e+20
-28.9156  4.76268e+20
-28.7983  4.92631e+20
-28.681  5.07653e+20
-28.5637  5.2041e+20
-28.4464  5.30198e+20
-28.3291  5.36662e+20
-28.2118  5.39863e+20
-28.0944  5.40126e+20
-27.9771  5.38294e+20
-27.8598  5.35344e+20
-27.7425  5.32143e+20
-27.6252  5.2982e+20
-27.5079  5.29026e+20
-27.3906  5.30435e+20
-27.2733  5.34519e+20
-27.156  5.41336e+20
-27.0387  5.51101e+20
-26.9214  5.63663e+20
-26.8041  5.78787e+20
-26.6868  5.9606e+20
-26.5695  6.14977e+20
-26.4522  6.34849e+20
-26.3349  6.54832e+20
-26.2176  6.74009e+20
-26.1003  6.91542e+20
-25.983  7.0666e+20
-25.8657  7.18737e+20
-25.7483  7.2749e+20
-25.631  7.32617e+20
-25.5137  7.34203e+20
-25.3964  7.32525e+20
-25.2791  7.28082e+20
-25.1618  7.21332e+20
-25.0445  7.13062e+20
-24.9272  7.04038e+20
-24.8099  6.95238e+20
-24.6926  6.87527e+20
-24.5753  6.81515e+20
-24.458  6.78125e+20
-24.3407  6.77691e+20
-24.2234  6.80451e+20
-24.1061  6.86357e+20
-23.9888  6.95114e+20
-23.8715  7.06297e+20
-23.7542  7.1922e+20
-23.6369  7.33373e+20
-23.5196  7.48355e+20
-23.4023  7.6336e+20
-23.2849  7.78293e+20
-23.1676  7.92813e+20
-23.0503  8.06502e+20
-22.933  8.19576e+20
-22.8157  8.31598e+20
-22.6984  8.42784e+20
-22.5811  8.53247e+20
-22.4638  8.62925e+20
-22.3465  8.72473e+20
-22.2292  8.81885e+20
-22.1119  8.91551e+20
-21.9946  9.01452e+20
-21.8773  9.11702e+20
-21.76  9.22058e+20
-21.6427  9.31962e+20
-21.5254  9.40779e+20
-21.4081  9.47939e+20
-21.2908  9.52962e+20
-21.1735  9.55531e+20
-21.0561  9.55652e+20
-20.9388  9.5339e+20
-20.8215  9.49159e+20
-20.7042  9.43874e+20
-20.5869  9.38236e+20
-20.4696  9.33071e+20
-20.3523  9.29291e+20
-20.235  9.27651e+20
-20.1177  9.28953e+20
-20.0004  9.33763e+20
-19.8831  9.4199e+20
-19.7658  9.54253e+20
-19.6485  9.70083e+20
-19.5312  9.89129e+20
-19.4139  1.01063e+21
-19.2966  1.03366e+21
-19.1793  1.05717e+21
-19.062  1.07989e+21
-18.9447  1.1009e+21
-18.8274  1.11952e+21
-18.71  1.13486e+21
-18.5927  1.14717e+21
-18.4754  1.15664e+21
-18.3581  1.16373e+21
-18.2408  1.1698e+21
-18.1235  1.17562e+21
-18.0062  1.18272e+21
-17.8889  1.19225e+21
-17.7716  1.20505e+21
-17.6543  1.22245e+21
-17.537  1.24468e+21
-17.4197  1.27217e+21
-17.3024  1.30484e+21
-17.1851  1.34247e+21
-17.0678  1.38443e+21
-16.9505  1.42986e+21
-16.8332  1.47783e+21
-16.7159  1.52733e+21
-16.5986  1.57761e+21
-16.4813  1.62811e+21
-16.364  1.6785e+21
-16.2466  1.72871e+21
-16.1293  1.77886e+21
-16.012  1.82968e+21
-15.8947  1.88154e+21
-15.7774  1.93508e+21
-15.6601  1.99074e+21
-15.5428  2.04888e+21
-15.4255  2.10963e+21
-15.3082  2.17315e+21
-15.1909  2.23912e+21
-15.0736  2.30773e+21
-14.9563  2.37866e+21
-14.839  2.45213e+21
-14.7217  2.52811e+21
-14.6044  2.60679e+21
-14.4871  2.68871e+21
-14.3698  2.7741e+21
-14.2525  2.86359e+21
-14.1352  2.95786e+21
-14.0178  3.05773e+21
-13.9005  3.16415e+21
-13.7832  3.27803e+21
-13.6659  3.40016e+21
-13.5486  3.53162e+21
-13.4313  3.67234e+21
-13.314  3.82254e+21
-13.1967  3.98151e+21
-13.0794  4.14811e+21
-12.9621  4.32071e+21
-12.8448  4.49736e+21
-12.7275  4.67569e+21
-12.6102  4.85382e+21
-12.4929  5.03015e+21
-12.3756  5.20305e+21
-12.2583  5.37212e+21
-12.141  5.53735e+21
-12.0237  5.69908e+21
-11.9064  5.85848e+21
-11.7891  6.0173e+21
-11.6718  6.17722e+21
-11.5544  6.3404e+21
-11.4371  6.5093e+21
-11.3198  6.68554e+21
-11.2025  6.8709e+21
-11.0852  7.06683e+21
-10.9679  7.27392e+21
-10.8506  7.49229e+21
-10.7333  7.72112e+21
-10.616  7.95941e+21
-10.4987  8.20576e+21
-10.3814  8.45802e+21
-10.2641  8.71431e+21
-10.1468  8.97326e+21
-10.0295  9.23362e+21
-9.91217  9.4942e+21
-9.79487  9.7557e+21
-9.67756  1.0018e+22
-9.56026  1.02823e+22
-9.44295  1.05497e+22
-9.32565  1.08223e+22
-9.20834  1.11015e+22
-9.09104  1.13891e+22
-8.97373  1.16865e+22
-8.85643  1.19953e+22
-8.73913  1.23154e+22
-8.62182  1.26471e+22
-8.50452  1.29896e+22
-8.38721  1.33417e+22
-8.26991  1.37011e+22
-8.1526  1.40654e+22
-8.03529  1.44311e+22
-7.91799  1.47954e+22
-7.80069  1.51555e+22
-7.68338  1.5508e+22
-7.56608  1.58514e+22
-7.44877  1.61844e+22
-7.33146  1.6506e+22
-7.21416  1.68165e+22
-7.09685  1.71172e+22
-6.97955  1.74092e+22
-6.86224  1.76952e+22
-6.74494  1.79784e+22
-6.62763  1.82604e+22
-6.51033  1.85439e+22
-6.39302  1.88312e+22
-6.27572  1.91232e+22
-6.15842  1.9421e+22
-6.04111  1.97238e+22
-5.92381  2.0031e+22
-5.8065  2.03415e+22
-5.68919  2.06531e+22
-5.57189  2.09638e+22
-5.45458  2.12718e+22
-5.33728  2.15757e+22
-5.21997  2.18734e+22
-5.10267  2.21648e+22
-4.98536  2.24489e+22
-4.86806  2.27258e+22
-4.75075  2.29959e+22
-4.63345  2.32605e+22
-4.51614  2.35205e+22
-4.39884  2.37774e+22
-4.28154  2.40332e+22
-4.16423  2.42895e+22
-4.04692  2.45472e+22
-3.92962  2.4808e+22
-3.81231  2.50724e+22
-3.69501  2.534e+22
-3.5777  2.56103e+22
-3.4604  2.58815e+22
-3.34309  2.61513e+22
-3.22579  2.6417e+22
-3.10849  2.6676e+22
-2.99118  2.69247e+22
-2.87387  2.71608e+22
-2.75657  2.73822e+22
-2.63926  2.75869e+22
-2.52196  2.77741e+22
-2.40465  2.79442e+22
-2.28735  2.80971e+22
-2.17005  2.82346e+22
-2.05274  2.83591e+22
-1.93544  2.84722e+22
-1.81813  2.85767e+22
-1.70083  2.86752e+22
-1.58352  2.87697e+22
-1.46622  2.88626e+22
-1.34891  2.89547e+22
-1.2316  2.90474e+22
-1.1143  2.91407e+22
-0.996995  2.92343e+22
-0.87969  2.93271e+22
-0.762385  2.94167e+22
-0.64508  2.95016e+22
-0.527775  2.95786e+22
-0.41047  2.96449e+22
-0.293165  2.9698e+22
-0.17586  2.97354e+22
-0.058555  2.97554e+22
0.05875  2.9757e+22
0.176055  2.97405e+22
0.29336  2.97063e+22
0.410665  2.96569e+22
0.52797  2.95938e+22
0.645275  2.95203e+22
0.76258  2.94391e+22
0.879885  2.93529e+22
0.99719  2.92637e+22
1.1145  2.91738e+22
1.2318  2.90838e+22
1.3491  2.89945e+22
1.46641  2.89055e+22
1.58371  2.88159e+22
1.70102  2.87242e+22
1.81832  2.86286e+22
1.93563  2.85266e+22
2.05294  2.84159e+22
2.17024  2.82941e+22
2.28754  2.81588e+22
2.40485  2.8008e+22
2.52216  2.78404e+22
2.63946  2.76552e+22
2.75677  2.74528e+22
2.87407  2.72339e+22
2.99137  2.70001e+22
3.10868  2.67537e+22
3.22599  2.64976e+22
3.34329  2.62346e+22
3.4606  2.59677e+22
3.5779  2.56993e+22
3.69521  2.54321e+22
3.81251  2.51674e+22
3.92982  2.49059e+22
4.04712  2.46476e+22
4.16443  2.43926e+22
4.28173  2.41388e+22
4.39903  2.38852e+22
4.51634  2.36304e+22
4.63364  2.33723e+22
4.75095  2.31093e+22
4.86825  2.28405e+22
4.98556  2.25648e+22
5.10286  2.2282e+22
5.22017  2.19913e+22
5.33748  2.16945e+22
5.45478  2.13917e+22
5.57209  2.10845e+22
5.68939  2.07744e+22
5.8067  2.04637e+22
5.924  2.01539e+22
6.0413  1.98474e+22
6.15861  1.95452e+22
6.27591  1.9248e+22
6.39322  1.89566e+22
6.51052  1.86698e+22
6.62783  1.83862e+22
6.74514  1.81042e+22
6.86244  1.78214e+22
6.97975  1.75347e+22
7.09705  1.72421e+22
7.21436  1.69411e+22
7.33166  1.66296e+22
7.44897  1.63073e+22
7.56627  1.59738e+22
7.68358  1.56295e+22
7.80088  1.52758e+22
7.91819  1.4915e+22
8.03549  1.45499e+22
8.1528  1.41836e+22
8.2701  1.38186e+22
8.38741  1.34585e+22
8.50471  1.31058e+22
8.62202  1.27625e+22
8.73932  1.24298e+22
8.85662  1.2109e+22
8.97393  1.17993e+22
9.09123  1.15006e+22
9.20854  1.12119e+22
9.32584  1.09314e+22
9.44315  1.06572e+22
9.56045  1.03879e+22
9.67776  1.0122e+22
9.79506  9.85789e+21
9.91237  9.59432e+21
10.0297  9.33176e+21
10.147  9.06977e+21
10.2643  8.80909e+21
10.3816  8.55103e+21
10.4989  8.2972e+21
10.6162  8.04937e+21
10.7335  7.80967e+21
10.8508  7.57953e+21
10.9681  7.3598e+21
11.0854  7.1516e+21
11.2027  6.95445e+21
11.32  6.76768e+21
11.4373  6.59002e+21
11.5546  6.41985e+21
11.6719  6.25487e+21
11.7893  6.09326e+21
11.9066  5.93279e+21
12.0239  5.77121e+21
12.1412  5.60754e+21
12.2585  5.44039e+21
12.3758  5.26924e+21
12.4931  5.09411e+21
12.6104  4.91573e+21
12.7277  4.7355e+21
12.845  4.55514e+21
12.9623  4.37659e+21
13.0796  4.20219e+21
13.1969  4.03377e+21
13.3142  3.87322e+21
13.4315  3.72132e+21
13.5488  3.57905e+21
13.6661  3.44615e+21
13.7834  3.32246e+21
13.9007  3.20723e+21
14.018  3.09938e+21
14.1354  2.99807e+21
14.2527  2.90241e+21
14.37  2.8116e+21
14.4873  2.72493e+21
14.6046  2.64159e+21
14.7219  2.56163e+21
14.8392  2.4844e+21
14.9565  2.40966e+21
15.0738  2.33753e+21
15.1911  2.26768e+21
15.3084  2.20041e+21
15.4257  2.13578e+21
15.543  2.07389e+21
15.6603  2.01453e+21
15.7776  1.95769e+21
15.8949  1.903e+21
16.0122  1.85002e+21
16.1295  1.79814e+21
16.2468  1.74681e+21
16.3641  1.69552e+21
16.4815  1.64405e+21
16.5988  1.59258e+21
16.7161  1.54126e+21
16.8334  1.49083e+21
16.9507  1.44206e+21
17.068  1.39591e+21
17.1853  1.35331e+21
17.3026  1.3151e+21
17.4199  1.28174e+21
17.5372  1.25361e+21
17.6545  1.23097e+21
17.7718  1.21318e+21
17.8891  1.19972e+21
18.0064  1.18987e+21
18.1237  1.18232e+21
18.241  1.17595e+21
18.3583  1.16947e+21
18.4756  1.16185e+21
18.5929  1.15203e+21
18.7102  1.13915e+21
18.8275  1.12338e+21
18.9449  1.10451e+21
19.0622  1.0831e+21
19.1795  1.06017e+21
19.2968  1.03636e+21
19.4141  1.01324e+21
19.5314  9.91585e+20
19.6487  9.72374e+20
19.766  9.5663e+20
19.8833  9.44277e+20
20.0006  9.35945e+20
20.1179  9.31267e+20
20.2352  9.30077e+20
20.3525  9.31667e+20
20.4698  9.35358e+20
20.5871  9.40461e+20
20.7044  9.4616e+20
20.8217  9.51485e+20
20.939  9.55633e+20
21.0563  9.5787e+20
21.1736  9.57675e+20
21.291  9.55035e+20
21.4083  9.49994e+20
21.5256  9.42716e+20
21.6429  9.33885e+20
21.7602  9.24039e+20
21.8775  9.138e+20
21.9948  9.03601e+20
22.1121  8.93616e+20
22.2294  8.83893e+20
22.3467  8.74639e+20
22.464  8.65146e+20
22.5813  8.5534e+20
22.6986  8.44994e+20
22.8159  8.33836e+20
22.9332  8.21747e+20
23.0505  8.08768e+20
23.1678  7.95029e+20
23.2851  7.8063e+20
23.4024  7.65617e+20
23.5198  7.5065e+20
23.6371  7.35834e+20
23.7544  7.21692e+20
23.8717  7.08922e+20
23.989  6.97835e+20
24.1063  6.89291e+20
24.2236  6.83524e+20
24.3409  6.80872e+20
24.4582  6.81593e+20
24.5755  6.85087e+20
24.6928  6.91232e+20
24.8101  6.99158e+20
24.9274  7.08158e+20
25.0447  7.17215e+20
25.162  7.25463e+20
25.2793  7.32195e+20
25.3966  7.36653e+20
25.5139  7.38276e+20
25.6312  7.36618e+20
25.7485  7.31366e+20
25.8658  7.22487e+20
25.9832  7.1019e+20
26.1005  6.94968e+20
26.2178  6.77272e+20
26.3351  6.57966e+20
26.4524  6.379e+20
26.5697  6.18025e+20
26.687  5.99079e+20
26.8043  5.81767e+20
26.9216  5.6664e+20
27.0389  5.54219e+20
27.1562  5.44516e+20
27.2735  5.37696e+20
27.3908  5.33749e+20
27.5081  5.32408e+20
27.6254  5.33194e+20
27.7427  5.35587e+20
27.86  5.38704e+20
27.9773  5.41622e+20
28.0946  5.43265e+20
28.212  5.42838e+20
28.3293  5.39472e+20
28.4466  5.32764e+20
28.5639  5.22792e+20
28.6812  5.09822e+20
28.7985  4.94664e+20
28.9158  4.78155e+20
29.0331  4.61299e+20
29.1504  4.4517e+20
29.2677  4.304e+20
29.385  4.17691e+20
29.5023  4.07282e+20
29.6196  3.99336e+20
29.7369  3.93771e+20
29.8542  3.90382e+20
29.9715  3.88867e+20
30.0888  3.88696e+20
30.2061  3.89392e+20
30.3234  3.90346e+20
30.4407  3.90958e+20
30.558  3.90611e+20
30.6754  3.88867e+20
30.7927  3.85619e+20
30.91  3.80841e+20
31.0273  3.74807e+20
31.1446  3.67981e+20
31.2619  3.61145e+20
31.3792  3.5478e+20
31.4965  3.49557e+20
31.6138  3.45989e+20
31.7311  3.44331e+20
31.8484  3.44654e+20
31.9657  3.46895e+20
32.083  3.50859e+20
32.2003  3.56104e+20
32.3176  3.6199e+20
32.4349  3.67954e+20
32.5522  3.73031e+20
32.6695  3.76468e+20
32.7868  3.77521e+20
32.9042  3.75613e+20
33.0215  3.7032e+20
33.1388  3.61706e+20
33.2561  3.50205e+20
33.3734  3.36567e+20
33.4907  3.21785e+20
33.608  3.0696e+20
33.7253  2.9319e+20
33.8426  2.81548e+20
33.9599  2.72757e+20
34.0772  2.6738e+20
34.1945  2.65663e+20
34.3118  2.6768e+20
34.4291  2.73302e+20
34.5464  2.82134e+20
34.6637  2.935e+20
34.781  3.06531e+20
34.8983  3.20089e+20
35.0156  3.32961e+20
35.1329  3.43843e+20
35.2503  3.51471e+20
35.3676  3.54979e+20
35.4849  3.53924e+20
35.6022  3.48371e+20
35.7195  3.3892e+20
35.8368  3.26455e+20
35.9541  3.12362e+20
36.0714  2.97738e+20
36.1887  2.83802e+20
36.306  2.71406e+20
36.4233  2.61087e+20
36.5406  2.53139e+20
36.6579  2.47734e+20
36.7752  2.44907e+20
36.8925  2.44629e+20
37.0098  2.46838e+20
37.1271  2.51454e+20
37.2444  2.58098e+20
37.3617  2.66265e+20
37.479  2.75214e+20
37.5964  2.8396e+20
37.7137  2.91303e+20
37.831  2.96269e+20
37.9483  2.97995e+20
38.0656  2.96089e+20
38.1829  2.90484e+20
38.3002  2.81624e+20
38.4175  2.7026e+20
38.5348  2.57399e+20
38.6521  2.44019e+20
38.7694  2.31027e+20
38.8867  2.1911e+20
39.004  2.08786e+20
39.1213  2.00331e+20
39.2386  1.93928e+20
39.3559  1.89515e+20
39.4732  1.87121e+20
39.5905  1.86565e+20
39.7078  1.87677e+20
39.8251  1.90147e+20
39.9425  1.93529e+20
40.0598  1.97303e+20
40.1771  2.00885e+20
40.2944  2.03683e+20
40.4117  2.05287e+20
40.529  2.05287e+20
40.6463  2.03664e+20
40.7636  2.00501e+20
40.8809  1.96099e+20
40.9982  1.90891e+20
41.1155  1.85463e+20
41.2328  1.80334e+20
41.3501  1.76079e+20
41.4674  1.73148e+20
41.5847  1.71912e+20
41.702  1.72528e+20
41.8193  1.75046e+20
41.9366  1.79167e+20
42.0539  1.84495e+20
42.1712  1.90408e+20
42.2885  1.96117e+20
42.4059  2.0085e+20
42.5232  2.0391e+20
42.6405  2.04805e+20
42.7578  2.03281e+20
42.8751  1.9949e+20
42.9924  1.9386e+20
43.1097  1.8711e+20
43.227  1.80038e+20
43.3443  1.7352e+20
43.4616  1.6829e+20
43.5789  1.64896e+20
43.6962  1.63648e+20
43.8135  1.64632e+20
43.9308  1.67762e+20
44.0481  1.72668e+20
44.1654  1.79058e+20
44.2827  1.86265e+20
44.4  1.93634e+20
44.5173  2.00434e+20
44.6347  2.05932e+20
44.752  2.09263e+20
44.8693  2.09825e+20
44.9866  2.07046e+20
45.1039  2.00871e+20
45.2212  1.91353e+20
45.3385  1.79191e+20
45.4558  1.65316e+20
45.5731  1.50824e+20
45.6904  1.36968e+20
45.8077  1.24882e+20
45.925  1.15438e+20
46.0423  1.09193e+20
46.1596  1.06333e+20
46.2769  1.06702e+20
46.3942  1.09864e+20
46.5115  1.15331e+20
46.6288  1.22338e+20
46.7461  1.30318e+20
46.8634  1.38632e+20
46.9808  1.46637e+20
47.0981  1.53965e+20
47.2154  1.60099e+20
47.3327  1.64796e+20
47.45  1.67697e+20
47.5673  1.6886e+20
47.6846  1.68424e+20
47.8019  1.66692e+20
47.9192  1.64128e+20
48.0365  1.61393e+20
48.1538  1.59062e+20
48.2711  1.57735e+20
48.3884  1.57749e+20
48.5057  1.5939e+20
48.623  1.6259e+20
48.7403  1.6713e+20
48.8576  1.72735e+20
48.9749  1.78723e+20
49.0922  1.845e+20
49.2095  1.89467e+20
49.3269  1.93082e+20
49.4442  1.94799e+20
49.5615  1.94416e+20
49.6788  1.9176e+20
49.7961  1.87038e+20
49.9134  1.80498e+20
50.0307  1.72701e+20
50.148  1.64213e+20
50.2653  1.55659e+20
50.3826  1.47589e+20
50.4999  1.40365e+20
50.6172  1.34265e+20
50.7345  1.29364e+20
50.8518  1.2563e+20
50.9691  1.22949e+20
