#S 1 spectral density
#N 2
#UFWHM 27.2148
#L  abscissas [um]  spectral density
-58.5938  1.61778e+20
-58.4764  1.76311e+20
-58.3591  1.90791e+20
-58.2418  2.04515e+20
-58.1245  2.17067e+20
-58.0072  2.28138e+20
-57.8899  2.37563e+20
-57.7726  2.45285e+20
-57.6553  2.51104e+20
-57.538  2.54724e+20
-57.4207  2.55699e+20
-57.3034  2.535e+20
-57.1861  2.47703e+20
-57.0688  2.38025e+20
-56.9515  2.24766e+20
-56.8342  2.0861e+20
-56.7169  1.90799e+20
-56.5996  1.72814e+20
-56.4823  1.56311e+20
-56.365  1.42762e+20
-56.2477  1.33173e+20
-56.1303  1.28213e+20
-56.013  1.27819e+20
-55.8957  1.31548e+20
-55.7784  1.38596e+20
-55.6611  1.47956e+20
-55.5438  1.58634e+20
-55.4265  1.69642e+20
-55.3092  1.80207e+20
-55.1919  1.89613e+20
-55.0746  1.9743e+20
-54.9573  2.03308e+20
-54.84  2.07079e+20
-54.7227  2.08941e+20
-54.6054  2.09143e+20
-54.4881  2.08254e+20
-54.3708  2.06877e+20
-54.2535  2.05713e+20
-54.1362  2.05229e+20
-54.0189  2.05744e+20
-53.9016  2.07188e+20
-53.7842  2.09192e+20
-53.6669  2.11207e+20
-53.5496  2.1264e+20
-53.4323  2.12985e+20
-53.315  2.11953e+20
-53.1977  2.09541e+20
-53.0804  2.06022e+20
-52.9631  2.01799e+20
-52.8458  1.97287e+20
-52.7285  1.9276e+20
-52.6112  1.8835e+20
-52.4939  1.83888e+20
-52.3766  1.79179e+20
-52.2593  1.73861e+20
-52.142  1.67792e+20
-52.0247  1.60971e+20
-51.9074  1.53687e+20
-51.7901  1.46416e+20
-51.6728  1.39786e+20
-51.5555  1.34415e+20
-51.4381  1.30969e+20
-51.3208  1.29745e+20
-51.2035  1.30998e+20
-51.0862  1.34666e+20
-50.9689  1.40637e+20
-50.8516  1.48609e+20
-50.7343  1.58194e+20
-50.617  1.68932e+20
-50.4997  1.80457e+20
-50.3824  1.92187e+20
-50.2651  2.03698e+20
-50.1478  2.14411e+20
-50.0305  2.23939e+20
-49.9132  2.31865e+20
-49.7959  2.38016e+20
-49.6786  2.42292e+20
-49.5613  2.44799e+20
-49.444  2.45822e+20
-49.3267  2.45639e+20
-49.2094  2.44682e+20
-49.092  2.43284e+20
-48.9747  2.41851e+20
-48.8574  2.40607e+20
-48.7401  2.39705e+20
-48.6228  2.39264e+20
-48.5055  2.39253e+20
-48.3882  2.39486e+20
-48.2709  2.39755e+20
-48.1536  2.39826e+20
-48.0363  2.39372e+20
-47.919  2.38222e+20
-47.8017  2.36282e+20
-47.6844  2.33754e+20
-47.5671  2.31006e+20
-47.4498  2.28587e+20
-47.3325  2.27359e+20
-47.2152  2.27952e+20
-47.0979  2.3114e+20
-46.9806  2.37282e+20
-46.8633  2.46428e+20
-46.7459  2.58344e+20
-46.6286  2.72351e+20
-46.5113  2.87631e+20
-46.394  3.03143e+20
-46.2767  3.17789e+20
-46.1594  3.30563e+20
-46.0421  3.40539e+20
-45.9248  3.47027e+20
-45.8075  3.49453e+20
-45.6902  3.47567e+20
-45.5729  3.41333e+20
-45.4556  3.31086e+20
-45.3383  3.17578e+20
-45.221  3.01865e+20
-45.1037  2.85435e+20
-44.9864  2.6981e+20
-44.8691  2.56685e+20
-44.7518  2.47506e+20
-44.6345  2.43345e+20
-44.5172  2.44521e+20
-44.3998  2.50795e+20
-44.2825  2.61275e+20
-44.1652  2.7462e+20
-44.0479  2.89087e+20
-43.9306  3.03093e+20
-43.8133  3.15276e+20
-43.696  3.24562e+20
-43.5787  3.30647e+20
-43.4614  3.33696e+20
-43.3441  3.34242e+20
-43.2268  3.33231e+20
-43.1095  3.31636e+20
-42.9922  3.30565e+20
-42.8749  3.30857e+20
-42.7576  3.33131e+20
-42.6403  3.37804e+20
-42.523  3.44881e+20
-42.4057  3.54137e+20
-42.2884  3.65146e+20
-42.171  3.77198e+20
-42.0537  3.89323e+20
-41.9364  4.00659e+20
-41.8191  4.10323e+20
-41.7018  4.17742e+20
-41.5845  4.22523e+20
-41.4672  4.24749e+20
-41.3499  4.24868e+20
-41.2326  4.23741e+20
-41.1153  4.22446e+20
-40.998  4.22107e+20
-40.8807  4.23706e+20
-40.7634  4.28112e+20
-40.6461  4.35643e+20
-40.5288  4.46334e+20
-40.4115  4.59478e+20
-40.2942  4.74136e+20
-40.1769  4.8903e+20
-40.0596  5.02846e+20
-39.9423  5.14126e+20
-39.825  5.21593e+20
-39.7076  5.24508e+20
-39.5903  5.22391e+20
-39.473  5.15681e+20
-39.3557  5.05239e+20
-39.2384  4.92671e+20
-39.1211  4.80012e+20
-39.0038  4.69485e+20
-38.8865  4.63191e+20
-38.7692  4.62751e+20
-38.6519  4.68929e+20
-38.5346  4.81624e+20
-38.4173  4.99585e+20
-38.3  5.20829e+20
-38.1827  5.42653e+20
-38.0654  5.62406e+20
-37.9481  5.77448e+20
-37.8308  5.86076e+20
-37.7135  5.87224e+20
-37.5962  5.81116e+20
-37.4789  5.68749e+20
-37.3615  5.51719e+20
-37.2442  5.32242e+20
-37.1269  5.12405e+20
-37.0096  4.9454e+20
-36.8923  4.80298e+20
-36.775  4.71148e+20
-36.6577  4.68068e+20
-36.5404  4.71597e+20
-36.4231  4.81737e+20
-36.3058  4.97804e+20
-36.1885  5.1889e+20
-36.0712  5.43488e+20
-35.9539  5.69707e+20
-35.8366  5.95685e+20
-35.7193  6.19429e+20
-35.602  6.39687e+20
-35.4847  6.55422e+20
-35.3674  6.66545e+20
-35.2501  6.73643e+20
-35.1328  6.77817e+20
-35.0154  6.8056e+20
-34.8981  6.82966e+20
-34.7808  6.86028e+20
-34.6635  6.90327e+20
-34.5462  6.95469e+20
-34.4289  7.00783e+20
-34.3116  7.0532e+20
-34.1943  7.07831e+20
-34.077  7.07096e+20
-33.9597  7.02556e+20
-33.8424  6.93674e+20
-33.7251  6.80659e+20
-33.6078  6.63724e+20
-33.4905  6.43647e+20
-33.3732  6.21368e+20
-33.2559  5.97884e+20
-33.1386  5.7456e+20
-33.0213  5.52577e+20
-32.904  5.33271e+20
-32.7867  5.17846e+20
-32.6693  5.07362e+20
-32.552  5.02525e+20
-32.4347  5.03512e+20
-32.3174  5.10142e+20
-32.2001  5.21913e+20
-32.0828  5.37963e+20
-31.9655  5.57348e+20
-31.8482  5.79179e+20
-31.7309  6.02858e+20
-31.6136  6.28067e+20
-31.4963  6.54796e+20
-31.379  6.83212e+20
-31.2617  7.13878e+20
-31.1444  7.47019e+20
-31.0271  7.82952e+20
-30.9098  8.2195e+20
-30.7925  8.63549e+20
-30.6752  9.07275e+20
-30.5579  9.52407e+20
-30.4406  9.97777e+20
-30.3232  1.0421e+21
-30.2059  1.08386e+21
-30.0886  1.12159e+21
-29.9713  1.1541e+21
-29.854  1.18036e+21
-29.7367  1.19973e+21
-29.6194  1.21235e+21
-29.5021  1.21879e+21
-29.3848  1.22018e+21
-29.2675  1.21806e+21
-29.1502  1.21401e+21
-29.0329  1.20963e+21
-28.9156  1.20613e+21
-28.7983  1.20421e+21
-28.681  1.20416e+21
-28.5637  1.20583e+21
-28.4464  1.20873e+21
-28.3291  1.21235e+21
-28.2118  1.21618e+21
-28.0944  1.22001e+21
-27.9771  1.22395e+21
-27.8598  1.22843e+21
-27.7425  1.23421e+21
-27.6252  1.24227e+21
-27.5079  1.25366e+21
-27.3906  1.26951e+21
-27.2733  1.29088e+21
-27.156  1.3184e+21
-27.0387  1.35274e+21
-26.9214  1.39385e+21
-26.8041  1.44131e+21
-26.6868  1.49414e+21
-26.5695  1.55087e+21
-26.4522  1.60958e+21
-26.3349  1.66827e+21
-26.2176  1.72473e+21
-26.1003  1.7769e+21
-25.983  1.82341e+21
-25.8657  1.86326e+21
-25.7483  1.896e+21
-25.631  1.92202e+21
-25.5137  1.94199e+21
-25.3964  1.95727e+21
-25.2791  1.96913e+21
-25.1618  1.97915e+21
-25.0445  1.98865e+21
-24.9272  1.99893e+21
-24.8099  2.01079e+21
-24.6926  2.02501e+21
-24.5753  2.04166e+21
-24.458  2.06083e+21
-24.3407  2.08197e+21
-24.2234  2.10479e+21
-24.1061  2.12854e+21
-23.9888  2.1529e+21
-23.8715  2.17785e+21
-23.7542  2.20385e+21
-23.6369  2.23173e+21
-23.5196  2.26287e+21
-23.4023  2.29916e+21
-23.2849  2.34233e+21
-23.1676  2.39418e+21
-23.0503  2.45585e+21
-22.933  2.52812e+21
-22.8157  2.61074e+21
-22.6984  2.70288e+21
-22.5811  2.80272e+21
-22.4638  2.90822e+21
-22.3465  3.0167e+21
-22.2292  3.12553e+21
-22.1119  3.23214e+21
-21.9946  3.33445e+21
-21.8773  3.4308e+21
-21.76  3.52008e+21
-21.6427  3.60206e+21
-21.5254  3.67692e+21
-21.4081  3.7456e+21
-21.2908  3.80922e+21
-21.1735  3.86938e+21
-21.0561  3.92739e+21
-20.9388  3.98452e+21
-20.8215  4.04107e+21
-20.7042  4.09719e+21
-20.5869  4.15187e+21
-20.4696  4.20402e+21
-20.3523  4.25174e+21
-20.235  4.29347e+21
-20.1177  4.32734e+21
-20.0004  4.3528e+21
-19.8831  4.36972e+21
-19.7658  4.37916e+21
-19.6485  4.38294e+21
-19.5312  4.38434e+21
-19.4139  4.38618e+21
-19.2966  4.39258e+21
-19.1793  4.40686e+21
-19.062  4.4323e+21
-18.9447  4.47084e+21
-18.8274  4.5236e+21
-18.71  4.59099e+21
-18.5927  4.67164e+21
-18.4754  4.76333e+21
-18.3581  4.86304e+21
-18.2408  4.96709e+21
-18.1235  5.07176e+21
-18.0062  5.17334e+21
-17.8889  5.2686e+21
-17.7716  5.35578e+21
-17.6543  5.43349e+21
-17.537  5.5024e+21
-17.4197  5.56384e+21
-17.3024  5.6209e+21
-17.1851  5.67726e+21
-17.0678  5.73676e+21
-16.9505  5.80402e+21
-16.8332  5.88299e+21
-16.7159  5.97668e+21
-16.5986  6.08689e+21
-16.4813  6.21431e+21
-16.364  6.35803e+21
-16.2466  6.51598e+21
-16.1293  6.68427e+21
-16.012  6.85812e+21
-15.8947  7.03224e+21
-15.7774  7.20131e+21
-15.6601  7.35989e+21
-15.5428  7.50374e+21
-15.4255  7.62921e+21
-15.3082  7.73497e+21
-15.1909  7.82152e+21
-15.0736  7.89002e+21
-14.9563  7.94411e+21
-14.839  7.98823e+21
-14.7217  8.02704e+21
-14.6044  8.06542e+21
-14.4871  8.10759e+21
-14.3698  8.15667e+21
-14.2525  8.21447e+21
-14.1352  8.28089e+21
-14.0178  8.35603e+21
-13.9005  8.43754e+21
-13.7832  8.52326e+21
-13.6659  8.61107e+21
-13.5486  8.6988e+21
-13.4313  8.78524e+21
-13.314  8.8697e+21
-13.1967  8.95257e+21
-13.0794  9.03594e+21
-12.9621  9.12083e+21
-12.8448  9.21108e+21
-12.7275  9.30897e+21
-12.6102  9.4178e+21
-12.4929  9.53993e+21
-12.3756  9.67672e+21
-12.2583  9.82891e+21
-12.141  9.99585e+21
-12.0237  1.01748e+22
-11.9064  1.03619e+22
-11.7891  1.05522e+22
-11.6718  1.07398e+22
-11.5544  1.09194e+22
-11.4371  1.10857e+22
-11.3198  1.12335e+22
-11.2025  1.13604e+22
-11.0852  1.14649e+22
-10.9679  1.15475e+22
-10.8506  1.16103e+22
-10.7333  1.1657e+22
-10.616  1.16919e+22
-10.4987  1.17218e+22
-10.3814  1.17508e+22
-10.2641  1.17851e+22
-10.1468  1.1829e+22
-10.0295  1.18862e+22
-9.91217  1.19579e+22
-9.79487  1.20449e+22
-9.67756  1.21455e+22
-9.56026  1.22568e+22
-9.44295  1.23742e+22
-9.32565  1.24941e+22
-9.20834  1.26107e+22
-9.09104  1.27202e+22
-8.97373  1.28196e+22
-8.85643  1.29065e+22
-8.73913  1.29812e+22
-8.62182  1.30444e+22
-8.50452  1.30991e+22
-8.38721  1.3149e+22
-8.26991  1.31971e+22
-8.1526  1.32482e+22
-8.03529  1.33043e+22
-7.91799  1.33678e+22
-7.80069  1.3439e+22
-7.68338  1.35169e+22
-7.56608  1.35996e+22
-7.44877  1.3684e+22
-7.33146  1.37657e+22
-7.21416  1.38409e+22
-7.09685  1.39056e+22
-6.97955  1.39568e+22
-6.86224  1.3993e+22
-6.74494  1.4015e+22
-6.62763  1.4023e+22
-6.51033  1.40212e+22
-6.39302  1.4014e+22
-6.27572  1.40067e+22
-6.15842  1.40054e+22
-6.04111  1.4016e+22
-5.92381  1.40429e+22
-5.8065  1.40914e+22
-5.68919  1.41627e+22
-5.57189  1.4258e+22
-5.45458  1.43756e+22
-5.33728  1.45132e+22
-5.21997  1.4665e+22
-5.10267  1.48251e+22
-4.98536  1.49864e+22
-4.86806  1.51416e+22
-4.75075  1.52834e+22
-4.63345  1.54065e+22
-4.51614  1.55061e+22
-4.39884  1.55799e+22
-4.28154  1.56288e+22
-4.16423  1.56543e+22
-4.04692  1.56606e+22
-3.92962  1.56534e+22
-3.81231  1.56397e+22
-3.69501  1.56253e+22
-3.5777  1.5616e+22
-3.4604  1.56167e+22
-3.34309  1.56298e+22
-3.22579  1.56563e+22
-3.10849  1.56946e+22
-2.99118  1.57419e+22
-2.87387  1.57942e+22
-2.75657  1.58469e+22
-2.63926  1.58949e+22
-2.52196  1.59342e+22
-2.40465  1.59619e+22
-2.28735  1.59763e+22
-2.17005  1.59781e+22
-2.05274  1.59705e+22
-1.93544  1.59562e+22
-1.81813  1.59415e+22
-1.70083  1.59321e+22
-1.58352  1.5934e+22
-1.46622  1.5953e+22
-1.34891  1.59934e+22
-1.2316  1.60574e+22
-1.1143  1.61461e+22
-0.996995  1.6257e+22
-0.87969  1.63867e+22
-0.762385  1.65279e+22
-0.64508  1.66738e+22
-0.527775  1.68147e+22
-0.41047  1.69414e+22
-0.293165  1.70452e+22
-0.17586  1.71187e+22
-0.058555  1.71565e+22
0.05875  1.71557e+22
0.176055  1.71163e+22
0.29336  1.7041e+22
0.410665  1.69359e+22
0.52797  1.6808e+22
0.645275  1.66659e+22
0.76258  1.65193e+22
0.879885  1.63771e+22
0.99719  1.6247e+22
1.1145  1.61354e+22
1.2318  1.60463e+22
1.3491  1.5982e+22
1.46641  1.59414e+22
1.58371  1.59221e+22
1.70102  1.59196e+22
1.81832  1.59285e+22
1.93563  1.59424e+22
2.05294  1.59558e+22
2.17024  1.5963e+22
2.28754  1.59601e+22
2.40485  1.59446e+22
2.52216  1.59159e+22
2.63946  1.58757e+22
2.75677  1.58265e+22
2.87407  1.57729e+22
2.99137  1.57192e+22
3.10868  1.56706e+22
3.22599  1.56309e+22
3.34329  1.56034e+22
3.4606  1.55891e+22
3.5779  1.55869e+22
3.69521  1.55942e+22
3.81251  1.56071e+22
3.92982  1.56189e+22
4.04712  1.5624e+22
4.16443  1.56158e+22
4.28173  1.55886e+22
4.39903  1.55382e+22
4.51634  1.54625e+22
4.63364  1.53619e+22
4.75095  1.52379e+22
4.86825  1.50952e+22
4.98556  1.49398e+22
5.10286  1.47785e+22
5.22017  1.46186e+22
5.33748  1.44673e+22
5.45478  1.43306e+22
5.57209  1.42136e+22
5.68939  1.41189e+22
5.8067  1.40483e+22
5.924  1.40004e+22
6.0413  1.39736e+22
6.15861  1.39631e+22
6.27591  1.3964e+22
6.39322  1.39709e+22
6.51052  1.39777e+22
6.62783  1.39782e+22
6.74514  1.3969e+22
6.86244  1.39462e+22
6.97975  1.39084e+22
7.09705  1.3856e+22
7.21436  1.37902e+22
7.33166  1.37139e+22
7.44897  1.36311e+22
7.56627  1.35462e+22
7.68358  1.34624e+22
7.80088  1.33837e+22
7.91819  1.33116e+22
8.03549  1.32476e+22
8.1528  1.31911e+22
8.2701  1.31393e+22
8.38741  1.30901e+22
8.50471  1.30396e+22
8.62202  1.29838e+22
8.73932  1.29193e+22
8.85662  1.2844e+22
8.97393  1.27561e+22
9.09123  1.26558e+22
9.20854  1.25455e+22
9.32584  1.24285e+22
9.44315  1.23082e+22
9.56045  1.21901e+22
9.67776  1.20787e+22
9.79506  1.19778e+22
9.91237  1.18908e+22
10.0297  1.18189e+22
10.147  1.1762e+22
10.2643  1.17182e+22
10.3816  1.16837e+22
10.4989  1.16545e+22
10.6162  1.16248e+22
10.7335  1.15893e+22
10.8508  1.15423e+22
10.9681  1.14791e+22
11.0854  1.13965e+22
11.2027  1.12918e+22
11.32  1.11646e+22
11.4373  1.10165e+22
11.5546  1.08504e+22
11.6719  1.06708e+22
11.7893  1.04835e+22
11.9066  1.02937e+22
12.0239  1.01069e+22
12.1412  9.92876e+21
12.2585  9.76261e+21
12.3758  9.61083e+21
12.4931  9.47445e+21
12.6104  9.35271e+21
12.7277  9.24428e+21
12.845  9.14684e+21
12.9623  9.05666e+21
13.0796  8.97169e+21
13.1969  8.88859e+21
13.3142  8.80544e+21
13.4315  8.72068e+21
13.5488  8.63415e+21
13.6661  8.54629e+21
13.7834  8.4581e+21
13.9007  8.3721e+21
14.018  8.29067e+21
14.1354  8.21535e+21
14.2527  8.1484e+21
14.37  8.09067e+21
14.4873  8.04121e+21
14.6046  7.99879e+21
14.7219  7.95994e+21
14.8392  7.92085e+21
14.9565  7.87649e+21
15.0738  7.82181e+21
15.1911  7.75311e+21
15.3084  7.66639e+21
15.4257  7.56034e+21
15.543  7.43471e+21
15.6603  7.29119e+21
15.7776  7.13323e+21
15.8949  6.96492e+21
16.0122  6.79152e+21
16.1295  6.61855e+21
16.2468  6.45142e+21
16.3641  6.2947e+21
16.4815  6.15223e+21
16.5988  6.02599e+21
16.7161  5.91669e+21
16.8334  5.82431e+21
16.9507  5.74625e+21
17.068  5.67974e+21
17.1853  5.62081e+21
17.3026  5.56502e+21
17.4199  5.5085e+21
17.5372  5.44751e+21
17.6545  5.37879e+21
17.7718  5.30164e+21
17.8891  5.21493e+21
18.0064  5.12021e+21
18.1237  5.0192e+21
18.241  4.9152e+21
18.3583  4.81182e+21
18.4756  4.71281e+21
18.5929  4.6219e+21
18.7102  4.54214e+21
18.8275  4.47541e+21
18.9449  4.4232e+21
19.0622  4.38536e+21
19.1795  4.36035e+21
19.2968  4.3463e+21
19.4141  4.34004e+21
19.5314  4.33826e+21
19.6487  4.337e+21
19.766  4.33287e+21
19.8833  4.3234e+21
20.0006  4.30619e+21
20.1179  4.28049e+21
20.2352  4.24634e+21
20.3525  4.2047e+21
20.4698  4.15704e+21
20.5871  4.10503e+21
20.7044  4.05046e+21
20.8217  3.99457e+21
20.939  3.93823e+21
21.0563  3.88144e+21
21.1736  3.8237e+21
21.291  3.76396e+21
21.4083  3.70045e+21
21.5256  3.63229e+21
21.6429  3.55778e+21
21.7602  3.47637e+21
21.8775  3.38757e+21
21.9948  3.2919e+21
22.1121  3.19033e+21
22.2294  3.08459e+21
22.3467  2.97657e+21
22.464  2.86922e+21
22.5813  2.7648e+21
22.6986  2.66614e+21
22.8159  2.57515e+21
22.9332  2.49361e+21
23.0505  2.42241e+21
23.1678  2.36171e+21
23.2851  2.3108e+21
23.4024  2.26834e+21
23.5198  2.2327e+21
23.6371  2.20211e+21
23.7544  2.17476e+21
23.8717  2.14921e+21
23.989  2.1246e+21
24.1063  2.10061e+21
24.2236  2.07728e+21
24.3409  2.05487e+21
24.4582  2.03411e+21
24.5755  2.01536e+21
24.6928  1.9991e+21
24.8101  1.98523e+21
24.9274  1.9737e+21
25.0447  1.96372e+21
25.162  1.95449e+21
25.2793  1.94473e+21
25.3966  1.93308e+21
25.5139  1.91798e+21
25.6312  1.89808e+21
25.7485  1.87217e+21
25.8658  1.83952e+21
25.9832  1.79995e+21
26.1005  1.75363e+21
26.2178  1.70171e+21
26.3351  1.64568e+21
26.4524  1.58749e+21
26.5697  1.52927e+21
26.687  1.47323e+21
26.8043  1.42105e+21
26.9216  1.37425e+21
27.0389  1.33383e+21
27.1562  1.30024e+21
27.2735  1.27321e+21
27.3908  1.25248e+21
27.5081  1.23713e+21
27.6254  1.22615e+21
27.7427  1.21851e+21
27.86  1.2131e+21
27.9773  1.20895e+21
28.0946  1.20526e+21
28.212  1.20172e+21
28.3293  1.19819e+21
28.4466  1.19487e+21
28.5639  1.19231e+21
28.6812  1.19093e+21
28.7985  1.19134e+21
28.9158  1.1936e+21
29.0331  1.19741e+21
29.1504  1.20209e+21
29.2677  1.20636e+21
29.385  1.20871e+21
29.5023  1.2075e+21
29.6196  1.20117e+21
29.7369  1.1887e+21
29.8542  1.16943e+21
29.9715  1.14339e+21
30.0888  1.1111e+21
30.2061  1.07352e+21
30.3234  1.03205e+21
30.4407  9.88073e+20
30.558  9.43058e+20
30.6754  8.98302e+20
30.7927  8.54872e+20
30.91  8.13668e+20
31.0273  7.7515e+20
31.1446  7.39456e+20
31.2619  7.06672e+20
31.3792  6.7636e+20
31.4965  6.48153e+20
31.6138  6.21759e+20
31.7311  5.96822e+20
31.8484  5.73431e+20
31.9657  5.51859e+20
32.083  5.32833e+20
32.2003  5.17178e+20
32.3176  5.05763e+20
32.4349  4.99556e+20
32.5522  4.98947e+20
32.6695  5.04187e+20
32.7868  5.15033e+20
32.9042  5.30721e+20
33.0215  5.5026e+20
33.1388  5.72442e+20
33.2561  5.95925e+20
33.3734  6.19428e+20
33.4907  6.41717e+20
33.608  6.61825e+20
33.7253  6.78666e+20
33.8426  6.91591e+20
33.9599  7.00358e+20
34.0772  7.04793e+20
34.1945  7.05413e+20
34.3118  7.02853e+20
34.4291  6.98392e+20
34.5464  6.93103e+20
34.6637  6.87978e+20
34.781  6.8383e+20
34.8983  6.80737e+20
35.0156  6.78352e+20
35.1329  6.75791e+20
35.2503  6.71548e+20
35.3676  6.64401e+20
35.4849  6.53045e+20
35.6022  6.37221e+20
35.7195  6.1691e+20
35.8368  5.93082e+20
35.9541  5.6715e+20
36.0714  5.40905e+20
36.1887  5.16484e+20
36.306  4.9563e+20
36.4233  4.79682e+20
36.5406  4.69851e+20
36.6579  4.66634e+20
36.7752  4.69987e+20
36.8925  4.79333e+20
37.0098  4.93858e+20
37.1271  5.11927e+20
37.2444  5.31851e+20
37.3617  5.51341e+20
37.479  5.68295e+20
37.5964  5.80616e+20
37.7137  5.86478e+20
37.831  5.8514e+20
37.9483  5.76239e+20
38.0656  5.61048e+20
38.1829  5.4123e+20
38.3002  5.19325e+20
38.4175  4.98139e+20
38.5348  4.80249e+20
38.6521  4.67755e+20
38.7694  4.61725e+20
38.8867  4.62293e+20
39.004  4.68704e+20
39.1213  4.79288e+20
39.2386  4.91977e+20
39.3559  5.04465e+20
39.4732  5.14813e+20
39.5905  5.21384e+20
39.7078  5.23316e+20
39.8251  5.20314e+20
39.9425  5.12663e+20
40.0598  5.01446e+20
40.1771  4.87545e+20
40.2944  4.72595e+20
40.4117  4.57957e+20
40.529  4.4492e+20
40.6463  4.34332e+20
40.7636  4.26837e+20
40.8809  4.22524e+20
40.9982  4.20891e+20
41.1155  4.21236e+20
41.2328  4.22521e+20
41.3501  4.23616e+20
41.4674  4.23383e+20
41.5847  4.21058e+20
41.702  4.16251e+20
41.8193  4.08726e+20
41.9366  3.99051e+20
42.0539  3.87721e+20
42.1712  3.75578e+20
42.2885  3.63607e+20
42.4059  3.52652e+20
42.5232  3.43469e+20
42.6405  3.36445e+20
42.7578  3.31895e+20
42.8751  3.29698e+20
42.9924  3.29426e+20
43.1097  3.30574e+20
43.227  3.32153e+20
43.3443  3.33176e+20
43.4616  3.32608e+20
43.5789  3.29529e+20
43.6962  3.23379e+20
43.8135  3.13979e+20
43.9308  3.01796e+20
44.0481  2.87756e+20
44.1654  2.73317e+20
44.2827  2.60081e+20
44.4  2.49696e+20
44.5173  2.43499e+20
44.6347  2.42439e+20
44.752  2.46762e+20
44.8693  2.56014e+20
44.9866  2.69112e+20
45.1039  2.84706e+20
45.2212  3.01116e+20
45.3385  3.16669e+20
45.4558  3.30075e+20
45.5731  3.4013e+20
45.6904  3.46192e+20
45.8077  3.4796e+20
45.925  3.45405e+20
46.0423  3.38847e+20
46.1596  3.28788e+20
46.2769  3.15963e+20
46.3942  3.013e+20
46.5115  2.85815e+20
46.6288  2.70609e+20
46.7461  2.5667e+20
46.8634  2.44863e+20
46.9808  2.35777e+20
47.0981  2.2975e+20
47.2154  2.26638e+20
47.3327  2.26097e+20
47.45  2.27332e+20
47.5673  2.29726e+20
47.6846  2.32431e+20
47.8019  2.34943e+20
47.9192  2.36827e+20
48.0365  2.37922e+20
48.1538  2.38358e+20
48.2711  2.38283e+20
48.3884  2.38011e+20
48.5057  2.37791e+20
48.623  2.37851e+20
48.7403  2.3833e+20
48.8576  2.39256e+20
48.9749  2.40583e+20
49.0922  2.42057e+20
49.2095  2.43457e+20
49.3269  2.44452e+20
49.4442  2.44636e+20
49.5615  2.4363e+20
49.6788  2.41085e+20
49.7961  2.36774e+20
49.9134  2.30587e+20
50.0307  2.22597e+20
50.148  2.1307e+20
50.2653  2.02297e+20
50.3826  1.90773e+20
50.4999  1.79025e+20
50.6172  1.67558e+20
50.7345  1.56803e+20
50.8518  1.4728e+20
