#S 1 spectral density
#N 2
#UFWHM 30.2647
#L  abscissas [um]  spectral density
-58.5938  2.02033e+20
-58.4764  2.07001e+20
-58.3591  2.10126e+20
-58.2418  2.11165e+20
-58.1245  2.10081e+20
-58.0072  2.07111e+20
-57.8899  2.02748e+20
-57.7726  1.97576e+20
-57.6553  1.92249e+20
-57.538  1.872e+20
-57.4207  1.82701e+20
-57.3034  1.78777e+20
-57.1861  1.75257e+20
-57.0688  1.7184e+20
-56.9515  1.68308e+20
-56.8342  1.64516e+20
-56.7169  1.60408e+20
-56.5996  1.56111e+20
-56.4823  1.51733e+20
-56.365  1.47372e+20
-56.2477  1.43124e+20
-56.1303  1.39081e+20
-56.013  1.353e+20
-55.8957  1.32061e+20
-55.7784  1.29826e+20
-55.6611  1.29225e+20
-55.5438  1.31044e+20
-55.4265  1.35963e+20
-55.3092  1.44515e+20
-55.1919  1.56769e+20
-55.0746  1.72347e+20
-54.9573  1.90272e+20
-54.84  2.09113e+20
-54.7227  2.2739e+20
-54.6054  2.43488e+20
-54.4881  2.56103e+20
-54.3708  2.64368e+20
-54.2535  2.67994e+20
-54.1362  2.67111e+20
-54.0189  2.62241e+20
-53.9016  2.54277e+20
-53.7842  2.44019e+20
-53.6669  2.32454e+20
-53.5496  2.20326e+20
-53.4323  2.08299e+20
-53.315  1.96943e+20
-53.1977  1.86629e+20
-53.0804  1.77621e+20
-52.9631  1.70026e+20
-52.8458  1.63879e+20
-52.7285  1.59029e+20
-52.6112  1.55383e+20
-52.4939  1.52754e+20
-52.3766  1.51257e+20
-52.2593  1.51041e+20
-52.142  1.5252e+20
-52.0247  1.56275e+20
-51.9074  1.62805e+20
-51.7901  1.72576e+20
-51.6728  1.85681e+20
-51.5555  2.01776e+20
-51.4381  2.20206e+20
-51.3208  2.39735e+20
-51.2035  2.59152e+20
-51.0862  2.77045e+20
-50.9689  2.92444e+20
-50.8516  3.04666e+20
-50.7343  3.13552e+20
-50.617  3.19459e+20
-50.4997  3.2327e+20
-50.3824  3.25857e+20
-50.2651  3.28365e+20
-50.1478  3.31525e+20
-50.0305  3.36002e+20
-49.9132  3.41871e+20
-49.7959  3.48956e+20
-49.6786  3.56628e+20
-49.5613  3.64054e+20
-49.444  3.70362e+20
-49.3267  3.74612e+20
-49.2094  3.75993e+20
-49.092  3.7399e+20
-48.9747  3.68431e+20
-48.8574  3.59517e+20
-48.7401  3.47663e+20
-48.6228  3.33731e+20
-48.5055  3.18703e+20
-48.3882  3.03504e+20
-48.2709  2.8918e+20
-48.1536  2.76559e+20
-48.0363  2.66119e+20
-47.919  2.58238e+20
-47.8017  2.52947e+20
-47.6844  2.50156e+20
-47.5671  2.49589e+20
-47.4498  2.50858e+20
-47.3325  2.53638e+20
-47.2152  2.57454e+20
-47.0979  2.61957e+20
-46.9806  2.66787e+20
-46.8633  2.71719e+20
-46.7459  2.76622e+20
-46.6286  2.81649e+20
-46.5113  2.87309e+20
-46.394  2.94339e+20
-46.2767  3.03737e+20
-46.1594  3.16552e+20
-46.0421  3.33764e+20
-45.9248  3.56012e+20
-45.8075  3.83361e+20
-45.6902  4.15247e+20
-45.5729  4.50309e+20
-45.4556  4.86679e+20
-45.3383  5.22075e+20
-45.221  5.54131e+20
-45.1037  5.80645e+20
-44.9864  5.99834e+20
-44.8691  6.10735e+20
-44.7518  6.13227e+20
-44.6345  6.07889e+20
-44.5172  5.95826e+20
-44.3998  5.78915e+20
-44.2825  5.59057e+20
-44.1652  5.38557e+20
-44.0479  5.19253e+20
-43.9306  5.02937e+20
-43.8133  4.9086e+20
-43.696  4.83682e+20
-43.5787  4.81597e+20
-43.4614  4.84113e+20
-43.3441  4.9024e+20
-43.2268  4.98578e+20
-43.1095  5.07575e+20
-42.9922  5.15774e+20
-42.8749  5.21963e+20
-42.7576  5.25443e+20
-42.6403  5.26079e+20
-42.523  5.24426e+20
-42.4057  5.21401e+20
-42.2884  5.18423e+20
-42.171  5.16927e+20
-42.0537  5.17782e+20
-41.9364  5.2187e+20
-41.8191  5.29037e+20
-41.7018  5.38944e+20
-41.5845  5.50295e+20
-41.4672  5.61637e+20
-41.3499  5.71358e+20
-41.2326  5.77859e+20
-41.1153  5.79832e+20
-40.998  5.76442e+20
-40.8807  5.67295e+20
-40.7634  5.52912e+20
-40.6461  5.34065e+20
-40.5288  5.12417e+20
-40.4115  4.89487e+20
-40.2942  4.67369e+20
-40.1769  4.47828e+20
-40.0596  4.325e+20
-39.9423  4.22371e+20
-39.825  4.17822e+20
-39.7076  4.18618e+20
-39.5903  4.23689e+20
-39.473  4.3164e+20
-39.3557  4.40781e+20
-39.2384  4.49381e+20
-39.1211  4.56002e+20
-39.0038  4.59764e+20
-38.8865  4.60196e+20
-38.7692  4.57456e+20
-38.6519  4.52266e+20
-38.5346  4.45748e+20
-38.4173  4.39291e+20
-38.3  4.34382e+20
-38.1827  4.32575e+20
-38.0654  4.35452e+20
-37.9481  4.44212e+20
-37.8308  4.59982e+20
-37.7135  4.83183e+20
-37.5962  5.1387e+20
-37.4789  5.51198e+20
-37.3615  5.93603e+20
-37.2442  6.3886e+20
-37.1269  6.84037e+20
-37.0096  7.26325e+20
-36.8923  7.62891e+20
-36.775  7.91697e+20
-36.6577  8.11538e+20
-36.5404  8.22445e+20
-36.4231  8.25351e+20
-36.3058  8.21949e+20
-36.1885  8.14633e+20
-36.0712  8.05534e+20
-35.9539  7.96556e+20
-35.8366  7.88866e+20
-35.7193  7.82891e+20
-35.602  7.78646e+20
-35.4847  7.75178e+20
-35.3674  7.7151e+20
-35.2501  7.66781e+20
-35.1328  7.60294e+20
-35.0154  7.5165e+20
-34.8981  7.40732e+20
-34.7808  7.27861e+20
-34.6635  7.13773e+20
-34.5462  6.99104e+20
-34.4289  6.84837e+20
-34.3116  6.72018e+20
-34.1943  6.61589e+20
-34.077  6.54283e+20
-33.9597  6.50754e+20
-33.8424  6.51201e+20
-33.7251  6.5548e+20
-33.6078  6.62802e+20
-33.4905  6.72134e+20
-33.3732  6.82134e+20
-33.2559  6.91426e+20
-33.1386  6.9898e+20
-33.0213  7.04025e+20
-32.904  7.06415e+20
-32.7867  7.06588e+20
-32.6693  7.056e+20
-32.552  7.04749e+20
-32.4347  7.05378e+20
-32.3174  7.08784e+20
-32.2001  7.16033e+20
-32.0828  7.27744e+20
-31.9655  7.44108e+20
-31.8482  7.64979e+20
-31.7309  7.89961e+20
-31.6136  8.18404e+20
-31.4963  8.49546e+20
-31.379  8.82498e+20
-31.2617  9.16579e+20
-31.1444  9.50814e+20
-31.0271  9.84589e+20
-30.9098  1.01751e+21
-30.7925  1.04906e+21
-30.6752  1.0792e+21
-30.5579  1.1081e+21
-30.4406  1.13593e+21
-30.3232  1.16298e+21
-30.2059  1.18934e+21
-30.0886  1.21516e+21
-29.9713  1.24027e+21
-29.854  1.26443e+21
-29.7367  1.28715e+21
-29.6194  1.30798e+21
-29.5021  1.32652e+21
-29.3848  1.34253e+21
-29.2675  1.35585e+21
-29.1502  1.36654e+21
-29.0329  1.37477e+21
-28.9156  1.38091e+21
-28.7983  1.38527e+21
-28.681  1.38844e+21
-28.5637  1.39118e+21
-28.4464  1.39433e+21
-28.3291  1.39883e+21
-28.2118  1.40574e+21
-28.0944  1.41608e+21
-27.9771  1.43063e+21
-27.8598  1.44979e+21
-27.7425  1.47341e+21
-27.6252  1.5011e+21
-27.5079  1.53182e+21
-27.3906  1.56433e+21
-27.2733  1.59742e+21
-27.156  1.6298e+21
-27.0387  1.66094e+21
-26.9214  1.69047e+21
-26.8041  1.7187e+21
-26.6868  1.74649e+21
-26.5695  1.77504e+21
-26.4522  1.80575e+21
-26.3349  1.84004e+21
-26.2176  1.87929e+21
-26.1003  1.9242e+21
-25.983  1.97541e+21
-25.8657  2.03285e+21
-25.7483  2.09586e+21
-25.631  2.16341e+21
-25.5137  2.23355e+21
-25.3964  2.3047e+21
-25.2791  2.37452e+21
-25.1618  2.44119e+21
-25.0445  2.50278e+21
-24.9272  2.55831e+21
-24.8099  2.60703e+21
-24.6926  2.64914e+21
-24.5753  2.68511e+21
-24.458  2.71623e+21
-24.3407  2.7437e+21
-24.2234  2.7691e+21
-24.1061  2.79344e+21
-23.9888  2.81784e+21
-23.8715  2.84292e+21
-23.7542  2.86903e+21
-23.6369  2.89601e+21
-23.5196  2.92349e+21
-23.4023  2.95119e+21
-23.2849  2.97845e+21
-23.1676  3.00473e+21
-23.0503  3.0296e+21
-22.933  3.05297e+21
-22.8157  3.07492e+21
-22.6984  3.09611e+21
-22.5811  3.11754e+21
-22.4638  3.14085e+21
-22.3465  3.16775e+21
-22.2292  3.20031e+21
-22.1119  3.24034e+21
-21.9946  3.28958e+21
-21.8773  3.34895e+21
-21.76  3.41875e+21
-21.6427  3.49852e+21
-21.5254  3.5872e+21
-21.4081  3.68286e+21
-21.2908  3.78327e+21
-21.1735  3.88622e+21
-21.0561  3.98954e+21
-20.9388  4.09171e+21
-20.8215  4.19108e+21
-20.7042  4.28723e+21
-20.5869  4.37987e+21
-20.4696  4.46942e+21
-20.3523  4.55637e+21
-20.235  4.64193e+21
-20.1177  4.72646e+21
-20.0004  4.81095e+21
-19.8831  4.89569e+21
-19.7658  4.98036e+21
-19.6485  5.06409e+21
-19.5312  5.14585e+21
-19.4139  5.22326e+21
-19.2966  5.29437e+21
-19.1793  5.35696e+21
-19.062  5.40932e+21
-18.9447  5.44987e+21
-18.8274  5.47821e+21
-18.71  5.49555e+21
-18.5927  5.50372e+21
-18.4754  5.50575e+21
-18.3581  5.50591e+21
-18.2408  5.50861e+21
-18.1235  5.51899e+21
-18.0062  5.5416e+21
-17.8889  5.58013e+21
-17.7716  5.63805e+21
-17.6543  5.71626e+21
-17.537  5.81525e+21
-17.4197  5.93325e+21
-17.3024  6.06763e+21
-17.1851  6.21411e+21
-17.0678  6.36747e+21
-16.9505  6.52258e+21
-16.8332  6.67426e+21
-16.7159  6.8175e+21
-16.5986  6.94822e+21
-16.4813  7.06416e+21
-16.364  7.16427e+21
-16.2466  7.24948e+21
-16.1293  7.32195e+21
-16.012  7.38495e+21
-15.8947  7.44279e+21
-15.7774  7.50022e+21
-15.6601  7.56163e+21
-15.5428  7.63103e+21
-15.4255  7.71067e+21
-15.3082  7.80237e+21
-15.1909  7.90707e+21
-15.0736  8.02274e+21
-14.9563  8.14734e+21
-14.839  8.2778e+21
-14.7217  8.40971e+21
-14.6044  8.53904e+21
-14.4871  8.66166e+21
-14.3698  8.77402e+21
-14.2525  8.87331e+21
-14.1352  8.95775e+21
-14.0178  9.0281e+21
-13.9005  9.08513e+21
-13.7832  9.13151e+21
-13.6659  9.1712e+21
-13.5486  9.20767e+21
-13.4313  9.24538e+21
-13.314  9.28732e+21
-13.1967  9.33582e+21
-13.0794  9.39264e+21
-12.9621  9.45636e+21
-12.8448  9.52649e+21
-12.7275  9.59995e+21
-12.6102  9.67436e+21
-12.4929  9.74662e+21
-12.3756  9.81404e+21
-12.2583  9.8758e+21
-12.141  9.93144e+21
-12.0237  9.9815e+21
-11.9064  1.00278e+22
-11.7891  1.00731e+22
-11.6718  1.01206e+22
-11.5544  1.01741e+22
-11.4371  1.02377e+22
-11.3198  1.03134e+22
-11.2025  1.04038e+22
-11.0852  1.05099e+22
-10.9679  1.06312e+22
-10.8506  1.07658e+22
-10.7333  1.09105e+22
-10.616  1.10608e+22
-10.4987  1.12132e+22
-10.3814  1.13613e+22
-10.2641  1.15013e+22
-10.1468  1.1629e+22
-10.0295  1.1742e+22
-9.91217  1.18385e+22
-9.79487  1.19185e+22
-9.67756  1.1983e+22
-9.56026  1.20337e+22
-9.44295  1.20726e+22
-9.32565  1.21033e+22
-9.20834  1.21276e+22
-9.09104  1.21483e+22
-8.97373  1.21677e+22
-8.85643  1.21866e+22
-8.73913  1.22061e+22
-8.62182  1.22263e+22
-8.50452  1.22471e+22
-8.38721  1.22684e+22
-8.26991  1.22888e+22
-8.1526  1.23091e+22
-8.03529  1.23288e+22
-7.91799  1.2349e+22
-7.80069  1.23714e+22
-7.68338  1.23978e+22
-7.56608  1.24318e+22
-7.44877  1.2477e+22
-7.33146  1.25369e+22
-7.21416  1.26146e+22
-7.09685  1.27131e+22
-6.97955  1.28335e+22
-6.86224  1.29757e+22
-6.74494  1.31394e+22
-6.62763  1.33197e+22
-6.51033  1.3512e+22
-6.39302  1.371e+22
-6.27572  1.39059e+22
-6.15842  1.40916e+22
-6.04111  1.42591e+22
-5.92381  1.44012e+22
-5.8065  1.45133e+22
-5.68919  1.45908e+22
-5.57189  1.46336e+22
-5.45458  1.46427e+22
-5.33728  1.46229e+22
-5.21997  1.45796e+22
-5.10267  1.45205e+22
-4.98536  1.44538e+22
-4.86806  1.43873e+22
-4.75075  1.43284e+22
-4.63345  1.42832e+22
-4.51614  1.42553e+22
-4.39884  1.42466e+22
-4.28154  1.42576e+22
-4.16423  1.42853e+22
-4.04692  1.43263e+22
-3.92962  1.43758e+22
-3.81231  1.44286e+22
-3.69501  1.44795e+22
-3.5777  1.45239e+22
-3.4604  1.45592e+22
-3.34309  1.45835e+22
-3.22579  1.45974e+22
-3.10849  1.46032e+22
-2.99118  1.46044e+22
-2.87387  1.46066e+22
-2.75657  1.46151e+22
-2.63926  1.46359e+22
-2.52196  1.46736e+22
-2.40465  1.47313e+22
-2.28735  1.48101e+22
-2.17005  1.49088e+22
-2.05274  1.50251e+22
-1.93544  1.51519e+22
-1.81813  1.52826e+22
-1.70083  1.54087e+22
-1.58352  1.55218e+22
-1.46622  1.56138e+22
-1.34891  1.56786e+22
-1.2316  1.57118e+22
-1.1143  1.57121e+22
-0.996995  1.56803e+22
-0.87969  1.56211e+22
-0.762385  1.55402e+22
-0.64508  1.54467e+22
-0.527775  1.53494e+22
-0.41047  1.52576e+22
-0.293165  1.518e+22
-0.17586  1.5124e+22
-0.058555  1.50947e+22
0.05875  1.50948e+22
0.176055  1.51242e+22
0.29336  1.518e+22
0.410665  1.52576e+22
0.52797  1.53492e+22
0.645275  1.54461e+22
0.76258  1.55388e+22
0.879885  1.56186e+22
0.99719  1.56767e+22
1.1145  1.5707e+22
1.2318  1.57053e+22
1.3491  1.56708e+22
1.46641  1.56045e+22
1.58371  1.55108e+22
1.70102  1.53961e+22
1.81832  1.52686e+22
1.93563  1.51362e+22
2.05294  1.50081e+22
2.17024  1.48913e+22
2.28754  1.4791e+22
2.40485  1.47112e+22
2.52216  1.46524e+22
2.63946  1.46141e+22
2.75677  1.45921e+22
2.87407  1.45826e+22
2.99137  1.45792e+22
3.10868  1.45768e+22
3.22599  1.457e+22
3.34329  1.45554e+22
3.4606  1.45305e+22
3.5779  1.44946e+22
3.69521  1.44494e+22
3.81251  1.43982e+22
3.92982  1.4345e+22
4.04712  1.42953e+22
4.16443  1.42544e+22
4.28173  1.42266e+22
4.39903  1.42157e+22
4.51634  1.42241e+22
4.63364  1.4252e+22
4.75095  1.42968e+22
4.86825  1.4355e+22
4.98556  1.44205e+22
5.10286  1.44862e+22
5.22017  1.45441e+22
5.33748  1.4586e+22
5.45478  1.46045e+22
5.57209  1.45936e+22
5.68939  1.45493e+22
5.8067  1.44703e+22
5.924  1.43571e+22
6.0413  1.42139e+22
6.15861  1.40455e+22
6.27591  1.38592e+22
6.39322  1.36633e+22
6.51052  1.34655e+22
6.62783  1.3273e+22
6.74514  1.3093e+22
6.86244  1.29302e+22
6.97975  1.27879e+22
7.09705  1.26681e+22
7.21436  1.257e+22
7.33166  1.24924e+22
7.44897  1.24326e+22
7.56627  1.23875e+22
7.68358  1.23529e+22
7.80088  1.23258e+22
7.91819  1.23028e+22
8.03549  1.2282e+22
8.1528  1.22615e+22
8.2701  1.22403e+22
8.38741  1.22184e+22
8.50471  1.21964e+22
8.62202  1.21743e+22
8.73932  1.21529e+22
8.85662  1.21324e+22
8.97393  1.21125e+22
9.09123  1.20921e+22
9.20854  1.20703e+22
9.32584  1.20453e+22
9.44315  1.20138e+22
9.56045  1.19738e+22
9.67776  1.19227e+22
9.79506  1.18574e+22
9.91237  1.17768e+22
10.0297  1.16798e+22
10.147  1.15666e+22
10.2643  1.14387e+22
10.3816  1.12985e+22
10.4989  1.11505e+22
10.6162  1.09986e+22
10.7335  1.08482e+22
10.8508  1.07037e+22
10.9681  1.05696e+22
11.0854  1.0449e+22
11.2027  1.03436e+22
11.32  1.02534e+22
11.4373  1.01779e+22
11.5546  1.01149e+22
11.6719  1.00613e+22
11.7893  1.00141e+22
11.9066  9.96879e+21
12.0239  9.9223e+21
12.1412  9.87232e+21
12.2585  9.81672e+21
12.3758  9.75468e+21
12.4931  9.68685e+21
12.6104  9.61441e+21
12.7277  9.54012e+21
12.845  9.46666e+21
12.9623  9.39636e+21
13.0796  9.33238e+21
13.1969  9.27577e+21
13.3142  9.2268e+21
13.4315  9.18444e+21
13.5488  9.14651e+21
13.6661  9.10941e+21
13.7834  9.06909e+21
13.9007  9.02186e+21
14.018  8.96438e+21
14.1354  8.89327e+21
14.2527  8.80786e+21
14.37  8.70818e+21
14.4873  8.59524e+21
14.6046  8.47232e+21
14.7219  8.34279e+21
14.8392  8.21084e+21
14.9565  8.08085e+21
15.0738  7.9562e+21
15.1911  7.84102e+21
15.3084  7.73689e+21
15.4257  7.64528e+21
15.543  7.56574e+21
15.6603  7.49684e+21
15.7776  7.43593e+21
15.8949  7.3788e+21
16.0122  7.32108e+21
16.1295  7.25812e+21
16.2468  7.18587e+21
16.3641  7.1008e+21
16.4815  7.00107e+21
16.5988  6.8856e+21
16.7161  6.7551e+21
16.8334  6.61292e+21
16.9507  6.46219e+21
17.068  6.30801e+21
17.1853  6.15563e+21
17.3026  6.01031e+21
17.4199  5.87726e+21
17.5372  5.76057e+21
17.6545  5.66254e+21
17.7718  5.58545e+21
17.8891  5.5286e+21
18.0064  5.49075e+21
18.1237  5.46869e+21
18.241  5.45867e+21
18.3583  5.45606e+21
18.4756  5.45588e+21
18.5929  5.45368e+21
18.7102  5.44544e+21
18.8275  5.42765e+21
18.9449  5.39885e+21
19.0622  5.35806e+21
19.1795  5.30546e+21
19.2968  5.24265e+21
19.4141  5.17128e+21
19.5314  5.09391e+21
19.6487  5.0124e+21
19.766  4.92865e+21
19.8833  4.84427e+21
20.0006  4.75973e+21
20.1179  4.67545e+21
20.2352  4.59108e+21
20.3525  4.506e+21
20.4698  4.41945e+21
20.5871  4.33039e+21
20.7044  4.23824e+21
20.8217  4.14253e+21
20.939  4.0436e+21
21.0563  3.94211e+21
21.1736  3.8394e+21
21.291  3.73723e+21
21.4083  3.63739e+21
21.5256  3.5427e+21
21.6429  3.4549e+21
21.7602  3.37595e+21
21.8775  3.3069e+21
21.9948  3.24826e+21
22.1121  3.1997e+21
22.2294  3.16029e+21
22.3467  3.12811e+21
22.464  3.10173e+21
22.5813  3.07876e+21
22.6986  3.05773e+21
22.8159  3.03683e+21
22.9332  3.01519e+21
23.0505  2.99219e+21
23.1678  2.96771e+21
23.2851  2.94187e+21
23.4024  2.91506e+21
23.5198  2.88779e+21
23.6371  2.86074e+21
23.7544  2.83435e+21
23.8717  2.80871e+21
23.989  2.78403e+21
24.1063  2.76003e+21
24.2236  2.7361e+21
24.3409  2.71102e+21
24.4582  2.68383e+21
24.5755  2.65303e+21
24.6928  2.61717e+21
24.8101  2.57528e+21
24.9274  2.52676e+21
25.0447  2.47147e+21
25.162  2.4102e+21
25.2793  2.34402e+21
25.3966  2.27472e+21
25.5139  2.20415e+21
25.6312  2.13445e+21
25.7485  2.06763e+21
25.8658  2.00524e+21
25.9832  1.94858e+21
26.1005  1.89788e+21
26.2178  1.85354e+21
26.3351  1.81492e+21
26.4524  1.78109e+21
26.5697  1.7508e+21
26.687  1.72262e+21
26.8043  1.69513e+21
26.9216  1.66718e+21
27.0389  1.63794e+21
27.1562  1.60719e+21
27.2735  1.57501e+21
27.3908  1.54239e+21
27.5081  1.5103e+21
27.6254  1.48004e+21
27.7427  1.45287e+21
27.86  1.42975e+21
27.9773  1.41115e+21
28.0946  1.39711e+21
28.212  1.3872e+21
28.3293  1.38069e+21
28.4466  1.37653e+21
28.5639  1.37375e+21
28.6812  1.37123e+21
28.7985  1.36832e+21
28.9158  1.36415e+21
29.0331  1.35821e+21
29.1504  1.35016e+21
29.2677  1.33966e+21
29.385  1.32648e+21
29.5023  1.31062e+21
29.6196  1.29225e+21
29.7369  1.27159e+21
29.8542  1.2491e+21
29.9715  1.22518e+21
30.0888  1.20032e+21
30.2061  1.17476e+21
30.3234  1.14864e+21
30.4407  1.12187e+21
30.558  1.09437e+21
30.6754  1.06579e+21
30.7927  1.0359e+21
30.91  1.0047e+21
31.0273  9.7226e+20
31.1446  9.38825e+20
31.2619  9.05003e+20
31.3792  8.71463e+20
31.4965  8.38911e+20
31.6138  8.08262e+20
31.7311  7.80281e+20
31.8484  7.55783e+20
31.9657  7.35316e+20
32.083  7.19403e+20
32.2003  7.08112e+20
32.3176  7.01156e+20
32.4349  6.98007e+20
32.5522  6.97554e+20
32.6695  6.98565e+20
32.7868  6.99648e+20
32.9042  6.99454e+20
33.0215  6.9713e+20
33.1388  6.92116e+20
33.2561  6.84717e+20
33.3734  6.75475e+20
33.4907  6.65612e+20
33.608  6.56577e+20
33.7253  6.49497e+20
33.8426  6.45559e+20
33.9599  6.45405e+20
34.0772  6.49207e+20
34.1945  6.56794e+20
34.3118  6.67475e+20
34.4291  6.80547e+20
34.5464  6.94921e+20
34.6637  7.0964e+20
34.781  7.23848e+20
34.8983  7.36679e+20
35.0156  7.47614e+20
35.1329  7.56384e+20
35.2503  7.62953e+20
35.3676  7.67678e+20
35.4849  7.71368e+20
35.6022  7.75059e+20
35.7195  7.79579e+20
35.8368  7.85694e+20
35.9541  7.93664e+20
36.0714  8.02765e+20
36.1887  8.11992e+20
36.306  8.19466e+20
36.4233  8.2269e+20
36.5406  8.19654e+20
36.6579  8.08599e+20
36.7752  7.8857e+20
36.8925  7.59534e+20
37.0098  7.22821e+20
37.1271  6.80501e+20
37.2444  6.3532e+20
37.3617  5.90168e+20
37.479  5.47969e+20
37.5964  5.10944e+20
37.7137  4.80545e+20
37.831  4.57676e+20
37.9483  4.42205e+20
38.0656  4.3373e+20
38.1829  4.31147e+20
38.3002  4.33177e+20
38.4175  4.38232e+20
38.5348  4.44806e+20
38.6521  4.51403e+20
38.7694  4.56548e+20
38.8867  4.59217e+20
39.004  4.58722e+20
39.1213  4.54921e+20
39.2386  4.48236e+20
39.3559  4.39596e+20
39.4732  4.30477e+20
39.5905  4.2251e+20
39.7078  4.17503e+20
39.8251  4.16922e+20
39.9425  4.21545e+20
40.0598  4.31927e+20
40.1771  4.47303e+20
40.2944  4.66916e+20
40.4117  4.89086e+20
40.529  5.12017e+20
40.6463  5.33647e+20
40.7636  5.52305e+20
40.8809  5.66637e+20
40.9982  5.75605e+20
41.1155  5.78868e+20
41.2328  5.76774e+20
41.3501  5.70218e+20
41.4674  5.60433e+20
41.5847  5.49073e+20
41.702  5.37854e+20
41.8193  5.28022e+20
41.9366  5.2096e+20
42.0539  5.16984e+20
42.1712  5.16146e+20
42.2885  5.17822e+20
42.4059  5.20738e+20
42.5232  5.23729e+20
42.6405  5.25243e+20
42.7578  5.2456e+20
42.8751  5.21006e+20
42.9924  5.14671e+20
43.1097  5.06417e+20
43.227  4.97372e+20
43.3443  4.89055e+20
43.4616  4.82968e+20
43.5789  4.80481e+20
43.6962  4.82644e+20
43.8135  4.89807e+20
43.9308  5.01996e+20
44.0481  5.18291e+20
44.1654  5.37543e+20
44.2827  5.5801e+20
44.4  5.77678e+20
44.5173  5.94369e+20
44.6347  6.06174e+20
44.752  6.114e+20
44.8693  6.08645e+20
44.9866  5.97411e+20
45.1039  5.7806e+20
45.2212  5.51469e+20
45.3385  5.19314e+20
45.4558  4.83979e+20
45.5731  4.47684e+20
45.6904  4.12727e+20
45.8077  3.81044e+20
45.925  3.53882e+20
46.0423  3.31857e+20
46.1596  3.14787e+20
46.2769  3.02087e+20
46.3942  2.92796e+20
46.5115  2.85814e+20
46.6288  2.80216e+20
46.7461  2.75216e+20
46.8634  2.7035e+20
46.9808  2.6543e+20
47.0981  2.60643e+20
47.2154  2.56192e+20
47.3327  2.52422e+20
47.45  2.49712e+20
47.5673  2.48495e+20
47.6846  2.49117e+20
47.8019  2.52013e+20
47.9192  2.5735e+20
48.0365  2.65299e+20
48.1538  2.7577e+20
48.2711  2.88449e+20
48.3884  3.02773e+20
48.5057  3.17887e+20
48.623  3.32891e+20
48.7403  3.46693e+20
48.8576  3.58418e+20
48.9749  3.67238e+20
49.0922  3.72617e+20
49.2095  3.7441e+20
49.3269  3.72894e+20
49.4442  3.68574e+20
49.5615  3.62215e+20
49.6788  3.54707e+20
49.7961  3.47074e+20
49.9134  3.40025e+20
50.0307  3.34187e+20
50.148  3.2982e+20
50.2653  3.26678e+20
50.3826  3.24233e+20
50.4999  3.21636e+20
50.6172  3.17854e+20
50.7345  3.11848e+20
50.8518  3.02915e+20
