#S 1 spectral density
#N 2
#UFWHM 38.3587
#L  abscissas [um]  spectral density
-58.5938  2.02517e+18
-58.4764  3.20974e+18
-58.3591  4.98044e+18
-58.2418  6.81736e+18
-58.1245  8.26658e+18
-58.0072  9.08474e+18
-57.8899  9.19538e+18
-57.7726  8.74903e+18
-57.6553  7.95491e+18
-57.538  7.04415e+18
-57.4207  6.1628e+18
-57.3034  5.3582e+18
-57.1861  4.60258e+18
-57.0688  3.84943e+18
-56.9515  3.11965e+18
-56.8342  2.51113e+18
-56.7169  2.21407e+18
-56.5996  2.44081e+18
-56.4823  3.34391e+18
-56.365  4.9464e+18
-56.2477  7.09396e+18
-56.1303  9.46848e+18
-56.013  1.16785e+19
-55.8957  1.33707e+19
-55.7784  1.42911e+19
-55.6611  1.44309e+19
-55.5438  1.39659e+19
-55.4265  1.32313e+19
-55.3092  1.26036e+19
-55.1919  1.23864e+19
-55.0746  1.2735e+19
-54.9573  1.35732e+19
-54.84  1.47082e+19
-54.7227  1.58172e+19
-54.6054  1.66408e+19
-54.4881  1.69773e+19
-54.3708  1.67769e+19
-54.2535  1.61841e+19
-54.1362  1.53713e+19
-54.0189  1.45083e+19
-53.9016  1.37256e+19
-53.7842  1.30499e+19
-53.6669  1.23928e+19
-53.5496  1.1659e+19
-53.4323  1.07955e+19
-53.315  9.81384e+18
-53.1977  8.8453e+18
-53.0804  8.095e+18
-52.9631  7.75682e+18
-52.8458  7.94275e+18
-52.7285  8.63503e+18
-52.6112  9.65633e+18
-52.4939  1.07173e+19
-52.3766  1.1464e+19
-52.2593  1.16406e+19
-52.142  1.11059e+19
-52.0247  9.92251e+18
-51.9074  8.33127e+18
-51.7901  6.67748e+18
-51.6728  5.29857e+18
-51.5555  4.43567e+18
-51.4381  4.19444e+18
-51.3208  4.47622e+18
-51.2035  5.05822e+18
-51.0862  5.63862e+18
-50.9689  5.96965e+18
-50.8516  5.89362e+18
-50.7343  5.39188e+18
-50.617  4.56136e+18
-50.4997  3.5967e+18
-50.3824  2.69931e+18
-50.2651  2.0264e+18
-50.1478  1.65867e+18
-50.0305  1.59481e+18
-49.9132  1.76828e+18
-49.7959  2.08825e+18
-49.6786  2.48046e+18
-49.5613  2.91728e+18
-49.444  3.40833e+18
-49.3267  4.00166e+18
-49.2094  4.74486e+18
-49.092  5.66621e+18
-48.9747  6.76547e+18
-48.8574  8.00459e+18
-48.7401  9.3006e+18
-48.6228  1.05684e+19
-48.5055  1.16981e+19
-48.3882  1.25735e+19
-48.2709  1.31015e+19
-48.1536  1.32036e+19
-48.0363  1.28195e+19
-47.919  1.19481e+19
-47.8017  1.06392e+19
-47.6844  9.0464e+18
-47.5671  7.36662e+18
-47.4498  5.85108e+18
-47.3325  4.75042e+18
-47.2152  4.24336e+18
-47.0979  4.39098e+18
-46.9806  5.09875e+18
-46.8633  6.13091e+18
-46.7459  7.1884e+18
-46.6286  7.95067e+18
-46.5113  8.17285e+18
-46.394  7.79448e+18
-46.2767  6.93174e+18
-46.1594  5.88892e+18
-46.0421  5.06758e+18
-45.9248  4.84693e+18
-45.8075  5.49472e+18
-45.6902  7.07252e+18
-45.5729  9.4088e+18
-45.4556  1.21514e+19
-45.3383  1.48139e+19
-45.221  1.69555e+19
-45.1037  1.82452e+19
-44.9864  1.85304e+19
-44.8691  1.7908e+19
-44.7518  1.66319e+19
-44.6345  1.50613e+19
-44.5172  1.35587e+19
-44.3998  1.2405e+19
-44.2825  1.17737e+19
-44.1652  1.16953e+19
-44.0479  1.21171e+19
-43.9306  1.29625e+19
-43.8133  1.42004e+19
-43.696  1.58084e+19
-43.5787  1.78433e+19
-43.4614  2.03532e+19
-43.3441  2.33246e+19
-43.2268  2.66828e+19
-43.1095  3.02142e+19
-42.9922  3.36342e+19
-42.8749  3.6595e+19
-42.7576  3.87825e+19
-42.6403  3.99641e+19
-42.523  4.00389e+19
-42.4057  3.9056e+19
-42.2884  3.72059e+19
-42.171  3.47279e+19
-42.0537  3.18923e+19
-41.9364  2.8942e+19
-41.8191  2.60327e+19
-41.7018  2.33014e+19
-41.5845  2.08108e+19
-41.4672  1.8627e+19
-41.3499  1.6794e+19
-41.2326  1.53553e+19
-41.1153  1.43687e+19
-40.998  1.38188e+19
-40.8807  1.36914e+19
-40.7634  1.38738e+19
-40.6461  1.42597e+19
-40.5288  1.47003e+19
-40.4115  1.51209e+19
-40.2942  1.55168e+19
-40.1769  1.58786e+19
-40.0596  1.62776e+19
-39.9423  1.67632e+19
-39.825  1.7349e+19
-39.7076  1.79802e+19
-39.5903  1.84827e+19
-39.473  1.86604e+19
-39.3557  1.83431e+19
-39.2384  1.7436e+19
-39.1211  1.59822e+19
-39.0038  1.41776e+19
-38.8865  1.23176e+19
-38.7692  1.07461e+19
-38.6519  9.76285e+18
-38.5346  9.48774e+18
-38.4173  9.91153e+18
-38.3  1.08479e+19
-38.1827  1.2024e+19
-38.0654  1.32004e+19
-37.9481  1.42324e+19
-37.8308  1.51723e+19
-37.7135  1.6211e+19
-37.5962  1.76103e+19
-37.4789  1.96386e+19
-37.3615  2.23859e+19
-37.2442  2.56921e+19
-37.1269  2.92058e+19
-37.0096  3.23117e+19
-36.8923  3.4467e+19
-36.775  3.51686e+19
-36.6577  3.42608e+19
-36.5404  3.19366e+19
-36.4231  2.86312e+19
-36.3058  2.5094e+19
-36.1885  2.20067e+19
-36.0712  1.99445e+19
-35.9539  1.91303e+19
-35.8366  1.9487e+19
-35.7193  2.06484e+19
-35.602  2.20854e+19
-35.4847  2.33074e+19
-35.3674  2.39918e+19
-35.2501  2.40995e+19
-35.1328  2.39083e+19
-35.0154  2.3833e+19
-34.8981  2.44318e+19
-34.7808  2.60678e+19
-34.6635  2.89682e+19
-34.5462  3.30636e+19
-34.4289  3.80987e+19
-34.3116  4.36136e+19
-34.1943  4.92065e+19
-34.077  5.45126e+19
-33.9597  5.93031e+19
-33.8424  6.35483e+19
-33.7251  6.7332e+19
-33.6078  7.08139e+19
-33.4905  7.42178e+19
-33.3732  7.76928e+19
-33.2559  8.14262e+19
-33.1386  8.55391e+19
-33.0213  9.0201e+19
-32.904  9.56024e+19
-32.7867  1.01779e+20
-32.6693  1.08785e+20
-32.552  1.16503e+20
-32.4347  1.24585e+20
-32.3174  1.32663e+20
-32.2001  1.40045e+20
-32.0828  1.46156e+20
-31.9655  1.50461e+20
-31.8482  1.52525e+20
-31.7309  1.52396e+20
-31.6136  1.50102e+20
-31.4963  1.46108e+20
-31.379  1.40864e+20
-31.2617  1.34988e+20
-31.1444  1.28949e+20
-31.0271  1.23056e+20
-30.9098  1.17571e+20
-30.7925  1.12615e+20
-30.6752  1.08268e+20
-30.5579  1.0458e+20
-30.4406  1.01606e+20
-30.3232  9.94204e+19
-30.2059  9.8009e+19
-30.0886  9.75661e+19
-29.9713  9.81374e+19
-29.854  9.98386e+19
-29.7367  1.02845e+20
-29.6194  1.07396e+20
-29.5021  1.13744e+20
-29.3848  1.22196e+20
-29.2675  1.329e+20
-29.1502  1.45978e+20
-29.0329  1.61224e+20
-28.9156  1.78221e+20
-28.7983  1.96226e+20
-28.681  2.14525e+20
-28.5637  2.32245e+20
-28.4464  2.48798e+20
-28.3291  2.63794e+20
-28.2118  2.773e+20
-28.0944  2.89823e+20
-27.9771  3.02094e+20
-27.8598  3.15205e+20
-27.7425  3.30094e+20
-27.6252  3.47807e+20
-27.5079  3.69136e+20
-27.3906  3.94557e+20
-27.2733  4.24244e+20
-27.156  4.58236e+20
-27.0387  4.9613e+20
-26.9214  5.37468e+20
-26.8041  5.81481e+20
-26.6868  6.27411e+20
-26.5695  6.74191e+20
-26.4522  7.20769e+20
-26.3349  7.6619e+20
-26.2176  8.09713e+20
-26.1003  8.50533e+20
-25.983  8.88437e+20
-25.8657  9.23457e+20
-25.7483  9.56012e+20
-25.631  9.86928e+20
-25.5137  1.01695e+21
-25.3964  1.04702e+21
-25.2791  1.07799e+21
-25.1618  1.11064e+21
-25.0445  1.14533e+21
-24.9272  1.18253e+21
-24.8099  1.22202e+21
-24.6926  1.26368e+21
-24.5753  1.30748e+21
-24.458  1.35269e+21
-24.3407  1.39893e+21
-24.2234  1.4459e+21
-24.1061  1.4931e+21
-23.9888  1.54037e+21
-23.8715  1.58781e+21
-23.7542  1.6359e+21
-23.6369  1.68502e+21
-23.5196  1.73591e+21
-23.4023  1.78994e+21
-23.2849  1.84773e+21
-23.1676  1.91015e+21
-23.0503  1.978e+21
-22.933  2.0515e+21
-22.8157  2.13076e+21
-22.6984  2.21578e+21
-22.5811  2.30654e+21
-22.4638  2.40318e+21
-22.3465  2.50551e+21
-22.2292  2.61437e+21
-22.1119  2.72988e+21
-21.9946  2.85288e+21
-21.8773  2.98397e+21
-21.76  3.12329e+21
-21.6427  3.27153e+21
-21.5254  3.42863e+21
-21.4081  3.59428e+21
-21.2908  3.76775e+21
-21.1735  3.94832e+21
-21.0561  4.13479e+21
-20.9388  4.32616e+21
-20.8215  4.52169e+21
-20.7042  4.71944e+21
-20.5869  4.91887e+21
-20.4696  5.11937e+21
-20.3523  5.32048e+21
-20.235  5.52255e+21
-20.1177  5.72599e+21
-20.0004  5.93211e+21
-19.8831  6.14326e+21
-19.7658  6.36062e+21
-19.6485  6.58674e+21
-19.5312  6.82313e+21
-19.4139  7.07142e+21
-19.2966  7.33182e+21
-19.1793  7.60403e+21
-19.062  7.88648e+21
-18.9447  8.17654e+21
-18.8274  8.47037e+21
-18.71  8.76435e+21
-18.5927  9.05333e+21
-18.4754  9.33269e+21
-18.3581  9.59837e+21
-18.2408  9.84633e+21
-18.1235  1.00737e+22
-18.0062  1.0279e+22
-17.8889  1.04618e+22
-17.7716  1.06236e+22
-17.6543  1.07659e+22
-17.537  1.0893e+22
-17.4197  1.10081e+22
-17.3024  1.11164e+22
-17.1851  1.12221e+22
-17.0678  1.13287e+22
-16.9505  1.14405e+22
-16.8332  1.15596e+22
-16.7159  1.16875e+22
-16.5986  1.18243e+22
-16.4813  1.19696e+22
-16.364  1.21217e+22
-16.2466  1.22789e+22
-16.1293  1.24399e+22
-16.012  1.26011e+22
-15.8947  1.2761e+22
-15.7774  1.29178e+22
-15.6601  1.30695e+22
-15.5428  1.32153e+22
-15.4255  1.33537e+22
-15.3082  1.34843e+22
-15.1909  1.3608e+22
-15.0736  1.37237e+22
-14.9563  1.38328e+22
-14.839  1.39355e+22
-14.7217  1.40329e+22
-14.6044  1.41251e+22
-14.4871  1.42127e+22
-14.3698  1.42959e+22
-14.2525  1.43745e+22
-14.1352  1.44475e+22
-14.0178  1.45154e+22
-13.9005  1.4577e+22
-13.7832  1.46316e+22
-13.6659  1.46795e+22
-13.5486  1.47192e+22
-13.4313  1.4751e+22
-13.314  1.47738e+22
-13.1967  1.47873e+22
-13.0794  1.47912e+22
-12.9621  1.4784e+22
-12.8448  1.47661e+22
-12.7275  1.47369e+22
-12.6102  1.46969e+22
-12.4929  1.46464e+22
-12.3756  1.45866e+22
-12.2583  1.45193e+22
-12.141  1.44467e+22
-12.0237  1.43707e+22
-11.9064  1.42934e+22
-11.7891  1.42167e+22
-11.6718  1.4142e+22
-11.5544  1.40709e+22
-11.4371  1.40046e+22
-11.3198  1.39427e+22
-11.2025  1.38856e+22
-11.0852  1.38326e+22
-10.9679  1.37825e+22
-10.8506  1.37339e+22
-10.7333  1.36847e+22
-10.616  1.36325e+22
-10.4987  1.35759e+22
-10.3814  1.35121e+22
-10.2641  1.34398e+22
-10.1468  1.33583e+22
-10.0295  1.32674e+22
-9.91217  1.31675e+22
-9.79487  1.30606e+22
-9.67756  1.29491e+22
-9.56026  1.28358e+22
-9.44295  1.27238e+22
-9.32565  1.26175e+22
-9.20834  1.25198e+22
-9.09104  1.24341e+22
-8.97373  1.23637e+22
-8.85643  1.23099e+22
-8.73913  1.22744e+22
-8.62182  1.22568e+22
-8.50452  1.22559e+22
-8.38721  1.227e+22
-8.26991  1.22947e+22
-8.1526  1.23266e+22
-8.03529  1.23605e+22
-7.91799  1.23915e+22
-7.80069  1.24143e+22
-7.68338  1.24242e+22
-7.56608  1.24178e+22
-7.44877  1.23924e+22
-7.33146  1.23467e+22
-7.21416  1.22803e+22
-7.09685  1.21947e+22
-6.97955  1.20924e+22
-6.86224  1.19775e+22
-6.74494  1.18547e+22
-6.62763  1.17289e+22
-6.51033  1.16056e+22
-6.39302  1.149e+22
-6.27572  1.13868e+22
-6.15842  1.12997e+22
-6.04111  1.12312e+22
-5.92381  1.1183e+22
-5.8065  1.11556e+22
-5.68919  1.11482e+22
-5.57189  1.11592e+22
-5.45458  1.11866e+22
-5.33728  1.12275e+22
-5.21997  1.12791e+22
-5.10267  1.13384e+22
-4.98536  1.14026e+22
-4.86806  1.14695e+22
-4.75075  1.1537e+22
-4.63345  1.16044e+22
-4.51614  1.16712e+22
-4.39884  1.17379e+22
-4.28154  1.18057e+22
-4.16423  1.1876e+22
-4.04692  1.19508e+22
-3.92962  1.20314e+22
-3.81231  1.21188e+22
-3.69501  1.22137e+22
-3.5777  1.23148e+22
-3.4604  1.24208e+22
-3.34309  1.25288e+22
-3.22579  1.26353e+22
-3.10849  1.27362e+22
-2.99118  1.28273e+22
-2.87387  1.29046e+22
-2.75657  1.2965e+22
-2.63926  1.30062e+22
-2.52196  1.30268e+22
-2.40465  1.30271e+22
-2.28735  1.30086e+22
-2.17005  1.29742e+22
-2.05274  1.29277e+22
-1.93544  1.28735e+22
-1.81813  1.28167e+22
-1.70083  1.2762e+22
-1.58352  1.27142e+22
-1.46622  1.26773e+22
-1.34891  1.26543e+22
-1.2316  1.26472e+22
-1.1143  1.26566e+22
-0.996995  1.26818e+22
-0.87969  1.27209e+22
-0.762385  1.27704e+22
-0.64508  1.28262e+22
-0.527775  1.28834e+22
-0.41047  1.29371e+22
-0.293165  1.29822e+22
-0.17586  1.30147e+22
-0.058555  1.30317e+22
0.05875  1.30313e+22
0.176055  1.30138e+22
0.29336  1.29806e+22
0.410665  1.29349e+22
0.52797  1.28808e+22
0.645275  1.28232e+22
0.76258  1.27671e+22
0.879885  1.27174e+22
0.99719  1.26783e+22
1.1145  1.26531e+22
1.2318  1.26438e+22
1.3491  1.2651e+22
1.46641  1.26741e+22
1.58371  1.27111e+22
1.70102  1.27591e+22
1.81832  1.2814e+22
1.93563  1.2871e+22
2.05294  1.29253e+22
2.17024  1.29719e+22
2.28754  1.30063e+22
2.40485  1.30247e+22
2.52216  1.30244e+22
2.63946  1.30036e+22
2.75677  1.29625e+22
2.87407  1.2902e+22
2.99137  1.28245e+22
3.10868  1.27334e+22
3.22599  1.26325e+22
3.34329  1.25262e+22
3.4606  1.24185e+22
3.5779  1.23126e+22
3.69521  1.22118e+22
3.81251  1.21174e+22
3.92982  1.20303e+22
4.04712  1.19501e+22
4.16443  1.18757e+22
4.28173  1.18058e+22
4.39903  1.17383e+22
4.51634  1.16718e+22
4.63364  1.16054e+22
4.75095  1.15382e+22
4.86825  1.14708e+22
4.98556  1.14043e+22
5.10286  1.13401e+22
5.22017  1.12812e+22
5.33748  1.12296e+22
5.45478  1.11889e+22
5.57209  1.11618e+22
5.68939  1.11508e+22
5.8067  1.11586e+22
5.924  1.11862e+22
6.0413  1.12346e+22
6.15861  1.13032e+22
6.27591  1.13905e+22
6.39322  1.14939e+22
6.51052  1.16096e+22
6.62783  1.17328e+22
6.74514  1.18584e+22
6.86244  1.1981e+22
6.97975  1.20954e+22
7.09705  1.21973e+22
7.21436  1.22825e+22
7.33166  1.23483e+22
7.44897  1.23939e+22
7.56627  1.2419e+22
7.68358  1.2425e+22
7.80088  1.24148e+22
7.91819  1.23922e+22
8.03549  1.23618e+22
8.1528  1.23287e+22
8.2701  1.22974e+22
8.38741  1.22735e+22
8.50471  1.22608e+22
8.62202  1.22626e+22
8.73932  1.22815e+22
8.85662  1.23183e+22
8.97393  1.2373e+22
9.09123  1.24445e+22
9.20854  1.25306e+22
9.32584  1.2629e+22
9.44315  1.27356e+22
9.56045  1.28473e+22
9.67776  1.29605e+22
9.79506  1.30713e+22
9.91237  1.31777e+22
10.0297  1.32766e+22
10.147  1.33667e+22
10.2643  1.34476e+22
10.3816  1.35186e+22
10.4989  1.35817e+22
10.6162  1.36377e+22
10.7335  1.36892e+22
10.8508  1.37378e+22
10.9681  1.37862e+22
11.0854  1.38364e+22
11.2027  1.38895e+22
11.32  1.39466e+22
11.4373  1.40084e+22
11.5546  1.40751e+22
11.6719  1.41462e+22
11.7893  1.42209e+22
11.9066  1.42978e+22
12.0239  1.43749e+22
12.1412  1.44509e+22
12.2585  1.45233e+22
12.3758  1.45899e+22
12.4931  1.46491e+22
12.6104  1.46988e+22
12.7277  1.47385e+22
12.845  1.47673e+22
12.9623  1.47844e+22
13.0796  1.47907e+22
13.1969  1.47866e+22
13.3142  1.47723e+22
13.4315  1.47488e+22
13.5488  1.47168e+22
13.6661  1.46765e+22
13.7834  1.46283e+22
13.9007  1.4573e+22
14.018  1.45114e+22
14.1354  1.44431e+22
14.2527  1.43694e+22
14.37  1.42906e+22
14.4873  1.4207e+22
14.6046  1.41191e+22
14.7219  1.40264e+22
14.8392  1.39288e+22
14.9565  1.38257e+22
15.0738  1.37161e+22
15.1911  1.35999e+22
15.3084  1.3476e+22
15.4257  1.33447e+22
15.543  1.32056e+22
15.6603  1.30593e+22
15.7776  1.29071e+22
15.8949  1.275e+22
16.0122  1.25892e+22
16.1295  1.24273e+22
16.2468  1.22663e+22
16.3641  1.21085e+22
16.4815  1.1956e+22
16.5988  1.18105e+22
16.7161  1.16735e+22
16.8334  1.15456e+22
16.9507  1.14265e+22
17.068  1.13145e+22
17.1853  1.12075e+22
17.3026  1.11016e+22
17.4199  1.09934e+22
17.5372  1.0878e+22
17.6545  1.07506e+22
17.7718  1.06077e+22
17.8891  1.04459e+22
18.0064  1.02623e+22
18.1237  1.00566e+22
18.241  9.82894e+21
18.3583  9.58078e+21
18.4756  9.31486e+21
18.5929  9.03534e+21
18.7102  8.74673e+21
18.8275  8.45303e+21
18.9449  8.15939e+21
19.0622  7.87002e+21
19.1795  7.58827e+21
19.2968  7.31676e+21
19.4141  7.0571e+21
19.5314  6.80976e+21
19.6487  6.57415e+21
19.766  6.34872e+21
19.8833  6.13203e+21
20.0006  5.92158e+21
20.1179  5.71578e+21
20.2352  5.51264e+21
20.3525  5.31083e+21
20.4698  5.11004e+21
20.5871  4.90985e+21
20.7044  4.71032e+21
20.8217  4.51254e+21
20.939  4.31745e+21
21.0563  4.12604e+21
21.1736  3.93974e+21
21.291  3.75935e+21
21.4083  3.58606e+21
21.5256  3.42084e+21
21.6429  3.26414e+21
21.7602  3.1162e+21
21.8775  2.97714e+21
21.9948  2.84643e+21
22.1121  2.72396e+21
22.2294  2.60891e+21
22.3467  2.5004e+21
22.464  2.39834e+21
22.5813  2.3021e+21
22.6986  2.21156e+21
22.8159  2.12671e+21
22.9332  2.0477e+21
23.0505  1.97441e+21
23.1678  1.90668e+21
23.2851  1.8443e+21
23.4024  1.78671e+21
23.5198  1.73275e+21
23.6371  1.68174e+21
23.7544  1.63268e+21
23.8717  1.58465e+21
23.989  1.53716e+21
24.1063  1.48993e+21
24.2236  1.44287e+21
24.3409  1.3961e+21
24.4582  1.34989e+21
24.5755  1.30492e+21
24.6928  1.26134e+21
24.8101  1.21979e+21
24.9274  1.18044e+21
25.0447  1.14347e+21
25.162  1.109e+21
25.2793  1.07658e+21
25.3966  1.04565e+21
25.5139  1.0156e+21
25.6312  9.85572e+20
25.7485  9.54658e+20
25.8658  9.22048e+20
25.9832  8.86979e+20
26.1005  8.48879e+20
26.2178  8.08069e+20
26.3351  7.6456e+20
26.4524  7.19057e+20
26.5697  6.72479e+20
26.687  6.25755e+20
26.8043  5.79942e+20
26.9216  5.36057e+20
27.0389  4.94796e+20
27.1562  4.57088e+20
27.2735  4.23251e+20
27.3908  3.93763e+20
27.5081  3.68499e+20
27.6254  3.47311e+20
27.7427  3.29707e+20
27.86  3.1489e+20
27.9773  3.01837e+20
28.0946  2.89533e+20
28.212  2.76996e+20
28.3293  2.63407e+20
28.4466  2.48369e+20
28.5639  2.3172e+20
28.6812  2.13973e+20
28.7985  1.95655e+20
28.9158  1.7765e+20
29.0331  1.60693e+20
29.1504  1.45511e+20
29.2677  1.32515e+20
29.385  1.21855e+20
29.5023  1.13461e+20
29.6196  1.07163e+20
29.7369  1.02671e+20
29.8542  9.97106e+19
29.9715  9.80241e+19
30.0888  9.75101e+19
30.2061  9.79809e+19
30.3234  9.93726e+19
30.4407  1.01618e+20
30.558  1.04601e+20
30.6754  1.08313e+20
30.7927  1.12662e+20
30.91  1.17625e+20
31.0273  1.23124e+20
31.1446  1.2905e+20
31.2619  1.35116e+20
31.3792  1.41016e+20
31.4965  1.46214e+20
31.6138  1.50143e+20
31.7311  1.52404e+20
31.8484  1.52495e+20
31.9657  1.50332e+20
32.083  1.45985e+20
32.2003  1.3984e+20
32.3176  1.32422e+20
32.4349  1.2434e+20
32.5522  1.16257e+20
32.6695  1.08564e+20
32.7868  1.01542e+20
32.9042  9.54065e+19
33.0215  9.0042e+19
33.1388  8.5374e+19
33.2561  8.12873e+19
33.3734  7.75664e+19
33.4907  7.4111e+19
33.608  7.07175e+19
33.7253  6.72224e+19
33.8426  6.3443e+19
33.9599  5.91602e+19
34.0772  5.435e+19
34.1945  4.90464e+19
34.3118  4.3452e+19
34.4291  3.79237e+19
34.5464  3.28953e+19
34.6637  2.8817e+19
34.781  2.59408e+19
34.8983  2.43329e+19
35.0156  2.37667e+19
35.1329  2.383e+19
35.2503  2.40162e+19
35.3676  2.38681e+19
35.4849  2.31661e+19
35.6022  2.1938e+19
35.7195  2.04974e+19
35.8368  1.93615e+19
35.9541  1.90399e+19
36.0714  1.98937e+19
36.1887  2.20157e+19
36.306  2.51314e+19
36.4233  2.86809e+19
36.5406  3.19553e+19
36.6579  3.42525e+19
36.7752  3.50864e+19
36.8925  3.43309e+19
37.0098  3.21515e+19
37.1271  2.90263e+19
37.2444  2.55283e+19
37.3617  2.22422e+19
37.479  1.95532e+19
37.5964  1.75576e+19
37.7137  1.61952e+19
37.831  1.51783e+19
37.9483  1.42543e+19
38.0656  1.32173e+19
38.1829  1.20379e+19
38.3002  1.08697e+19
38.4175  9.94941e+18
38.5348  9.54357e+18
38.6521  9.83843e+18
38.7694  1.08541e+19
38.8867  1.24287e+19
39.004  1.42827e+19
39.1213  1.60724e+19
39.2386  1.75135e+19
39.3559  1.84062e+19
39.4732  1.8696e+19
39.5905  1.84936e+19
39.7078  1.79774e+19
39.8251  1.73648e+19
39.9425  1.67826e+19
40.0598  1.62917e+19
40.1771  1.58949e+19
40.2944  1.55471e+19
40.4117  1.51554e+19
40.529  1.47162e+19
40.6463  1.42704e+19
40.7636  1.3885e+19
40.8809  1.36971e+19
40.9982  1.3846e+19
41.1155  1.43885e+19
41.2328  1.53924e+19
41.3501  1.68359e+19
41.4674  1.8683e+19
41.5847  2.08729e+19
41.702  2.33726e+19
41.8193  2.61161e+19
41.9366  2.90306e+19
42.0539  3.19867e+19
42.1712  3.48135e+19
42.2885  3.72706e+19
42.4059  3.90874e+19
42.5232  4.00309e+19
42.6405  3.99073e+19
42.7578  3.86821e+19
42.8751  3.64594e+19
42.9924  3.34668e+19
43.1097  3.00393e+19
43.227  2.65092e+19
43.3443  2.31709e+19
43.4616  2.02224e+19
43.5789  1.77388e+19
43.6962  1.5737e+19
43.8135  1.41409e+19
43.9308  1.29335e+19
44.0481  1.2097e+19
44.1654  1.16808e+19
44.2827  1.17781e+19
44.4  1.24255e+19
44.5173  1.35805e+19
44.6347  1.5089e+19
44.752  1.66526e+19
44.8693  1.79125e+19
44.9866  1.85101e+19
45.1039  1.81841e+19
45.2212  1.68823e+19
45.3385  1.47173e+19
45.4558  1.20447e+19
45.5731  9.31793e+18
45.6904  7.00164e+18
45.8077  5.45619e+18
45.925  4.83745e+18
46.0423  5.08116e+18
46.1596  5.91475e+18
46.2769  6.94993e+18
46.3942  7.79815e+18
46.5115  8.15212e+18
46.6288  7.90365e+18
46.7461  7.12532e+18
46.8634  6.05888e+18
46.9808  5.02917e+18
47.0981  4.34542e+18
47.2154  4.2209e+18
47.3327  4.76384e+18
47.45  5.88035e+18
47.5673  7.40489e+18
47.6846  9.09524e+18
47.8019  1.06874e+19
47.9192  1.1985e+19
48.0365  1.28445e+19
48.1538  1.32196e+19
48.2711  1.31063e+19
48.3884  1.25669e+19
48.5057  1.16782e+19
48.623  1.0545e+19
48.7403  9.27792e+18
48.8576  7.97057e+18
48.9749  6.73846e+18
49.0922  5.6404e+18
49.2095  4.71395e+18
49.3269  3.97469e+18
49.4442  3.37816e+18
49.5615  2.89164e+18
49.6788  2.45569e+18
49.7961  2.06838e+18
49.9134  1.74934e+18
50.0307  1.58542e+18
50.148  1.66165e+18
50.2653  2.04082e+18
50.3826  2.72203e+18
50.4999  3.62631e+18
50.6172  4.5881e+18
50.7345  5.40627e+18
50.8518  5.89805e+18
50.9691  5.96207e+18
