#S 1 spectral density
#N 2
#UFWHM 31.555
#L  abscissas [um]  spectral density
-58.5938  3.00359e+20
-58.4764  3.09962e+20
-58.3591  3.16693e+20
-58.2418  3.18985e+20
-58.1245  3.15818e+20
-58.0072  3.069e+20
-57.8899  2.92705e+20
-57.7726  2.74446e+20
-57.6553  2.5382e+20
-57.538  2.32796e+20
-57.4207  2.13277e+20
-57.3034  1.96902e+20
-57.1861  1.84854e+20
-57.0688  1.77895e+20
-56.9515  1.76228e+20
-56.8342  1.79675e+20
-56.7169  1.8767e+20
-56.5996  1.99313e+20
-56.4823  2.13464e+20
-56.365  2.28755e+20
-56.2477  2.43765e+20
-56.1303  2.57126e+20
-56.013  2.6757e+20
-55.8957  2.74349e+20
-55.7784  2.76968e+20
-55.6611  2.75687e+20
-55.5438  2.71104e+20
-55.4265  2.64081e+20
-55.3092  2.55725e+20
-55.1919  2.47159e+20
-55.0746  2.39243e+20
-54.9573  2.32583e+20
-54.84  2.27466e+20
-54.7227  2.24169e+20
-54.6054  2.22616e+20
-54.4881  2.22796e+20
-54.3708  2.24713e+20
-54.2535  2.28373e+20
-54.1362  2.33746e+20
-54.0189  2.40697e+20
-53.9016  2.48988e+20
-53.7842  2.5814e+20
-53.6669  2.67805e+20
-53.5496  2.77576e+20
-53.4323  2.87088e+20
-53.315  2.96301e+20
-53.1977  3.05297e+20
-53.0804  3.14214e+20
-52.9631  3.23257e+20
-52.8458  3.32612e+20
-52.7285  3.42016e+20
-52.6112  3.51117e+20
-52.4939  3.59269e+20
-52.3766  3.65899e+20
-52.2593  3.70365e+20
-52.142  3.72385e+20
-52.0247  3.72247e+20
-51.9074  3.70528e+20
-51.7901  3.68325e+20
-51.6728  3.67022e+20
-51.5555  3.68099e+20
-51.4381  3.72866e+20
-51.3208  3.82243e+20
-51.2035  3.9688e+20
-51.0862  4.16724e+20
-50.9689  4.4124e+20
-50.8516  4.69272e+20
-50.7343  4.99301e+20
-50.617  5.29439e+20
-50.4997  5.57722e+20
-50.3824  5.82045e+20
-50.2651  6.00637e+20
-50.1478  6.12036e+20
-50.0305  6.15458e+20
-49.9132  6.10608e+20
-49.7959  5.98049e+20
-49.6786  5.78845e+20
-49.5613  5.54664e+20
-49.444  5.2754e+20
-49.3267  4.99485e+20
-49.2094  4.72093e+20
-49.092  4.46909e+20
-48.9747  4.24617e+20
-48.8574  4.05692e+20
-48.7401  3.89809e+20
-48.6228  3.76441e+20
-48.5055  3.64907e+20
-48.3882  3.54261e+20
-48.2709  3.43983e+20
-48.1536  3.33759e+20
-48.0363  3.23572e+20
-47.919  3.13908e+20
-47.8017  3.05655e+20
-47.6844  2.99936e+20
-47.5671  2.98016e+20
-47.4498  3.0111e+20
-47.3325  3.10091e+20
-47.2152  3.25398e+20
-47.0979  3.46812e+20
-46.9806  3.73508e+20
-46.8633  4.0405e+20
-46.7459  4.36203e+20
-46.6286  4.67951e+20
-46.5113  4.96856e+20
-46.394  5.21182e+20
-46.2767  5.39318e+20
-46.1594  5.50482e+20
-46.0421  5.54659e+20
-45.9248  5.52317e+20
-45.8075  5.44501e+20
-45.6902  5.32613e+20
-45.5729  5.18082e+20
-45.4556  5.02752e+20
-45.3383  4.87957e+20
-45.221  4.75239e+20
-45.1037  4.65533e+20
-44.9864  4.59564e+20
-44.8691  4.57668e+20
-44.7518  4.59755e+20
-44.6345  4.65058e+20
-44.5172  4.72414e+20
-44.3998  4.80528e+20
-44.2825  4.87632e+20
-44.1652  4.9238e+20
-44.0479  4.93653e+20
-43.9306  4.90984e+20
-43.8133  4.84567e+20
-43.696  4.75467e+20
-43.5787  4.65178e+20
-43.4614  4.55564e+20
-43.3441  4.48647e+20
-43.2268  4.45977e+20
-43.1095  4.4869e+20
-42.9922  4.57069e+20
-42.8749  4.70753e+20
-42.7576  4.88615e+20
-42.6403  5.08938e+20
-42.523  5.29911e+20
-42.4057  5.4943e+20
-42.2884  5.65951e+20
-42.171  5.78191e+20
-42.0537  5.85393e+20
-41.9364  5.87677e+20
-41.8191  5.85353e+20
-41.7018  5.79674e+20
-41.5845  5.71839e+20
-41.4672  5.63463e+20
-41.3499  5.5596e+20
-41.2326  5.50558e+20
-41.1153  5.47914e+20
-40.998  5.48177e+20
-40.8807  5.50872e+20
-40.7634  5.55256e+20
-40.6461  5.59901e+20
-40.5288  5.6366e+20
-40.4115  5.65124e+20
-40.2942  5.63639e+20
-40.1769  5.58588e+20
-40.0596  5.50053e+20
-39.9423  5.38612e+20
-39.825  5.25168e+20
-39.7076  5.10912e+20
-39.5903  4.9701e+20
-39.473  4.84634e+20
-39.3557  4.74935e+20
-39.2384  4.68754e+20
-39.1211  4.6674e+20
-39.0038  4.69393e+20
-38.8865  4.76688e+20
-38.7692  4.88295e+20
-38.6519  5.03482e+20
-38.5346  5.21235e+20
-38.4173  5.40047e+20
-38.3  5.58372e+20
-38.1827  5.74663e+20
-38.0654  5.87733e+20
-37.9481  5.96709e+20
-37.8308  6.01551e+20
-37.7135  6.02514e+20
-37.5962  6.00583e+20
-37.4789  5.96898e+20
-37.3615  5.9291e+20
-37.2442  5.89677e+20
-37.1269  5.88047e+20
-37.0096  5.8855e+20
-36.8923  5.91366e+20
-36.775  5.96438e+20
-36.6577  6.0355e+20
-36.5404  6.1244e+20
-36.4231  6.22932e+20
-36.3058  6.34577e+20
-36.1885  6.47176e+20
-36.0712  6.60106e+20
-35.9539  6.72896e+20
-35.8366  6.84771e+20
-35.7193  6.95211e+20
-35.602  7.04086e+20
-35.4847  7.11221e+20
-35.3674  7.17137e+20
-35.2501  7.22711e+20
-35.1328  7.29032e+20
-35.0154  7.37167e+20
-34.8981  7.47815e+20
-34.7808  7.61284e+20
-34.6635  7.77333e+20
-34.5462  7.95061e+20
-34.4289  8.13278e+20
-34.3116  8.30672e+20
-34.1943  8.46073e+20
-34.077  8.58741e+20
-33.9597  8.68454e+20
-33.8424  8.75694e+20
-33.7251  8.81415e+20
-33.6078  8.86885e+20
-33.4905  8.93417e+20
-33.3732  9.02278e+20
-33.2559  9.14525e+20
-33.1386  9.30732e+20
-33.0213  9.51138e+20
-32.904  9.75359e+20
-32.7867  1.00285e+21
-32.6693  1.03268e+21
-32.552  1.06357e+21
-32.4347  1.0942e+21
-32.3174  1.12334e+21
-32.2001  1.14985e+21
-32.0828  1.17303e+21
-31.9655  1.19247e+21
-31.8482  1.20831e+21
-31.7309  1.22122e+21
-31.6136  1.23216e+21
-31.4963  1.24224e+21
-31.379  1.25244e+21
-31.2617  1.26383e+21
-31.1444  1.2767e+21
-31.0271  1.29113e+21
-30.9098  1.307e+21
-30.7925  1.32352e+21
-30.6752  1.33999e+21
-30.5579  1.35574e+21
-30.4406  1.37015e+21
-30.3232  1.38298e+21
-30.2059  1.3939e+21
-30.0886  1.40322e+21
-29.9713  1.41138e+21
-29.854  1.41901e+21
-29.7367  1.42692e+21
-29.6194  1.43615e+21
-29.5021  1.44765e+21
-29.3848  1.46249e+21
-29.2675  1.48135e+21
-29.1502  1.50466e+21
-29.0329  1.53235e+21
-28.9156  1.56398e+21
-28.7983  1.59833e+21
-28.681  1.63408e+21
-28.5637  1.66984e+21
-28.4464  1.70404e+21
-28.3291  1.73556e+21
-28.2118  1.76385e+21
-28.0944  1.78892e+21
-27.9771  1.81137e+21
-27.8598  1.83244e+21
-27.7425  1.85357e+21
-27.6252  1.87672e+21
-27.5079  1.90365e+21
-27.3906  1.93607e+21
-27.2733  1.97541e+21
-27.156  2.02262e+21
-27.0387  2.07809e+21
-26.9214  2.14172e+21
-26.8041  2.21227e+21
-26.6868  2.28845e+21
-26.5695  2.36794e+21
-26.4522  2.44814e+21
-26.3349  2.52626e+21
-26.2176  2.59982e+21
-26.1003  2.66631e+21
-25.983  2.72434e+21
-25.8657  2.77313e+21
-25.7483  2.81274e+21
-25.631  2.84456e+21
-25.5137  2.86983e+21
-25.3964  2.89101e+21
-25.2791  2.91027e+21
-25.1618  2.92998e+21
-25.0445  2.95173e+21
-24.9272  2.97703e+21
-24.8099  3.00622e+21
-24.6926  3.0394e+21
-24.5753  3.07566e+21
-24.458  3.11368e+21
-24.3407  3.15152e+21
-24.2234  3.18732e+21
-24.1061  3.21892e+21
-23.9888  3.24477e+21
-23.8715  3.26388e+21
-23.7542  3.27597e+21
-23.6369  3.28165e+21
-23.5196  3.28238e+21
-23.4023  3.28066e+21
-23.2849  3.27918e+21
-23.1676  3.28103e+21
-23.0503  3.28907e+21
-22.933  3.30601e+21
-22.8157  3.33383e+21
-22.6984  3.37385e+21
-22.5811  3.42665e+21
-22.4638  3.49212e+21
-22.3465  3.56908e+21
-22.2292  3.65624e+21
-22.1119  3.75149e+21
-21.9946  3.85289e+21
-21.8773  3.95793e+21
-21.76  4.06456e+21
-21.6427  4.17099e+21
-21.5254  4.27609e+21
-21.4081  4.37877e+21
-21.2908  4.47914e+21
-21.1735  4.57765e+21
-21.0561  4.67517e+21
-20.9388  4.77321e+21
-20.8215  4.87251e+21
-20.7042  4.97404e+21
-20.5869  5.0779e+21
-20.4696  5.1839e+21
-20.3523  5.29055e+21
-20.235  5.39648e+21
-20.1177  5.49927e+21
-20.0004  5.59681e+21
-19.8831  5.6875e+21
-19.7658  5.76961e+21
-19.6485  5.8423e+21
-19.5312  5.90598e+21
-19.4139  5.961e+21
-19.2966  6.00904e+21
-19.1793  6.05194e+21
-19.062  6.09207e+21
-18.9447  6.13127e+21
-18.8274  6.17097e+21
-18.71  6.21293e+21
-18.5927  6.25718e+21
-18.4754  6.30326e+21
-18.3581  6.35008e+21
-18.2408  6.39537e+21
-18.1235  6.43703e+21
-18.0062  6.47232e+21
-17.8889  6.49897e+21
-17.7716  6.51575e+21
-17.6543  6.52126e+21
-17.537  6.51634e+21
-17.4197  6.50241e+21
-17.3024  6.48248e+21
-17.1851  6.46033e+21
-17.0678  6.44042e+21
-16.9505  6.42787e+21
-16.8332  6.42781e+21
-16.7159  6.44457e+21
-16.5986  6.48169e+21
-16.4813  6.54164e+21
-16.364  6.62576e+21
-16.2466  6.7338e+21
-16.1293  6.86402e+21
-16.012  7.01292e+21
-15.8947  7.17625e+21
-15.7774  7.34877e+21
-15.6601  7.52441e+21
-15.5428  7.6975e+21
-15.4255  7.86204e+21
-15.3082  8.01356e+21
-15.1909  8.14944e+21
-15.0736  8.26711e+21
-14.9563  8.36672e+21
-14.839  8.45007e+21
-14.7217  8.51957e+21
-14.6044  8.57882e+21
-14.4871  8.63207e+21
-14.3698  8.6835e+21
-14.2525  8.73629e+21
-14.1352  8.79274e+21
-14.0178  8.85515e+21
-13.9005  8.92357e+21
-13.7832  8.99706e+21
-13.6659  9.07454e+21
-13.5486  9.15293e+21
-13.4313  9.22989e+21
-13.314  9.30228e+21
-13.1967  9.36731e+21
-13.0794  9.42338e+21
-12.9621  9.46844e+21
-12.8448  9.50288e+21
-12.7275  9.5273e+21
-12.6102  9.5441e+21
-12.4929  9.55619e+21
-12.3756  9.56667e+21
-12.2583  9.57987e+21
-12.141  9.5996e+21
-12.0237  9.62862e+21
-11.9064  9.66881e+21
-11.7891  9.72103e+21
-11.6718  9.78506e+21
-11.5544  9.85955e+21
-11.4371  9.94301e+21
-11.3198  1.00319e+22
-11.2025  1.01242e+22
-11.0852  1.0217e+22
-10.9679  1.03081e+22
-10.8506  1.03956e+22
-10.7333  1.0478e+22
-10.616  1.05544e+22
-10.4987  1.06258e+22
-10.3814  1.06916e+22
-10.2641  1.07533e+22
-10.1468  1.08122e+22
-10.0295  1.08705e+22
-9.91217  1.09295e+22
-9.79487  1.09915e+22
-9.67756  1.10582e+22
-9.56026  1.11311e+22
-9.44295  1.12108e+22
-9.32565  1.12988e+22
-9.20834  1.13948e+22
-9.09104  1.14989e+22
-8.97373  1.16116e+22
-8.85643  1.17315e+22
-8.73913  1.18584e+22
-8.62182  1.19911e+22
-8.50452  1.21283e+22
-8.38721  1.22687e+22
-8.26991  1.24089e+22
-8.1526  1.25474e+22
-8.03529  1.26803e+22
-7.91799  1.28043e+22
-7.80069  1.29155e+22
-7.68338  1.30095e+22
-7.56608  1.30836e+22
-7.44877  1.31345e+22
-7.33146  1.316e+22
-7.21416  1.31588e+22
-7.09685  1.31306e+22
-6.97955  1.30768e+22
-6.86224  1.30004e+22
-6.74494  1.29067e+22
-6.62763  1.27998e+22
-6.51033  1.26874e+22
-6.39302  1.25764e+22
-6.27572  1.24742e+22
-6.15842  1.23879e+22
-6.04111  1.23236e+22
-5.92381  1.22859e+22
-5.8065  1.2279e+22
-5.68919  1.23033e+22
-5.57189  1.2359e+22
-5.45458  1.24431e+22
-5.33728  1.25525e+22
-5.21997  1.26809e+22
-5.10267  1.28223e+22
-4.98536  1.29698e+22
-4.86806  1.31165e+22
-4.75075  1.32561e+22
-4.63345  1.33841e+22
-4.51614  1.34964e+22
-4.39884  1.3592e+22
-4.28154  1.36715e+22
-4.16423  1.37364e+22
-4.04692  1.37905e+22
-3.92962  1.38377e+22
-3.81231  1.38829e+22
-3.69501  1.39299e+22
-3.5777  1.39812e+22
-3.4604  1.40391e+22
-3.34309  1.41028e+22
-3.22579  1.41706e+22
-3.10849  1.42388e+22
-2.99118  1.43027e+22
-2.87387  1.43575e+22
-2.75657  1.43975e+22
-2.63926  1.44184e+22
-2.52196  1.44167e+22
-2.40465  1.43904e+22
-2.28735  1.43394e+22
-2.17005  1.42663e+22
-2.05274  1.41759e+22
-1.93544  1.40729e+22
-1.81813  1.39657e+22
-1.70083  1.38615e+22
-1.58352  1.37687e+22
-1.46622  1.36943e+22
-1.34891  1.36446e+22
-1.2316  1.36234e+22
-1.1143  1.36328e+22
-0.996995  1.36713e+22
-0.87969  1.37363e+22
-0.762385  1.38214e+22
-0.64508  1.39194e+22
-0.527775  1.4021e+22
-0.41047  1.41169e+22
-0.293165  1.41979e+22
-0.17586  1.42563e+22
-0.058555  1.42867e+22
0.05875  1.4286e+22
0.176055  1.42541e+22
0.29336  1.4194e+22
0.410665  1.41118e+22
0.52797  1.4015e+22
0.645275  1.39125e+22
0.76258  1.38137e+22
0.879885  1.37281e+22
0.99719  1.36627e+22
1.1145  1.36236e+22
1.2318  1.36143e+22
1.3491  1.36355e+22
1.46641  1.36851e+22
1.58371  1.37591e+22
1.70102  1.38516e+22
1.81832  1.39554e+22
1.93563  1.40619e+22
2.05294  1.4164e+22
2.17024  1.42541e+22
2.28754  1.43262e+22
2.40485  1.4376e+22
2.52216  1.44013e+22
2.63946  1.44024e+22
2.75677  1.43804e+22
2.87407  1.43394e+22
2.99137  1.42837e+22
3.10868  1.42188e+22
3.22599  1.41497e+22
3.34329  1.40813e+22
3.4606  1.40171e+22
3.5779  1.39586e+22
3.69521  1.39061e+22
3.81251  1.38585e+22
3.92982  1.38122e+22
4.04712  1.37639e+22
4.16443  1.3709e+22
4.28173  1.36431e+22
4.39903  1.35627e+22
4.51634  1.3466e+22
4.63364  1.33528e+22
4.75095  1.32243e+22
4.86825  1.3084e+22
4.98556  1.29369e+22
5.10286  1.27891e+22
5.22017  1.26478e+22
5.33748  1.25194e+22
5.45478  1.24103e+22
5.57209  1.23265e+22
5.68939  1.22711e+22
5.8067  1.2247e+22
5.924  1.22543e+22
6.0413  1.22919e+22
6.15861  1.23561e+22
6.27591  1.24419e+22
6.39322  1.25436e+22
6.51052  1.2654e+22
6.62783  1.27653e+22
6.74514  1.28707e+22
6.86244  1.29635e+22
6.97975  1.30381e+22
7.09705  1.30903e+22
7.21436  1.31168e+22
7.33166  1.31167e+22
7.44897  1.30897e+22
7.56627  1.30375e+22
7.68358  1.29619e+22
7.80088  1.28665e+22
7.91819  1.27546e+22
8.03549  1.26301e+22
8.1528  1.24971e+22
8.2701  1.23583e+22
8.38741  1.22177e+22
8.50471  1.20778e+22
8.62202  1.19404e+22
8.73932  1.18079e+22
8.85662  1.16813e+22
8.97393  1.15616e+22
9.09123  1.14492e+22
9.20854  1.1345e+22
9.32584  1.12493e+22
9.44315  1.11613e+22
9.56045  1.1081e+22
9.67776  1.1008e+22
9.79506  1.09406e+22
9.91237  1.08782e+22
10.0297  1.08183e+22
10.147  1.07596e+22
10.2643  1.07e+22
10.3816  1.06374e+22
10.4989  1.05711e+22
10.6162  1.04993e+22
10.7335  1.04222e+22
10.8508  1.03393e+22
10.9681  1.02516e+22
11.0854  1.01607e+22
11.2027  1.00681e+22
11.32  9.97582e+21
11.4373  9.88698e+21
11.5546  9.80407e+21
11.6719  9.72978e+21
11.7893  9.66633e+21
11.9066  9.61442e+21
12.0239  9.5744e+21
12.1412  9.5458e+21
12.2585  9.52622e+21
12.3758  9.51259e+21
12.4931  9.50165e+21
12.6104  9.4892e+21
12.7277  9.47204e+21
12.845  9.4472e+21
12.9623  9.41196e+21
13.0796  9.36634e+21
13.1969  9.31006e+21
13.3142  9.24452e+21
13.4315  9.17187e+21
13.5488  9.09483e+21
13.6661  9.01642e+21
13.7834  8.93911e+21
13.9007  8.86567e+21
14.018  8.79792e+21
14.1354  8.73561e+21
14.2527  8.67911e+21
14.37  8.62664e+21
14.4873  8.57524e+21
14.6046  8.5219e+21
14.7219  8.46225e+21
14.8392  8.39272e+21
14.9565  8.3093e+21
15.0738  8.20906e+21
15.1911  8.09126e+21
15.3084  7.95521e+21
15.4257  7.80327e+21
15.543  7.63839e+21
15.6603  7.46559e+21
15.7776  7.29034e+21
15.8949  7.11831e+21
16.0122  6.95529e+21
16.1295  6.80681e+21
16.2468  6.67721e+21
16.3641  6.56971e+21
16.4815  6.48626e+21
16.5988  6.42668e+21
16.7161  6.38976e+21
16.8334  6.37359e+21
16.9507  6.37383e+21
17.068  6.38623e+21
17.1853  6.40596e+21
17.3026  6.42783e+21
17.4199  6.44749e+21
17.5372  6.46131e+21
17.6545  6.46563e+21
17.7718  6.45986e+21
17.8891  6.44306e+21
18.0064  6.4162e+21
18.1237  6.38077e+21
18.241  6.33931e+21
18.3583  6.29419e+21
18.4756  6.24765e+21
18.5929  6.20191e+21
18.7102  6.15826e+21
18.8275  6.11657e+21
18.9449  6.07717e+21
19.0622  6.03849e+21
19.1795  5.99868e+21
19.2968  5.95593e+21
19.4141  5.90801e+21
19.5314  5.85325e+21
19.6487  5.78986e+21
19.766  5.71705e+21
19.8833  5.63523e+21
20.0006  5.54466e+21
20.1179  5.44704e+21
20.2352  5.3443e+21
20.3525  5.2386e+21
20.4698  5.13221e+21
20.5871  5.02657e+21
20.7044  4.92291e+21
20.8217  4.82154e+21
20.939  4.72243e+21
21.0563  4.62477e+21
21.1736  4.52748e+21
21.291  4.42936e+21
21.4083  4.32923e+21
21.5256  4.22714e+21
21.6429  4.12268e+21
21.7602  4.01687e+21
21.8775  3.91099e+21
21.9948  3.8067e+21
22.1121  3.70634e+21
22.2294  3.61213e+21
22.3467  3.52589e+21
22.464  3.45002e+21
22.5813  3.38563e+21
22.6986  3.33384e+21
22.8159  3.29458e+21
22.9332  3.26755e+21
23.0505  3.25132e+21
23.1678  3.24376e+21
23.2851  3.24235e+21
23.4024  3.24415e+21
23.5198  3.24604e+21
23.6371  3.24533e+21
23.7544  3.23976e+21
23.8717  3.22764e+21
23.989  3.20857e+21
24.1063  3.18283e+21
24.2236  3.15139e+21
24.3409  3.1158e+21
24.4582  3.07817e+21
24.5755  3.04057e+21
24.6928  3.00456e+21
24.8101  2.97171e+21
24.9274  2.94275e+21
25.0447  2.91769e+21
25.162  2.89623e+21
25.2793  2.87677e+21
25.3966  2.85765e+21
25.5139  2.83645e+21
25.6312  2.81106e+21
25.7485  2.77939e+21
25.8658  2.73967e+21
25.9832  2.69102e+21
26.1005  2.63297e+21
26.2178  2.56669e+21
26.3351  2.49355e+21
26.4524  2.41581e+21
26.5697  2.33617e+21
26.687  2.25734e+21
26.8043  2.18194e+21
26.9216  2.1121e+21
27.0389  2.04936e+21
27.1562  1.99472e+21
27.2735  1.94821e+21
27.3908  1.90966e+21
27.5081  1.87786e+21
27.6254  1.85149e+21
27.7427  1.82882e+21
27.86  1.80805e+21
27.9773  1.78738e+21
28.0946  1.76516e+21
28.212  1.74036e+21
28.3293  1.71229e+21
28.4466  1.68101e+21
28.5639  1.64709e+21
28.6812  1.61169e+21
28.7985  1.57626e+21
28.9158  1.54227e+21
29.0331  1.51118e+21
29.1504  1.48391e+21
29.2677  1.4611e+21
29.385  1.44269e+21
29.5023  1.4283e+21
29.6196  1.41714e+21
29.7369  1.40831e+21
29.8542  1.40076e+21
29.9715  1.39344e+21
30.0888  1.38565e+21
30.2061  1.37653e+21
30.3234  1.36577e+21
30.4407  1.35322e+21
30.558  1.33901e+21
30.6754  1.32346e+21
30.7927  1.30709e+21
30.91  1.29083e+21
31.0273  1.27523e+21
31.1446  1.26089e+21
31.2619  1.24822e+21
31.3792  1.2371e+21
31.4965  1.22693e+21
31.6138  1.21706e+21
31.7311  1.20623e+21
31.8484  1.19346e+21
31.9657  1.17768e+21
32.083  1.15846e+21
32.2003  1.13551e+21
32.3176  1.1092e+21
32.4349  1.08039e+21
32.5522  1.05007e+21
32.6695  1.01962e+21
32.7868  9.90255e+20
32.9042  9.63194e+20
33.0215  9.39416e+20
33.1388  9.19511e+20
33.2561  9.03763e+20
33.3734  8.91857e+20
33.4907  8.83251e+20
33.608  8.77007e+20
33.7253  8.71748e+20
33.8426  8.66138e+20
33.9599  8.58977e+20
34.0772  8.49306e+20
34.1945  8.36769e+20
34.3118  8.21508e+20
34.4291  8.04333e+20
34.5464  7.86351e+20
34.6637  7.68886e+20
34.781  7.5324e+20
34.8983  7.40119e+20
35.0156  7.29833e+20
35.1329  7.22082e+20
35.2503  7.1604e+20
35.3676  7.10645e+20
35.4849  7.0481e+20
35.6022  6.97827e+20
35.7195  6.89093e+20
35.8368  6.78613e+20
35.9541  6.66831e+20
36.0714  6.54101e+20
36.1887  6.41229e+20
36.306  6.28844e+20
36.4233  6.17224e+20
36.5406  6.06965e+20
36.6579  5.98222e+20
36.7752  5.91362e+20
36.8925  5.86482e+20
37.0098  5.83882e+20
37.1271  5.83638e+20
37.2444  5.85436e+20
37.3617  5.88836e+20
37.479  5.93003e+20
37.5964  5.96689e+20
37.7137  5.98653e+20
37.831  5.97633e+20
37.9483  5.9277e+20
38.0656  5.83659e+20
38.1829  5.70511e+20
38.3002  5.54258e+20
38.4175  5.35904e+20
38.5348  5.17175e+20
38.6521  4.99616e+20
38.7694  4.84541e+20
38.8867  4.73188e+20
39.004  4.66155e+20
39.1213  4.63843e+20
39.2386  4.66098e+20
39.3559  4.7252e+20
39.4732  4.82485e+20
39.5905  4.94998e+20
39.7078  5.09046e+20
39.8251  5.23518e+20
39.9425  5.36994e+20
40.0598  5.48486e+20
40.1771  5.56925e+20
40.2944  5.62004e+20
40.4117  5.63471e+20
40.529  5.61964e+20
40.6463  5.58314e+20
40.7636  5.53571e+20
40.8809  5.49348e+20
40.9982  5.46755e+20
41.1155  5.46593e+20
41.2328  5.49356e+20
41.3501  5.54876e+20
41.4674  5.62468e+20
41.5847  5.70844e+20
41.702  5.78702e+20
41.8193  5.8434e+20
41.9366  5.86514e+20
42.0539  5.84097e+20
42.1712  5.76681e+20
42.2885  5.64388e+20
42.4059  5.47689e+20
42.5232  5.28119e+20
42.6405  5.07095e+20
42.7578  4.86848e+20
42.8751  4.69129e+20
42.9924  4.55585e+20
43.1097  4.47347e+20
43.227  4.44839e+20
43.3443  4.47721e+20
43.4616  4.54773e+20
43.5789  4.64393e+20
43.6962  4.74687e+20
43.8135  4.8376e+20
43.9308  4.90125e+20
44.0481  4.92725e+20
44.1654  4.91375e+20
44.2827  4.86533e+20
44.4  4.79378e+20
44.5173  4.71326e+20
44.6347  4.63963e+20
44.752  4.58859e+20
44.8693  4.56845e+20
44.9866  4.58787e+20
45.1039  4.64808e+20
45.2212  4.74621e+20
45.3385  4.8738e+20
45.4558  5.02134e+20
45.5731  5.17497e+20
45.6904  5.31837e+20
45.8077  5.43623e+20
45.925  5.51256e+20
46.0423  5.53437e+20
46.1596  5.4902e+20
46.2769  5.37625e+20
46.3942  5.19386e+20
46.5115  4.94922e+20
46.6288  4.65943e+20
46.7461  4.34191e+20
46.8634  4.02003e+20
46.9808  3.7171e+20
47.0981  3.45125e+20
47.2154  3.23929e+20
47.3327  3.08756e+20
47.45  3.00031e+20
47.5673  2.97122e+20
47.6846  2.99103e+20
47.8019  3.04926e+20
47.9192  3.13196e+20
48.0365  3.22865e+20
48.1538  3.33038e+20
48.2711  3.43233e+20
48.3884  3.53499e+20
48.5057  3.64052e+20
48.623  3.75719e+20
48.7403  3.89071e+20
48.8576  4.0501e+20
48.9749  4.24035e+20
49.0922  4.46337e+20
49.2095  4.71542e+20
49.3269  4.98874e+20
49.4442  5.27032e+20
49.5615  5.53994e+20
49.6788  5.77878e+20
49.7961  5.96893e+20
49.9134  6.09163e+20
50.0307  6.13665e+20
50.148  6.10017e+20
50.2653  5.98371e+20
50.3826  5.79548e+20
50.4999  5.55066e+20
50.6172  5.26729e+20
50.7345  4.9658e+20
