#S 1 spectral density
#N 2
#UFWHM 11.3786
#L  abscissas [um]  spectral density
-58.5938  1.59899e+19
-58.4764  1.52463e+19
-58.3591  1.41228e+19
-58.2418  1.25994e+19
-58.1245  1.08577e+19
-58.0072  9.19222e+18
-57.8899  8.10815e+18
-57.7726  8.07488e+18
-57.6553  9.47423e+18
-57.538  1.24831e+19
-57.4207  1.70004e+19
-57.3034  2.26775e+19
-57.1861  2.89371e+19
-57.0688  3.51697e+19
-56.9515  4.07765e+19
-56.8342  4.53804e+19
-56.7169  4.87476e+19
-56.5996  5.08836e+19
-56.4823  5.19029e+19
-56.365  5.20568e+19
-56.2477  5.14579e+19
-56.1303  5.03081e+19
-56.013  4.86296e+19
-55.8957  4.64915e+19
-55.7784  4.39145e+19
-55.6611  4.10005e+19
-55.5438  3.79525e+19
-55.4265  3.49135e+19
-55.3092  3.20694e+19
-55.1919  2.95331e+19
-55.0746  2.73126e+19
-54.9573  2.53443e+19
-54.84  2.34798e+19
-54.7227  2.15648e+19
-54.6054  1.95426e+19
-54.4881  1.74405e+19
-54.3708  1.54118e+19
-54.2535  1.36337e+19
-54.1362  1.23287e+19
-54.0189  1.16459e+19
-53.9016  1.1614e+19
-53.7842  1.21265e+19
-53.6669  1.3032e+19
-53.5496  1.409e+19
-53.4323  1.51106e+19
-53.315  1.603e+19
-53.1977  1.68349e+19
-53.0804  1.76372e+19
-52.9631  1.85864e+19
-52.8458  1.97737e+19
-52.7285  2.12002e+19
-52.6112  2.27999e+19
-52.4939  2.44257e+19
-52.3766  2.59174e+19
-52.2593  2.71459e+19
-52.142  2.8164e+19
-52.0247  2.91387e+19
-51.9074  3.0374e+19
-51.7901  3.22179e+19
-51.6728  3.49618e+19
-51.5555  3.87924e+19
-51.4381  4.36923e+19
-51.3208  4.94251e+19
-51.2035  5.55899e+19
-51.0862  6.17104e+19
-50.9689  6.73076e+19
-50.8516  7.1905e+19
-50.7343  7.52253e+19
-50.617  7.70969e+19
-50.4997  7.75083e+19
-50.3824  7.64842e+19
-50.2651  7.41917e+19
-50.1478  7.07276e+19
-50.0305  6.63509e+19
-49.9132  6.11744e+19
-49.7959  5.54703e+19
-49.6786  4.95084e+19
-49.5613  4.35838e+19
-49.444  3.7961e+19
-49.3267  3.29157e+19
-49.2094  2.86196e+19
-49.092  2.51735e+19
-48.9747  2.25281e+19
-48.8574  2.0594e+19
-48.7401  1.92505e+19
-48.6228  1.8306e+19
-48.5055  1.76272e+19
-48.3882  1.71388e+19
-48.2709  1.68126e+19
-48.1536  1.67072e+19
-48.0363  1.69466e+19
-47.919  1.76849e+19
-47.8017  1.91185e+19
-47.6844  2.1454e+19
-47.5671  2.48694e+19
-47.4498  2.94851e+19
-47.3325  3.52693e+19
-47.2152  4.20855e+19
-47.0979  4.95955e+19
-46.9806  5.73185e+19
-46.8633  6.46869e+19
-46.7459  7.09906e+19
-46.6286  7.57157e+19
-46.5113  7.84686e+19
-46.394  7.91097e+19
-46.2767  7.77703e+19
-46.1594  7.48624e+19
-46.0421  7.10322e+19
-45.9248  6.69028e+19
-45.8075  6.31143e+19
-45.6902  6.01014e+19
-45.5729  5.80929e+19
-45.4556  5.70796e+19
-45.3383  5.67793e+19
-45.221  5.6898e+19
-45.1037  5.70191e+19
-44.9864  5.67664e+19
-44.8691  5.59734e+19
-44.7518  5.45308e+19
-44.6345  5.24138e+19
-44.5172  4.97923e+19
-44.3998  4.68778e+19
-44.2825  4.39299e+19
-44.1652  4.12512e+19
-44.0479  3.9175e+19
-43.9306  3.80735e+19
-43.8133  3.83547e+19
-43.696  4.03524e+19
-43.5787  4.42466e+19
-43.4614  5.00596e+19
-43.3441  5.75672e+19
-43.2268  6.62813e+19
-43.1095  7.5496e+19
-42.9922  8.43174e+19
-42.8749  9.18948e+19
-42.7576  9.74676e+19
-42.6403  1.00488e+20
-42.523  1.00778e+20
-42.4057  9.84567e+19
-42.2884  9.39967e+19
-42.171  8.80552e+19
-42.0537  8.14626e+19
-41.9364  7.49722e+19
-41.8191  6.9204e+19
-41.7018  6.46876e+19
-41.5845  6.15909e+19
-41.4672  5.99114e+19
-41.3499  5.94164e+19
-41.2326  5.97541e+19
-41.1153  6.04529e+19
-40.998  6.09772e+19
-40.8807  6.08874e+19
-40.7634  5.98188e+19
-40.6461  5.76056e+19
-40.5288  5.4282e+19
-40.4115  5.01394e+19
-40.2942  4.57413e+19
-40.1769  4.17399e+19
-40.0596  3.88906e+19
-39.9423  3.79127e+19
-39.825  3.93398e+19
-39.7076  4.34341e+19
-39.5903  5.01485e+19
-39.473  5.91502e+19
-39.3557  6.98921e+19
-39.2384  8.16445e+19
-39.1211  9.36434e+19
-39.0038  1.05211e+20
-38.8865  1.15835e+20
-38.7692  1.25115e+20
-38.6519  1.32802e+20
-38.5346  1.38808e+20
-38.4173  1.43187e+20
-38.3  1.46092e+20
-38.1827  1.47823e+20
-38.0654  1.48824e+20
-37.9481  1.49712e+20
-37.8308  1.5111e+20
-37.7135  1.53702e+20
-37.5962  1.57974e+20
-37.4789  1.64142e+20
-37.3615  1.72016e+20
-37.2442  1.81041e+20
-37.1269  1.90147e+20
-37.0096  1.9805e+20
-36.8923  2.03496e+20
-36.775  2.05364e+20
-36.6577  2.03025e+20
-36.5404  1.96183e+20
-36.4231  1.85385e+20
-36.3058  1.71456e+20
-36.1885  1.55646e+20
-36.0712  1.3922e+20
-35.9539  1.23401e+20
-35.8366  1.09118e+20
-35.7193  9.69694e+19
-35.602  8.72705e+19
-35.4847  7.9962e+19
-35.3674  7.49251e+19
-35.2501  7.18565e+19
-35.1328  7.04483e+19
-35.0154  7.03826e+19
-34.8981  7.12133e+19
-34.7808  7.25582e+19
-34.6635  7.39437e+19
-34.5462  7.4962e+19
-34.4289  7.51909e+19
-34.3116  7.44883e+19
-34.1943  7.28484e+19
-34.077  7.0573e+19
-33.9597  6.81369e+19
-33.8424  6.619e+19
-33.7251  6.53636e+19
-33.6078  6.62329e+19
-33.4905  6.91487e+19
-33.3732  7.42885e+19
-33.2559  8.15244e+19
-33.1386  9.05958e+19
-33.0213  1.01103e+20
-32.904  1.12567e+20
-32.7867  1.24533e+20
-32.6693  1.36513e+20
-32.552  1.47978e+20
-32.4347  1.58572e+20
-32.3174  1.67731e+20
-32.2001  1.75048e+20
-32.0828  1.8016e+20
-31.9655  1.82773e+20
-31.8482  1.82903e+20
-31.7309  1.80621e+20
-31.6136  1.76307e+20
-31.4963  1.70439e+20
-31.379  1.63662e+20
-31.2617  1.56494e+20
-31.1444  1.4948e+20
-31.0271  1.43082e+20
-30.9098  1.37511e+20
-30.7925  1.33043e+20
-30.6752  1.29608e+20
-30.5579  1.2714e+20
-30.4406  1.25554e+20
-30.3232  1.24593e+20
-30.2059  1.2408e+20
-30.0886  1.23734e+20
-29.9713  1.23336e+20
-29.854  1.22855e+20
-29.7367  1.22276e+20
-29.6194  1.21859e+20
-29.5021  1.2195e+20
-29.3848  1.23048e+20
-29.2675  1.25751e+20
-29.1502  1.3036e+20
-29.0329  1.3705e+20
-28.9156  1.45731e+20
-28.7983  1.55929e+20
-28.681  1.66912e+20
-28.5637  1.77804e+20
-28.4464  1.87672e+20
-28.3291  1.95782e+20
-28.2118  2.01619e+20
-28.0944  2.04948e+20
-27.9771  2.05901e+20
-27.8598  2.04858e+20
-27.7425  2.02395e+20
-27.6252  1.99244e+20
-27.5079  1.96041e+20
-27.3906  1.93391e+20
-27.2733  1.91716e+20
-27.156  1.9149e+20
-27.0387  1.92761e+20
-26.9214  1.95572e+20
-26.8041  1.99696e+20
-26.6868  2.04729e+20
-26.5695  2.1014e+20
-26.4522  2.15241e+20
-26.3349  2.19289e+20
-26.2176  2.2157e+20
-26.1003  2.21659e+20
-25.983  2.1927e+20
-25.8657  2.1448e+20
-25.7483  2.07673e+20
-25.631  1.99392e+20
-25.5137  1.90607e+20
-25.3964  1.82105e+20
-25.2791  1.74755e+20
-25.1618  1.69281e+20
-25.0445  1.66269e+20
-24.9272  1.65942e+20
-24.8099  1.68469e+20
-24.6926  1.73624e+20
-24.5753  1.8102e+20
-24.458  1.90124e+20
-24.3407  2.00202e+20
-24.2234  2.10479e+20
-24.1061  2.20248e+20
-23.9888  2.28722e+20
-23.8715  2.35529e+20
-23.7542  2.40266e+20
-23.6369  2.43102e+20
-23.5196  2.44352e+20
-23.4023  2.44586e+20
-23.2849  2.44654e+20
-23.1676  2.4538e+20
-23.0503  2.47662e+20
-22.933  2.52263e+20
-22.8157  2.59762e+20
-22.6984  2.70614e+20
-22.5811  2.85073e+20
-22.4638  3.03073e+20
-22.3465  3.24506e+20
-22.2292  3.48929e+20
-22.1119  3.75714e+20
-21.9946  4.03998e+20
-21.8773  4.32816e+20
-21.76  4.60998e+20
-21.6427  4.87327e+20
-21.5254  5.10775e+20
-21.4081  5.30261e+20
-21.2908  5.45329e+20
-21.1735  5.55717e+20
-21.0561  5.61572e+20
-20.9388  5.63488e+20
-20.8215  5.62496e+20
-20.7042  5.5944e+20
-20.5869  5.55632e+20
-20.4696  5.52095e+20
-20.3523  5.49779e+20
-20.235  5.49337e+20
-20.1177  5.51332e+20
-20.0004  5.5583e+20
-19.8831  5.62876e+20
-19.7658  5.72071e+20
-19.6485  5.83063e+20
-19.5312  5.95112e+20
-19.4139  6.07592e+20
-19.2966  6.19607e+20
-19.1793  6.30433e+20
-19.062  6.39307e+20
-18.9447  6.45723e+20
-18.8274  6.49377e+20
-18.71  6.50196e+20
-18.5927  6.48306e+20
-18.4754  6.44112e+20
-18.3581  6.38294e+20
-18.2408  6.31248e+20
-18.1235  6.23726e+20
-18.0062  6.16146e+20
-17.8889  6.09108e+20
-17.7716  6.02804e+20
-17.6543  5.97458e+20
-17.537  5.93176e+20
-17.4197  5.89981e+20
-17.3024  5.87628e+20
-17.1851  5.86021e+20
-17.0678  5.8499e+20
-16.9505  5.84331e+20
-16.8332  5.83988e+20
-16.7159  5.83865e+20
-16.5986  5.84238e+20
-16.4813  5.85395e+20
-16.364  5.879e+20
-16.2466  5.9249e+20
-16.1293  6.00093e+20
-16.012  6.11499e+20
-15.8947  6.27719e+20
-15.7774  6.49165e+20
-15.6601  6.76213e+20
-15.5428  7.08858e+20
-15.4255  7.46875e+20
-15.3082  7.89556e+20
-15.1909  8.35923e+20
-15.0736  8.85104e+20
-14.9563  9.3627e+20
-14.839  9.88221e+20
-14.7217  1.04041e+21
-14.6044  1.09216e+21
-14.4871  1.14284e+21
-14.3698  1.19229e+21
-14.2525  1.24045e+21
-14.1352  1.28761e+21
-14.0178  1.33385e+21
-13.9005  1.37989e+21
-13.7832  1.42639e+21
-13.6659  1.47395e+21
-13.5486  1.52317e+21
-13.4313  1.57439e+21
-13.314  1.62764e+21
-13.1967  1.68271e+21
-13.0794  1.73845e+21
-12.9621  1.79442e+21
-12.8448  1.84921e+21
-12.7275  1.90232e+21
-12.6102  1.9527e+21
-12.4929  2.0004e+21
-12.3756  2.04591e+21
-12.2583  2.09007e+21
-12.141  2.1343e+21
-12.0237  2.18079e+21
-11.9064  2.23189e+21
-11.7891  2.28986e+21
-11.6718  2.35745e+21
-11.5544  2.43675e+21
-11.4371  2.52962e+21
-11.3198  2.63811e+21
-11.2025  2.76301e+21
-11.0852  2.90495e+21
-10.9679  3.06401e+21
-10.8506  3.23942e+21
-10.7333  3.43008e+21
-10.616  3.6346e+21
-10.4987  3.85063e+21
-10.3814  4.07646e+21
-10.2641  4.30998e+21
-10.1468  4.54976e+21
-10.0295  4.79397e+21
-9.91217  5.04192e+21
-9.79487  5.29296e+21
-9.67756  5.54714e+21
-9.56026  5.80442e+21
-9.44295  6.06571e+21
-9.32565  6.3318e+21
-9.20834  6.60393e+21
-9.09104  6.8834e+21
-8.97373  7.17165e+21
-8.85643  7.47084e+21
-8.73913  7.78217e+21
-8.62182  8.10719e+21
-8.50452  8.44718e+21
-8.38721  8.803e+21
-8.26991  9.1754e+21
-8.1526  9.56416e+21
-8.03529  9.96884e+21
-7.91799  1.03884e+22
-7.80069  1.08217e+22
-7.68338  1.12666e+22
-7.56608  1.17214e+22
-7.44877  1.2184e+22
-7.33146  1.26524e+22
-7.21416  1.31247e+22
-7.09685  1.36001e+22
-6.97955  1.40776e+22
-6.86224  1.45572e+22
-6.74494  1.50395e+22
-6.62763  1.55257e+22
-6.51033  1.60177e+22
-6.39302  1.65176e+22
-6.27572  1.7028e+22
-6.15842  1.75511e+22
-6.04111  1.80888e+22
-5.92381  1.86434e+22
-5.8065  1.92153e+22
-5.68919  1.98045e+22
-5.57189  2.0411e+22
-5.45458  2.10327e+22
-5.33728  2.16672e+22
-5.21997  2.23111e+22
-5.10267  2.29609e+22
-4.98536  2.36121e+22
-4.86806  2.42598e+22
-4.75075  2.49004e+22
-4.63345  2.55298e+22
-4.51614  2.61454e+22
-4.39884  2.6745e+22
-4.28154  2.73275e+22
-4.16423  2.78946e+22
-4.04692  2.84456e+22
-3.92962  2.89831e+22
-3.81231  2.95088e+22
-3.69501  3.00242e+22
-3.5777  3.05311e+22
-3.4604  3.10294e+22
-3.34309  3.15186e+22
-3.22579  3.19969e+22
-3.10849  3.24633e+22
-2.99118  3.29135e+22
-2.87387  3.33459e+22
-2.75657  3.37567e+22
-2.63926  3.41444e+22
-2.52196  3.45067e+22
-2.40465  3.48441e+22
-2.28735  3.51564e+22
-2.17005  3.54462e+22
-2.05274  3.57162e+22
-1.93544  3.597e+22
-1.81813  3.62115e+22
-1.70083  3.64451e+22
-1.58352  3.66745e+22
-1.46622  3.69027e+22
-1.34891  3.71314e+22
-1.2316  3.73621e+22
-1.1143  3.75934e+22
-0.996995  3.7824e+22
-0.87969  3.80505e+22
-0.762385  3.82673e+22
-0.64508  3.84697e+22
-0.527775  3.86514e+22
-0.41047  3.88065e+22
-0.293165  3.8929e+22
-0.17586  3.90146e+22
-0.058555  3.90599e+22
0.05875  3.90625e+22
0.176055  3.9023e+22
0.29336  3.89433e+22
0.410665  3.88264e+22
0.52797  3.86772e+22
0.645275  3.8501e+22
0.76258  3.83047e+22
0.879885  3.80936e+22
0.99719  3.78736e+22
1.1145  3.76492e+22
1.2318  3.74238e+22
1.3491  3.7199e+22
1.46641  3.69764e+22
1.58371  3.6754e+22
1.70102  3.65307e+22
1.81832  3.63028e+22
1.93563  3.6067e+22
2.05294  3.58189e+22
2.17024  3.55542e+22
2.28754  3.52692e+22
2.40485  3.49612e+22
2.52216  3.46284e+22
2.63946  3.42696e+22
2.75677  3.38857e+22
2.87407  3.34778e+22
2.99137  3.30486e+22
3.10868  3.26004e+22
3.22599  3.21367e+22
3.34329  3.16601e+22
3.4606  3.11723e+22
3.5779  3.06756e+22
3.69521  3.01705e+22
3.81251  2.96559e+22
3.92982  2.91312e+22
4.04712  2.85947e+22
4.16443  2.80447e+22
4.28173  2.74789e+22
4.39903  2.68966e+22
4.51634  2.6298e+22
4.63364  2.56832e+22
4.75095  2.50547e+22
4.86825  2.44151e+22
4.98556  2.37681e+22
5.10286  2.31182e+22
5.22017  2.24685e+22
5.33748  2.18251e+22
5.45478  2.11908e+22
5.57209  2.05692e+22
5.68939  1.99628e+22
5.8067  1.93728e+22
5.924  1.88001e+22
6.0413  1.82447e+22
6.15861  1.77059e+22
6.27591  1.7181e+22
6.39322  1.66693e+22
6.51052  1.61674e+22
6.62783  1.56736e+22
6.74514  1.5185e+22
6.86244  1.47005e+22
6.97975  1.42183e+22
7.09705  1.37384e+22
7.21436  1.32603e+22
7.33166  1.27847e+22
7.44897  1.23136e+22
7.56627  1.1848e+22
7.68358  1.13901e+22
7.80088  1.0942e+22
7.91819  1.05056e+22
8.03549  1.00829e+22
8.1528  9.67492e+21
8.2701  9.28301e+21
8.38741  8.90761e+21
8.50471  8.54825e+21
8.62202  8.20536e+21
8.73932  7.87721e+21
8.85662  7.56271e+21
8.97393  7.26037e+21
9.09123  6.96882e+21
9.20854  6.68609e+21
9.32584  6.41054e+21
9.44315  6.14119e+21
9.56045  5.87647e+21
9.67776  5.61564e+21
9.79506  5.3582e+21
9.91237  5.10354e+21
10.0297  4.85223e+21
10.147  4.6046e+21
10.2643  4.36155e+21
10.3816  4.12501e+21
10.4989  3.89606e+21
10.6162  3.67722e+21
10.7335  3.47028e+21
10.8508  3.27731e+21
10.9681  3.09969e+21
11.0854  2.93868e+21
11.2027  2.79488e+21
11.32  2.66831e+21
11.4373  2.55831e+21
11.5546  2.46376e+21
11.6719  2.38305e+21
11.7893  2.31399e+21
11.9066  2.25435e+21
12.0239  2.20191e+21
12.1412  2.15384e+21
12.2585  2.10796e+21
12.3758  2.06236e+21
12.4931  2.0154e+21
12.6104  1.96627e+21
12.7277  1.91448e+21
12.845  1.86004e+21
12.9623  1.80413e+21
13.0796  1.74712e+21
13.1969  1.6903e+21
13.3142  1.63448e+21
13.4315  1.5806e+21
13.5488  1.52865e+21
13.6661  1.4788e+21
13.7834  1.43074e+21
13.9007  1.38371e+21
14.018  1.33706e+21
14.1354  1.29041e+21
14.2527  1.24297e+21
14.37  1.19428e+21
14.4873  1.14462e+21
14.6046  1.09363e+21
14.7219  1.04175e+21
14.8392  9.89328e+20
14.9565  9.37154e+20
15.0738  8.86021e+20
15.1911  8.36683e+20
15.3084  7.90357e+20
15.4257  7.47888e+20
15.543  7.10065e+20
15.6603  6.77553e+20
15.7776  6.50616e+20
15.8949  6.29341e+20
16.0122  6.13365e+20
16.1295  6.02085e+20
16.2468  5.94666e+20
16.3641  5.90243e+20
16.4815  5.87854e+20
16.5988  5.86748e+20
16.7161  5.86599e+20
16.8334  5.86719e+20
16.9507  5.87212e+20
17.068  5.87903e+20
17.1853  5.89037e+20
17.3026  5.90711e+20
17.4199  5.93218e+20
17.5372  5.96626e+20
17.6545  6.01034e+20
17.7718  6.06406e+20
17.8891  6.12863e+20
18.0064  6.19987e+20
18.1237  6.27638e+20
18.241  6.35277e+20
18.3583  6.42373e+20
18.4756  6.48299e+20
18.5929  6.52422e+20
18.7102  6.54276e+20
18.8275  6.53417e+20
18.9449  6.49683e+20
19.0622  6.43124e+20
19.1795  6.34178e+20
19.2968  6.23351e+20
19.4141  6.11271e+20
19.5314  5.98752e+20
19.6487  5.86675e+20
19.766  5.75674e+20
19.8833  5.66445e+20
20.0006  5.59482e+20
20.1179  5.55055e+20
20.2352  5.53143e+20
20.3525  5.53601e+20
20.4698  5.55958e+20
20.5871  5.59479e+20
20.7044  5.63194e+20
20.8217  5.66114e+20
20.939  5.67041e+20
21.0563  5.64867e+20
21.1736  5.58723e+20
21.291  5.48112e+20
21.4083  5.32756e+20
21.5256  5.12906e+20
21.6429  4.89279e+20
21.7602  4.62682e+20
21.8775  4.34303e+20
21.9948  4.0533e+20
22.1121  3.76943e+20
22.2294  3.50145e+20
22.3467  3.25711e+20
22.464  3.04272e+20
22.5813  2.86323e+20
22.6986  2.71942e+20
22.8159  2.61099e+20
22.9332  2.53665e+20
23.0505  2.49098e+20
23.1678  2.46848e+20
23.2851  2.46102e+20
23.4024  2.45979e+20
23.5198  2.45629e+20
23.6371  2.44268e+20
23.7544  2.4129e+20
23.8717  2.36392e+20
23.989  2.29455e+20
24.1063  2.20874e+20
24.2236  2.11007e+20
24.3409  2.00666e+20
24.4582  1.90574e+20
24.5755  1.81459e+20
24.6928  1.74088e+20
24.8101  1.69009e+20
24.9274  1.66579e+20
25.0447  1.66937e+20
25.162  1.70015e+20
25.2793  1.75508e+20
25.3966  1.8287e+20
25.5139  1.91393e+20
25.6312  2.00192e+20
25.7485  2.08323e+20
25.8658  2.15071e+20
25.9832  2.19758e+20
26.1005  2.22024e+20
26.2178  2.21807e+20
26.3351  2.19408e+20
26.4524  2.15317e+20
26.5697  2.10184e+20
26.687  2.0475e+20
26.8043  1.99667e+20
26.9216  1.95523e+20
27.0389  1.92773e+20
27.1562  1.91516e+20
27.2735  1.91809e+20
27.3908  1.93463e+20
27.5081  1.96121e+20
27.6254  1.99347e+20
27.7427  2.02466e+20
27.86  2.04851e+20
27.9773  2.05836e+20
28.0946  2.04844e+20
28.212  2.01453e+20
28.3293  1.95548e+20
28.4466  1.8738e+20
28.5639  1.77464e+20
28.6812  1.66575e+20
28.7985  1.55614e+20
28.9158  1.455e+20
29.0331  1.3691e+20
29.1504  1.3032e+20
29.2677  1.25803e+20
29.385  1.23215e+20
29.5023  1.2213e+20
29.6196  1.2208e+20
29.7369  1.22533e+20
29.8542  1.23125e+20
29.9715  1.2366e+20
30.0888  1.24029e+20
30.2061  1.24411e+20
30.3234  1.24954e+20
30.4407  1.25933e+20
30.558  1.27594e+20
30.6754  1.3004e+20
30.7927  1.3357e+20
30.91  1.38155e+20
31.0273  1.4369e+20
31.1446  1.50133e+20
31.2619  1.57162e+20
31.3792  1.64334e+20
31.4965  1.71117e+20
31.6138  1.76908e+20
31.7311  1.81153e+20
31.8484  1.83376e+20
31.9657  1.83186e+20
32.083  1.80438e+20
32.2003  1.75271e+20
32.3176  1.67868e+20
32.4349  1.58636e+20
32.5522  1.48013e+20
32.6695  1.36496e+20
32.7868  1.24525e+20
32.9042  1.12563e+20
33.0215  1.01117e+20
33.1388  9.06539e+19
33.2561  8.16368e+19
33.3734  7.44756e+19
33.4907  6.94292e+19
33.608  6.6595e+19
33.7253  6.57995e+19
33.8426  6.66948e+19
33.9599  6.86861e+19
34.0772  7.11393e+19
34.1945  7.34079e+19
34.3118  7.5023e+19
34.4291  7.56935e+19
34.5464  7.5437e+19
34.6637  7.44438e+19
34.781  7.30285e+19
34.8983  7.17013e+19
35.0156  7.08922e+19
35.1329  7.1019e+19
35.2503  7.24793e+19
35.3676  7.56133e+19
35.4849  8.07436e+19
35.6022  8.81373e+19
35.7195  9.79686e+19
35.8368  1.10166e+20
35.9541  1.24531e+20
36.0714  1.40398e+20
36.1887  1.56795e+20
36.306  1.72579e+20
36.4233  1.8641e+20
36.5406  1.97074e+20
36.6579  2.03673e+20
36.7752  2.0589e+20
36.8925  2.03823e+20
37.0098  1.98221e+20
37.1271  1.90205e+20
37.2444  1.8106e+20
37.3617  1.72063e+20
37.479  1.64195e+20
37.5964  1.58082e+20
37.7137  1.53872e+20
37.831  1.5132e+20
37.9483  1.49951e+20
38.0656  1.4905e+20
38.1829  1.48038e+20
38.3002  1.4627e+20
38.4175  1.4331e+20
38.5348  1.38885e+20
38.6521  1.32794e+20
38.7694  1.2506e+20
38.8867  1.15753e+20
39.004  1.05083e+20
39.1213  9.34642e+19
39.2386  8.14505e+19
39.3559  6.97221e+19
39.4732  5.9063e+19
39.5905  5.01144e+19
39.7078  4.3464e+19
39.8251  3.94653e+19
39.9425  3.81233e+19
40.0598  3.91623e+19
40.1771  4.20536e+19
40.2944  4.60746e+19
40.4117  5.04767e+19
40.529  5.45786e+19
40.6463  5.78655e+19
40.7636  6.00274e+19
40.8809  6.10554e+19
40.9982  6.11147e+19
41.1155  6.05664e+19
41.2328  5.98745e+19
41.3501  5.95499e+19
41.4674  6.00699e+19
41.5847  6.1808e+19
41.702  6.49485e+19
41.8193  6.95354e+19
41.9366  7.53085e+19
42.0539  8.18111e+19
42.1712  8.83915e+19
42.2885  9.42982e+19
42.4059  9.86763e+19
42.5232  1.0091e+20
42.6405  1.00521e+20
42.7578  9.74014e+19
42.8751  9.17274e+19
42.9924  8.40793e+19
43.1097  7.52195e+19
43.227  6.59909e+19
43.3443  5.73037e+19
43.4616  4.98271e+19
43.5789  4.40663e+19
43.6962  4.02482e+19
43.8135  3.83342e+19
43.9308  3.81022e+19
44.0481  3.92396e+19
44.1654  4.13362e+19
44.2827  4.4058e+19
44.4  4.70427e+19
44.5173  4.99811e+19
44.6347  5.26023e+19
44.752  5.47205e+19
44.8693  5.61791e+19
44.9866  5.69785e+19
45.1039  5.71982e+19
45.2212  5.70967e+19
45.3385  5.69811e+19
45.4558  5.7274e+19
45.5731  5.83256e+19
45.6904  6.03372e+19
45.8077  6.33578e+19
45.925  6.71442e+19
46.0423  7.1255e+19
46.1596  7.50419e+19
46.2769  7.78659e+19
46.3942  7.91561e+19
46.5115  7.84227e+19
46.6288  7.56205e+19
46.7461  7.08247e+19
46.8634  6.44563e+19
46.9808  5.71152e+19
47.0981  4.93856e+19
47.2154  4.18972e+19
47.3327  3.51025e+19
47.45  2.9361e+19
47.5673  2.48073e+19
47.6846  2.14183e+19
47.8019  1.91069e+19
47.9192  1.77093e+19
48.0365  1.69876e+19
48.1538  1.67755e+19
48.2711  1.68909e+19
48.3884  1.72245e+19
48.5057  1.77134e+19
48.623  1.84003e+19
48.7403  1.9362e+19
48.8576  2.07319e+19
48.9749  2.26672e+19
49.0922  2.5338e+19
49.2095  2.88201e+19
49.3269  3.31382e+19
49.4442  3.81958e+19
49.5615  4.38196e+19
49.6788  4.97469e+19
49.7961  5.57138e+19
49.9134  6.13796e+19
50.0307  6.65244e+19
50.148  7.09086e+19
50.2653  7.43118e+19
50.3826  7.65783e+19
50.4999  7.75486e+19
50.6172  7.71152e+19
50.7345  7.51889e+19
50.8518  7.18165e+19
50.9691  6.7191e+19
