#S 1 spectral density
#N 2
#UFWHM 22.9918
#L  abscissas [um]  spectral density
-58.5938  8.27499e+19
-58.4764  7.5879e+19
-58.3591  6.84446e+19
-58.2418  6.06699e+19
-58.1245  5.27618e+19
-58.0072  4.49739e+19
-57.8899  3.76455e+19
-57.7726  3.10402e+19
-57.6553  2.54028e+19
-57.538  2.08532e+19
-57.4207  1.74257e+19
-57.3034  1.50911e+19
-57.1861  1.38315e+19
-57.0688  1.37067e+19
-56.9515  1.48368e+19
-56.8342  1.74318e+19
-56.7169  2.16434e+19
-56.5996  2.75209e+19
-56.4823  3.48554e+19
-56.365  4.31219e+19
-56.2477  5.15917e+19
-56.1303  5.9342e+19
-56.013  6.55445e+19
-55.8957  6.96151e+19
-55.7784  7.14004e+19
-55.6611  7.12369e+19
-55.5438  6.98208e+19
-55.4265  6.81934e+19
-55.3092  6.72763e+19
-55.1919  6.78302e+19
-55.0746  7.01417e+19
-54.9573  7.40498e+19
-54.84  7.8909e+19
-54.7227  8.38736e+19
-54.6054  8.79939e+19
-54.4881  9.05238e+19
-54.3708  9.10293e+19
-54.2535  8.94177e+19
-54.1362  8.59398e+19
-54.0189  8.09623e+19
-53.9016  7.49947e+19
-53.7842  6.84676e+19
-53.6669  6.16755e+19
-53.5496  5.4835e+19
-53.4323  4.81151e+19
-53.315  4.16962e+19
-53.1977  3.58312e+19
-53.0804  3.08359e+19
-52.9631  2.70655e+19
-52.8458  2.48455e+19
-52.7285  2.43872e+19
-52.6112  2.57444e+19
-52.4939  2.88435e+19
-52.3766  3.3465e+19
-52.2593  3.93647e+19
-52.142  4.62969e+19
-52.0247  5.40913e+19
-51.9074  6.26161e+19
-51.7901  7.17567e+19
-51.6728  8.13901e+19
-51.5555  9.12528e+19
-51.4381  1.00912e+20
-51.3208  1.09945e+20
-51.2035  1.17736e+20
-51.0862  1.23905e+20
-50.9689  1.28078e+20
-50.8516  1.30194e+20
-50.7343  1.3053e+20
-50.617  1.29533e+20
-50.4997  1.27777e+20
-50.3824  1.25955e+20
-50.2651  1.24532e+20
-50.1478  1.23952e+20
-50.0305  1.2423e+20
-49.9132  1.25311e+20
-49.7959  1.26842e+20
-49.6786  1.28504e+20
-49.5613  1.29904e+20
-49.444  1.30873e+20
-49.3267  1.31391e+20
-49.2094  1.31686e+20
-49.092  1.32186e+20
-48.9747  1.33472e+20
-48.8574  1.36081e+20
-48.7401  1.40516e+20
-48.6228  1.46976e+20
-48.5055  1.55334e+20
-48.3882  1.65188e+20
-48.2709  1.75678e+20
-48.1536  1.8577e+20
-48.0363  1.94335e+20
-47.919  2.00424e+20
-47.8017  2.0334e+20
-47.6844  2.02832e+20
-47.5671  1.99123e+20
-47.4498  1.92913e+20
-47.3325  1.85038e+20
-47.2152  1.76589e+20
-47.0979  1.68388e+20
-46.9806  1.61002e+20
-46.8633  1.54729e+20
-46.7459  1.4954e+20
-46.6286  1.452e+20
-46.5113  1.41479e+20
-46.394  1.38301e+20
-46.2767  1.35857e+20
-46.1594  1.34519e+20
-46.0421  1.3485e+20
-45.9248  1.37367e+20
-45.8075  1.42391e+20
-45.6902  1.4981e+20
-45.5729  1.5915e+20
-45.4556  1.6935e+20
-45.3383  1.79187e+20
-45.221  1.87253e+20
-45.1037  1.92357e+20
-44.9864  1.93685e+20
-44.8691  1.90971e+20
-44.7518  1.84489e+20
-44.6345  1.75102e+20
-44.5172  1.64171e+20
-44.3998  1.53237e+20
-44.2825  1.4393e+20
-44.1652  1.37827e+20
-44.0479  1.36316e+20
-43.9306  1.40392e+20
-43.8133  1.50642e+20
-43.696  1.67156e+20
-43.5787  1.89505e+20
-43.4614  2.16685e+20
-43.3441  2.47258e+20
-43.2268  2.79328e+20
-43.1095  3.10837e+20
-42.9922  3.39679e+20
-42.8749  3.64086e+20
-42.7576  3.82651e+20
-42.6403  3.94763e+20
-42.523  4.00298e+20
-42.4057  3.99984e+20
-42.2884  3.9487e+20
-42.171  3.86261e+20
-42.0537  3.7558e+20
-41.9364  3.63909e+20
-41.8191  3.52097e+20
-41.7018  3.40457e+20
-41.5845  3.29043e+20
-41.4672  3.1764e+20
-41.3499  3.06019e+20
-41.2326  2.93856e+20
-41.1153  2.81192e+20
-40.998  2.68268e+20
-40.8807  2.55439e+20
-40.7634  2.43391e+20
-40.6461  2.32811e+20
-40.5288  2.24481e+20
-40.4115  2.19142e+20
-40.2942  2.17224e+20
-40.1769  2.19067e+20
-40.0596  2.2473e+20
-39.9423  2.3394e+20
-39.825  2.46101e+20
-39.7076  2.60304e+20
-39.5903  2.75619e+20
-39.473  2.90954e+20
-39.3557  3.05119e+20
-39.2384  3.17354e+20
-39.1211  3.2704e+20
-39.0038  3.33866e+20
-38.8865  3.37849e+20
-38.7692  3.39429e+20
-38.6519  3.3887e+20
-38.5346  3.36825e+20
-38.4173  3.3352e+20
-38.3  3.2947e+20
-38.1827  3.24846e+20
-38.0654  3.19874e+20
-37.9481  3.14808e+20
-37.8308  3.09841e+20
-37.7135  3.05252e+20
-37.5962  3.01331e+20
-37.4789  2.98098e+20
-37.3615  2.9555e+20
-37.2442  2.93313e+20
-37.1269  2.91056e+20
-37.0096  2.88289e+20
-36.8923  2.84675e+20
-36.775  2.8026e+20
-36.6577  2.75344e+20
-36.5404  2.70853e+20
-36.4231  2.6799e+20
-36.3058  2.67986e+20
-36.1885  2.7207e+20
-36.0712  2.80998e+20
-35.9539  2.94977e+20
-35.8366  3.13471e+20
-35.7193  3.353e+20
-35.602  3.58712e+20
-35.4847  3.81982e+20
-35.3674  4.03374e+20
-35.2501  4.21499e+20
-35.1328  4.35447e+20
-35.0154  4.44918e+20
-34.8981  4.50176e+20
-34.7808  4.52069e+20
-34.6635  4.5154e+20
-34.5462  4.49915e+20
-34.4289  4.48675e+20
-34.3116  4.48957e+20
-34.1943  4.51819e+20
-34.077  4.57933e+20
-33.9597  4.67328e+20
-33.8424  4.79655e+20
-33.7251  4.93753e+20
-33.6078  5.08021e+20
-33.4905  5.20449e+20
-33.3732  5.28915e+20
-33.2559  5.31634e+20
-33.1386  5.27193e+20
-33.0213  5.15082e+20
-32.904  4.95773e+20
-32.7867  4.70435e+20
-32.6693  4.40945e+20
-32.552  4.09683e+20
-32.4347  3.78873e+20
-32.3174  3.50963e+20
-32.2001  3.275e+20
-32.0828  3.09808e+20
-31.9655  2.98491e+20
-31.8482  2.9379e+20
-31.7309  2.95495e+20
-31.6136  3.03001e+20
-31.4963  3.15499e+20
-31.379  3.32051e+20
-31.2617  3.5157e+20
-31.1444  3.72876e+20
-31.0271  3.94604e+20
-30.9098  4.15913e+20
-30.7925  4.35584e+20
-30.6752  4.53073e+20
-30.5579  4.68054e+20
-30.4406  4.80333e+20
-30.3232  4.90223e+20
-30.2059  4.97757e+20
-30.0886  5.03347e+20
-29.9713  5.07319e+20
-29.854  5.09761e+20
-29.7367  5.10665e+20
-29.6194  5.10243e+20
-29.5021  5.0851e+20
-29.3848  5.05526e+20
-29.2675  5.01595e+20
-29.1502  4.96959e+20
-29.0329  4.92016e+20
-28.9156  4.87029e+20
-28.7983  4.82258e+20
-28.681  4.78036e+20
-28.5637  4.74616e+20
-28.4464  4.72336e+20
-28.3291  4.71577e+20
-28.2118  4.72853e+20
-28.0944  4.76702e+20
-27.9771  4.83676e+20
-27.8598  4.94201e+20
-27.7425  5.08421e+20
-27.6252  5.26288e+20
-27.5079  5.47579e+20
-27.3906  5.71845e+20
-27.2733  5.98584e+20
-27.156  6.27068e+20
-27.0387  6.56911e+20
-26.9214  6.87624e+20
-26.8041  7.18946e+20
-26.6868  7.50589e+20
-26.5695  7.82338e+20
-26.4522  8.13835e+20
-26.3349  8.4466e+20
-26.2176  8.74445e+20
-26.1003  9.02193e+20
-25.983  9.27254e+20
-25.8657  9.48664e+20
-25.7483  9.65587e+20
-25.631  9.774e+20
-25.5137  9.83494e+20
-25.3964  9.83815e+20
-25.2791  9.78735e+20
-25.1618  9.69206e+20
-25.0445  9.56516e+20
-24.9272  9.42738e+20
-24.8099  9.29961e+20
-24.6926  9.20563e+20
-24.5753  9.16556e+20
-24.458  9.19458e+20
-24.3407  9.29896e+20
-24.2234  9.47888e+20
-24.1061  9.72237e+20
-23.9888  1.00136e+21
-23.8715  1.03311e+21
-23.7542  1.06545e+21
-23.6369  1.09654e+21
-23.5196  1.12524e+21
-23.4023  1.15116e+21
-23.2849  1.17475e+21
-23.1676  1.19698e+21
-23.0503  1.21953e+21
-22.933  1.24394e+21
-22.8157  1.27194e+21
-22.6984  1.30475e+21
-22.5811  1.34307e+21
-22.4638  1.38699e+21
-22.3465  1.43597e+21
-22.2292  1.48887e+21
-22.1119  1.54405e+21
-21.9946  1.5997e+21
-21.8773  1.65378e+21
-21.76  1.70457e+21
-21.6427  1.75077e+21
-21.5254  1.79159e+21
-21.4081  1.82731e+21
-21.2908  1.85888e+21
-21.1735  1.88811e+21
-21.0561  1.91757e+21
-20.9388  1.94996e+21
-20.8215  1.98809e+21
-20.7042  2.03458e+21
-20.5869  2.09089e+21
-20.4696  2.15823e+21
-20.3523  2.2365e+21
-20.235  2.32476e+21
-20.1177  2.42108e+21
-20.0004  2.5235e+21
-19.8831  2.62947e+21
-19.7658  2.73662e+21
-19.6485  2.84263e+21
-19.5312  2.9462e+21
-19.4139  3.0458e+21
-19.2966  3.1412e+21
-19.1793  3.23245e+21
-19.062  3.3202e+21
-18.9447  3.40525e+21
-18.8274  3.48879e+21
-18.71  3.57218e+21
-18.5927  3.65623e+21
-18.4754  3.74165e+21
-18.3581  3.82849e+21
-18.2408  3.91639e+21
-18.1235  4.00411e+21
-18.0062  4.09008e+21
-17.8889  4.17195e+21
-17.7716  4.24819e+21
-17.6543  4.3168e+21
-17.537  4.37662e+21
-17.4197  4.4275e+21
-17.3024  4.47031e+21
-17.1851  4.50714e+21
-17.0678  4.5407e+21
-16.9505  4.57476e+21
-16.8332  4.61342e+21
-16.7159  4.66072e+21
-16.5986  4.72017e+21
-16.4813  4.79471e+21
-16.364  4.88602e+21
-16.2466  4.99453e+21
-16.1293  5.11908e+21
-16.012  5.25788e+21
-15.8947  5.40769e+21
-15.7774  5.56503e+21
-15.6601  5.72623e+21
-15.5428  5.88778e+21
-15.4255  6.04671e+21
-15.3082  6.20147e+21
-15.1909  6.35156e+21
-15.0736  6.49731e+21
-14.9563  6.64024e+21
-14.839  6.78263e+21
-14.7217  6.92639e+21
-14.6044  7.07341e+21
-14.4871  7.22498e+21
-14.3698  7.38093e+21
-14.2525  7.53972e+21
-14.1352  7.69876e+21
-14.0178  7.85524e+21
-13.9005  8.00499e+21
-13.7832  8.14445e+21
-13.6659  8.27035e+21
-13.5486  8.38091e+21
-13.4313  8.47525e+21
-13.314  8.5542e+21
-13.1967  8.61978e+21
-13.0794  8.67617e+21
-12.9621  8.72717e+21
-12.8448  8.77867e+21
-12.7275  8.83516e+21
-12.6102  8.90219e+21
-12.4929  8.98348e+21
-12.3756  9.08143e+21
-12.2583  9.19775e+21
-12.141  9.33196e+21
-12.0237  9.48156e+21
-11.9064  9.64267e+21
-11.7891  9.81054e+21
-11.6718  9.97936e+21
-11.5544  1.01439e+22
-11.4371  1.02996e+22
-11.3198  1.04422e+22
-11.2025  1.05701e+22
-11.0852  1.06836e+22
-10.9679  1.07848e+22
-10.8506  1.08781e+22
-10.7333  1.09688e+22
-10.616  1.10642e+22
-10.4987  1.11719e+22
-10.3814  1.12986e+22
-10.2641  1.14504e+22
-10.1468  1.16321e+22
-10.0295  1.18458e+22
-9.91217  1.20907e+22
-9.79487  1.23643e+22
-9.67756  1.26604e+22
-9.56026  1.29712e+22
-9.44295  1.32865e+22
-9.32565  1.3597e+22
-9.20834  1.38921e+22
-9.09104  1.4163e+22
-8.97373  1.44031e+22
-8.85643  1.46077e+22
-8.73913  1.47745e+22
-8.62182  1.49048e+22
-8.50452  1.50014e+22
-8.38721  1.507e+22
-8.26991  1.51154e+22
-8.1526  1.51451e+22
-8.03529  1.51641e+22
-7.91799  1.51785e+22
-7.80069  1.51918e+22
-7.68338  1.52061e+22
-7.56608  1.52232e+22
-7.44877  1.52424e+22
-7.33146  1.52624e+22
-7.21416  1.52805e+22
-7.09685  1.52948e+22
-6.97955  1.5303e+22
-6.86224  1.53043e+22
-6.74494  1.52992e+22
-6.62763  1.5288e+22
-6.51033  1.52741e+22
-6.39302  1.52616e+22
-6.27572  1.52553e+22
-6.15842  1.5261e+22
-6.04111  1.52845e+22
-5.92381  1.53307e+22
-5.8065  1.54049e+22
-5.68919  1.55095e+22
-5.57189  1.56469e+22
-5.45458  1.58166e+22
-5.33728  1.60174e+22
-5.21997  1.62451e+22
-5.10267  1.64949e+22
-4.98536  1.67603e+22
-4.86806  1.70338e+22
-4.75075  1.73082e+22
-4.63345  1.75767e+22
-4.51614  1.78327e+22
-4.39884  1.80713e+22
-4.28154  1.82902e+22
-4.16423  1.84875e+22
-4.04692  1.86637e+22
-3.92962  1.8821e+22
-3.81231  1.89625e+22
-3.69501  1.90922e+22
-3.5777  1.92132e+22
-3.4604  1.93294e+22
-3.34309  1.94427e+22
-3.22579  1.95542e+22
-3.10849  1.96639e+22
-2.99118  1.97702e+22
-2.87387  1.9871e+22
-2.75657  1.99635e+22
-2.63926  2.00443e+22
-2.52196  2.01107e+22
-2.40465  2.01604e+22
-2.28735  2.01916e+22
-2.17005  2.02045e+22
-2.05274  2.02005e+22
-1.93544  2.01807e+22
-1.81813  2.01492e+22
-1.70083  2.01092e+22
-1.58352  2.00652e+22
-1.46622  2.00211e+22
-1.34891  1.99813e+22
-1.2316  1.99483e+22
-1.1143  1.99252e+22
-0.996995  1.99125e+22
-0.87969  1.99111e+22
-0.762385  1.99186e+22
-0.64508  1.99344e+22
-0.527775  1.99549e+22
-0.41047  1.99767e+22
-0.293165  1.99964e+22
-0.17586  2.00111e+22
-0.058555  2.00189e+22
0.05875  2.00182e+22
0.176055  2.0009e+22
0.29336  1.99925e+22
0.410665  1.99715e+22
0.52797  1.99483e+22
0.645275  1.99267e+22
0.76258  1.99098e+22
0.879885  1.9901e+22
0.99719  1.99015e+22
1.1145  1.99131e+22
1.2318  1.99353e+22
1.3491  1.99674e+22
1.46641  2.00062e+22
1.58371  2.00489e+22
1.70102  2.00918e+22
1.81832  2.01303e+22
1.93563  2.01603e+22
2.05294  2.01782e+22
2.17024  2.01809e+22
2.28754  2.01663e+22
2.40485  2.01331e+22
2.52216  2.00816e+22
2.63946  2.00135e+22
2.75677  1.99305e+22
2.87407  1.98362e+22
2.99137  1.97331e+22
3.10868  1.96246e+22
3.22599  1.95126e+22
3.34329  1.93989e+22
3.4606  1.92835e+22
3.5779  1.9165e+22
3.69521  1.90412e+22
3.81251  1.89096e+22
3.92982  1.87652e+22
4.04712  1.86055e+22
4.16443  1.84271e+22
4.28173  1.82278e+22
4.39903  1.80073e+22
4.51634  1.77668e+22
4.63364  1.75101e+22
4.75095  1.72407e+22
4.86825  1.69657e+22
4.98556  1.66919e+22
5.10286  1.6427e+22
5.22017  1.61777e+22
5.33748  1.59506e+22
5.45478  1.57507e+22
5.57209  1.55821e+22
5.68939  1.54453e+22
5.8067  1.53414e+22
5.924  1.52679e+22
6.0413  1.52221e+22
6.15861  1.51988e+22
6.27591  1.51929e+22
6.39322  1.51991e+22
6.51052  1.52112e+22
6.62783  1.52242e+22
6.74514  1.52345e+22
6.86244  1.52392e+22
6.97975  1.52368e+22
7.09705  1.52277e+22
7.21436  1.52127e+22
7.33166  1.51937e+22
7.44897  1.51733e+22
7.56627  1.51535e+22
7.68358  1.51357e+22
7.80088  1.51204e+22
7.91819  1.51063e+22
8.03549  1.50914e+22
8.1528  1.50716e+22
8.2701  1.50409e+22
8.38741  1.4994e+22
8.50471  1.49244e+22
8.62202  1.48261e+22
8.73932  1.46942e+22
8.85662  1.45258e+22
8.97393  1.43202e+22
9.09123  1.40787e+22
9.20854  1.38069e+22
9.32584  1.35114e+22
9.44315  1.32004e+22
9.56045  1.28848e+22
9.67776  1.25746e+22
9.79506  1.22788e+22
9.91237  1.2006e+22
10.0297  1.17618e+22
10.147  1.15491e+22
10.2643  1.13684e+22
10.3816  1.1217e+22
10.4989  1.10911e+22
10.6162  1.09838e+22
10.7335  1.08885e+22
10.8508  1.07977e+22
10.9681  1.07043e+22
11.0854  1.06031e+22
11.2027  1.04894e+22
11.32  1.03612e+22
11.4373  1.02183e+22
11.5546  1.00628e+22
11.6719  9.89804e+21
11.7893  9.72948e+21
11.9066  9.56216e+21
12.0239  9.40125e+21
12.1412  9.25252e+21
12.2585  9.11922e+21
12.3758  9.00355e+21
12.4931  8.90615e+21
12.6104  8.82558e+21
12.7277  8.75934e+21
12.845  8.70336e+21
12.9623  8.65227e+21
13.0796  8.60154e+21
13.1969  8.54538e+21
13.3142  8.47997e+21
13.4315  8.40108e+21
13.5488  8.30685e+21
13.6661  8.19648e+21
13.7834  8.07056e+21
13.9007  7.93135e+21
14.018  7.78201e+21
14.1354  7.62593e+21
14.2527  7.46715e+21
14.37  7.30913e+21
14.4873  7.15377e+21
14.6046  7.00287e+21
14.7219  6.85632e+21
14.8392  6.71326e+21
14.9565  6.57154e+21
15.0738  6.42907e+21
15.1911  6.28406e+21
15.3084  6.13454e+21
15.4257  5.98028e+21
15.543  5.82199e+21
15.6603  5.66131e+21
15.7776  5.5012e+21
15.8949  5.3448e+21
16.0122  5.19612e+21
16.1295  5.05842e+21
16.2468  4.93488e+21
16.3641  4.82754e+21
16.4815  4.73732e+21
16.5988  4.66376e+21
16.7161  4.6048e+21
16.8334  4.55833e+21
16.9507  4.52016e+21
17.068  4.48654e+21
17.1853  4.4533e+21
17.3026  4.41688e+21
17.4199  4.37434e+21
17.5372  4.32373e+21
17.6545  4.26417e+21
17.7718  4.19614e+21
17.8891  4.12047e+21
18.0064  4.03921e+21
18.1237  3.95414e+21
18.241  3.86724e+21
18.3583  3.78025e+21
18.4756  3.69426e+21
18.5929  3.6097e+21
18.7102  3.52648e+21
18.8275  3.44401e+21
18.9449  3.36124e+21
19.0622  3.27705e+21
19.1795  3.19012e+21
19.2968  3.09964e+21
19.4141  3.00501e+21
19.5314  2.90628e+21
19.6487  2.80374e+21
19.766  2.69866e+21
19.8833  2.59263e+21
20.0006  2.48775e+21
20.1179  2.38642e+21
20.2352  2.29122e+21
20.3525  2.20425e+21
20.4698  2.12724e+21
20.5871  2.06107e+21
20.7044  2.00575e+21
20.8217  1.96031e+21
20.939  1.92302e+21
21.0563  1.89135e+21
21.1736  1.86253e+21
21.291  1.8338e+21
21.4083  1.8027e+21
21.5256  1.7675e+21
21.6429  1.72702e+21
21.7602  1.68136e+21
21.8775  1.63106e+21
21.9948  1.57755e+21
22.1121  1.52261e+21
22.2294  1.46807e+21
22.3467  1.41592e+21
22.464  1.36777e+21
22.5813  1.32457e+21
22.6986  1.28705e+21
22.8159  1.25497e+21
22.9332  1.22756e+21
23.0505  1.20365e+21
23.1678  1.18164e+21
23.2851  1.15979e+21
23.4024  1.13657e+21
23.5198  1.11092e+21
23.6371  1.08262e+21
23.7544  1.05187e+21
23.8717  1.01997e+21
23.989  9.88717e+20
24.1063  9.60209e+20
24.2236  9.36454e+20
24.3409  9.19177e+20
24.4582  9.09381e+20
24.5755  9.07163e+20
24.6928  9.11761e+20
24.8101  9.21665e+20
24.9274  9.34772e+20
25.0447  9.48836e+20
25.162  9.61734e+20
25.2793  9.71498e+20
25.3966  9.76624e+20
25.5139  9.76302e+20
25.6312  9.70205e+20
25.7485  9.58482e+20
25.8658  9.4159e+20
25.9832  9.20237e+20
26.1005  8.95276e+20
26.2178  8.6768e+20
26.3351  8.38199e+20
26.4524  8.07446e+20
26.5697  7.76184e+20
26.687  7.4468e+20
26.8043  7.13256e+20
26.9216  6.82286e+20
27.0389  6.5179e+20
27.1562  6.22251e+20
27.2735  5.94004e+20
27.3908  5.67648e+20
27.5081  5.43651e+20
27.6254  5.22658e+20
27.7427  5.05103e+20
27.86  4.91175e+20
27.9773  4.8092e+20
28.0946  4.74187e+20
28.212  4.70504e+20
28.3293  4.69388e+20
28.4466  4.70292e+20
28.5639  4.72694e+20
28.6812  4.76205e+20
28.7985  4.80549e+20
28.9158  4.85406e+20
29.0331  4.90482e+20
29.1504  4.9551e+20
29.2677  5.00242e+20
29.385  5.04236e+20
29.5023  5.07284e+20
29.6196  5.09062e+20
29.7369  5.09556e+20
29.8542  5.08693e+20
29.9715  5.06296e+20
30.0888  5.02419e+20
30.2061  4.96725e+20
30.3234  4.89113e+20
30.4407  4.7931e+20
30.558  4.66906e+20
30.6754  4.51982e+20
30.7927  4.34305e+20
30.91  4.14566e+20
31.0273  3.9334e+20
31.1446  3.71532e+20
31.2619  3.50326e+20
31.3792  3.30841e+20
31.4965  3.14392e+20
31.6138  3.0201e+20
31.7311  2.9464e+20
31.8484  2.93118e+20
31.9657  2.98005e+20
32.083  3.095e+20
32.2003  3.27359e+20
32.3176  3.50971e+20
32.4349  3.79018e+20
32.5522  4.09808e+20
32.6695  4.41042e+20
32.7868  4.70362e+20
32.9042  4.95542e+20
33.0215  5.14565e+20
33.1388  5.26418e+20
33.2561  5.30535e+20
33.3734  5.27629e+20
33.4907  5.18948e+20
33.608  5.06391e+20
33.7253  4.9213e+20
33.8426  4.78009e+20
33.9599  4.65805e+20
34.0772  4.56429e+20
34.1945  4.50428e+20
34.3118  4.4767e+20
34.4291  4.47465e+20
34.5464  4.48783e+20
34.6637  4.50295e+20
34.781  4.50793e+20
34.8983  4.48891e+20
35.0156  4.4353e+20
35.1329  4.33929e+20
35.2503  4.19858e+20
35.3676  4.01719e+20
35.4849  3.80236e+20
35.6022  3.56911e+20
35.7195  3.33493e+20
35.8368  3.11832e+20
35.9541  2.93437e+20
36.0714  2.79634e+20
36.1887  2.70819e+20
36.306  2.66814e+20
36.4233  2.66887e+20
36.5406  2.69819e+20
36.6579  2.7431e+20
36.7752  2.79178e+20
36.8925  2.83549e+20
37.0098  2.87122e+20
37.1271  2.89823e+20
37.2444  2.92099e+20
37.3617  2.94332e+20
37.479  2.96899e+20
37.5964  3.00114e+20
37.7137  3.04073e+20
37.831  3.08615e+20
37.9483  3.13545e+20
38.0656  3.18553e+20
38.1829  3.2348e+20
38.3002  3.28065e+20
38.4175  3.32087e+20
38.5348  3.35361e+20
38.6521  3.37405e+20
38.7694  3.37935e+20
38.8867  3.36386e+20
39.004  3.32368e+20
39.1213  3.25522e+20
39.2386  3.15825e+20
39.3559  3.03597e+20
39.4732  2.89411e+20
39.5905  2.74178e+20
39.7078  2.58923e+20
39.8251  2.44715e+20
39.9425  2.32634e+20
40.0598  2.2353e+20
40.1771  2.17986e+20
40.2944  2.16205e+20
40.4117  2.1818e+20
40.529  2.23615e+20
40.6463  2.31977e+20
40.7636  2.42612e+20
40.8809  2.5466e+20
40.9982  2.67461e+20
41.1155  2.80453e+20
41.2328  2.93121e+20
41.3501  3.0522e+20
41.4674  3.16871e+20
41.5847  3.283e+20
41.702  3.3968e+20
41.8193  3.51329e+20
41.9366  3.63159e+20
42.0539  3.74804e+20
42.1712  3.85419e+20
42.2885  3.93896e+20
42.4059  3.98899e+20
42.5232  3.98991e+20
42.6405  3.93259e+20
42.7578  3.80916e+20
42.8751  3.62153e+20
42.9924  3.37614e+20
43.1097  3.08666e+20
43.227  2.77171e+20
43.3443  2.45166e+20
43.4616  2.14759e+20
43.5789  1.87773e+20
43.6962  1.65651e+20
43.8135  1.49367e+20
43.9308  1.39341e+20
44.0481  1.35456e+20
44.1654  1.37099e+20
44.2827  1.43295e+20
44.4  1.52637e+20
44.5173  1.63574e+20
44.6347  1.74466e+20
44.752  1.83703e+20
44.8693  1.90061e+20
44.9866  1.92687e+20
45.1039  1.91243e+20
45.2212  1.86034e+20
45.3385  1.77955e+20
45.4558  1.6815e+20
45.5731  1.57993e+20
45.6904  1.48792e+20
45.8077  1.41484e+20
45.925  1.36585e+20
46.0423  1.34181e+20
46.1596  1.33941e+20
46.2769  1.35338e+20
46.3942  1.3782e+20
46.5115  1.41028e+20
46.6288  1.44752e+20
46.7461  1.49124e+20
46.8634  1.54371e+20
46.9808  1.60688e+20
47.0981  1.68136e+20
47.2154  1.76381e+20
47.3327  1.84878e+20
47.45  1.927e+20
47.5673  1.98854e+20
47.6846  2.02509e+20
47.8019  2.02895e+20
47.9192  1.99892e+20
48.0365  1.937e+20
48.1538  1.85055e+20
48.2711  1.74948e+20
48.3884  1.64462e+20
48.5057  1.54674e+20
48.623  1.46313e+20
48.7403  1.39917e+20
48.8576  1.35533e+20
48.9749  1.32927e+20
49.0922  1.31663e+20
49.2095  1.31179e+20
49.3269  1.30842e+20
49.4442  1.30298e+20
49.5615  1.29307e+20
49.6788  1.27877e+20
49.7961  1.26216e+20
49.9134  1.24709e+20
50.0307  1.23683e+20
50.148  1.23415e+20
50.2653  1.24082e+20
50.3826  1.25516e+20
50.4999  1.27388e+20
50.6172  1.29131e+20
50.7345  1.30132e+20
50.8518  1.29748e+20
