#S 1 spectral density
#N 2
#UFWHM 52.4353
#L  abscissas [um]  spectral density
-58.5938  4.22911e+20
-58.4764  4.33602e+20
-58.3591  4.45126e+20
-58.2418  4.56855e+20
-58.1245  4.68297e+20
-58.0072  4.79007e+20
-57.8899  4.88844e+20
-57.7726  4.97745e+20
-57.6553  5.05576e+20
-57.538  5.1226e+20
-57.4207  5.17599e+20
-57.3034  5.21289e+20
-57.1861  5.22988e+20
-57.0688  5.22583e+20
-56.9515  5.20037e+20
-56.8342  5.15658e+20
-56.7169  5.0995e+20
-56.5996  5.03686e+20
-56.4823  4.97702e+20
-56.365  4.92842e+20
-56.2477  4.89771e+20
-56.1303  4.88923e+20
-56.013  4.90642e+20
-55.8957  4.94867e+20
-55.7784  5.01757e+20
-55.6611  5.11022e+20
-55.5438  5.22419e+20
-55.4265  5.35782e+20
-55.3092  5.50615e+20
-55.1919  5.66282e+20
-55.0746  5.82049e+20
-54.9573  5.96906e+20
-54.84  6.09985e+20
-54.7227  6.20422e+20
-54.6054  6.27589e+20
-54.4881  6.31111e+20
-54.3708  6.30868e+20
-54.2535  6.27446e+20
-54.1362  6.21309e+20
-54.0189  6.13163e+20
-53.9016  6.03732e+20
-53.7842  5.93861e+20
-53.6669  5.84043e+20
-53.5496  5.74809e+20
-53.4323  5.66785e+20
-53.315  5.60273e+20
-53.1977  5.55922e+20
-53.0804  5.5391e+20
-52.9631  5.54486e+20
-52.8458  5.57602e+20
-52.7285  5.62933e+20
-52.6112  5.70022e+20
-52.4939  5.78246e+20
-52.3766  5.8685e+20
-52.2593  5.95368e+20
-52.142  6.03485e+20
-52.0247  6.11121e+20
-51.9074  6.187e+20
-51.7901  6.26573e+20
-51.6728  6.35539e+20
-51.5555  6.46107e+20
-51.4381  6.58786e+20
-51.3208  6.73731e+20
-51.2035  6.90918e+20
-51.0862  7.10249e+20
-50.9689  7.31122e+20
-50.8516  7.53011e+20
-50.7343  7.75298e+20
-50.617  7.97235e+20
-50.4997  8.18095e+20
-50.3824  8.37068e+20
-50.2651  8.53349e+20
-50.1478  8.66191e+20
-50.0305  8.75079e+20
-49.9132  8.79638e+20
-49.7959  8.7967e+20
-49.6786  8.75371e+20
-49.5613  8.67503e+20
-49.444  8.56958e+20
-49.3267  8.44841e+20
-49.2094  8.32535e+20
-49.092  8.2135e+20
-48.9747  8.1241e+20
-48.8574  8.06742e+20
-48.7401  8.04994e+20
-48.6228  8.0742e+20
-48.5055  8.14055e+20
-48.3882  8.24353e+20
-48.2709  8.37678e+20
-48.1536  8.52972e+20
-48.0363  8.69176e+20
-47.919  8.85222e+20
-47.8017  9.00244e+20
-47.6844  9.13506e+20
-47.5671  9.24945e+20
-47.4498  9.34587e+20
-47.3325  9.42901e+20
-47.2152  9.50626e+20
-47.0979  9.58631e+20
-46.9806  9.67932e+20
-46.8633  9.79271e+20
-46.7459  9.93236e+20
-46.6286  1.01028e+21
-46.5113  1.03051e+21
-46.394  1.05411e+21
-46.2767  1.08052e+21
-46.1594  1.10942e+21
-46.0421  1.14004e+21
-45.9248  1.17136e+21
-45.8075  1.20229e+21
-45.6902  1.23136e+21
-45.5729  1.25712e+21
-45.4556  1.2782e+21
-45.3383  1.29346e+21
-45.221  1.30229e+21
-45.1037  1.30451e+21
-44.9864  1.30047e+21
-44.8691  1.29142e+21
-44.7518  1.27897e+21
-44.6345  1.26513e+21
-44.5172  1.2519e+21
-44.3998  1.24122e+21
-44.2825  1.23491e+21
-44.1652  1.23437e+21
-44.0479  1.24045e+21
-43.9306  1.25362e+21
-43.8133  1.27373e+21
-43.696  1.30025e+21
-43.5787  1.33227e+21
-43.4614  1.36838e+21
-43.3441  1.4068e+21
-43.2268  1.44561e+21
-43.1095  1.4828e+21
-42.9922  1.51638e+21
-42.8749  1.54482e+21
-42.7576  1.56678e+21
-42.6403  1.58174e+21
-42.523  1.5896e+21
-42.4057  1.59117e+21
-42.2884  1.58761e+21
-42.171  1.58064e+21
-42.0537  1.57174e+21
-41.9364  1.56284e+21
-41.8191  1.55543e+21
-41.7018  1.55085e+21
-41.5845  1.54975e+21
-41.4672  1.55257e+21
-41.3499  1.55944e+21
-41.2326  1.56989e+21
-41.1153  1.58335e+21
-40.998  1.59903e+21
-40.8807  1.61582e+21
-40.7634  1.63291e+21
-40.6461  1.64932e+21
-40.5288  1.66447e+21
-40.4115  1.67799e+21
-40.2942  1.68958e+21
-40.1769  1.69963e+21
-40.0596  1.70871e+21
-39.9423  1.7175e+21
-39.825  1.72661e+21
-39.7076  1.73674e+21
-39.5903  1.74868e+21
-39.473  1.7628e+21
-39.3557  1.77939e+21
-39.2384  1.7988e+21
-39.1211  1.82111e+21
-39.0038  1.84613e+21
-38.8865  1.87384e+21
-38.7692  1.90386e+21
-38.6519  1.93554e+21
-38.5346  1.96813e+21
-38.4173  2.00071e+21
-38.3  2.03234e+21
-38.1827  2.06226e+21
-38.0654  2.08984e+21
-37.9481  2.11508e+21
-37.8308  2.13822e+21
-37.7135  2.16018e+21
-37.5962  2.18217e+21
-37.4789  2.20534e+21
-37.3615  2.23069e+21
-37.2442  2.25895e+21
-37.1269  2.29054e+21
-37.0096  2.32526e+21
-36.8923  2.36239e+21
-36.775  2.40101e+21
-36.6577  2.44025e+21
-36.5404  2.47913e+21
-36.4231  2.51676e+21
-36.3058  2.55264e+21
-36.1885  2.58601e+21
-36.0712  2.61637e+21
-35.9539  2.64327e+21
-35.8366  2.66608e+21
-35.7193  2.68449e+21
-35.602  2.69794e+21
-35.4847  2.7067e+21
-35.3674  2.71104e+21
-35.2501  2.7117e+21
-35.1328  2.70956e+21
-35.0154  2.70574e+21
-34.8981  2.70168e+21
-34.7808  2.69812e+21
-34.6635  2.69587e+21
-34.5462  2.69541e+21
-34.4289  2.69713e+21
-34.3116  2.70063e+21
-34.1943  2.70622e+21
-34.077  2.71391e+21
-33.9597  2.72382e+21
-33.8424  2.73603e+21
-33.7251  2.75084e+21
-33.6078  2.7684e+21
-33.4905  2.78883e+21
-33.3732  2.81185e+21
-33.2559  2.83748e+21
-33.1386  2.86513e+21
-33.0213  2.89458e+21
-32.904  2.92538e+21
-32.7867  2.95708e+21
-32.6693  2.98924e+21
-32.552  3.0213e+21
-32.4347  3.05304e+21
-32.3174  3.08371e+21
-32.2001  3.11292e+21
-32.0828  3.14024e+21
-31.9655  3.16528e+21
-31.8482  3.18813e+21
-31.7309  3.20882e+21
-31.6136  3.22815e+21
-31.4963  3.24659e+21
-31.379  3.26486e+21
-31.2617  3.28403e+21
-31.1444  3.30449e+21
-31.0271  3.3272e+21
-30.9098  3.35232e+21
-30.7925  3.38034e+21
-30.6752  3.41114e+21
-30.5579  3.44472e+21
-30.4406  3.48083e+21
-30.3232  3.51869e+21
-30.2059  3.55845e+21
-30.0886  3.59882e+21
-29.9713  3.63928e+21
-29.854  3.6791e+21
-29.7367  3.71778e+21
-29.6194  3.75467e+21
-29.5021  3.78983e+21
-29.3848  3.82324e+21
-29.2675  3.85548e+21
-29.1502  3.88649e+21
-29.0329  3.91679e+21
-28.9156  3.94653e+21
-28.7983  3.97597e+21
-28.681  4.00452e+21
-28.5637  4.03231e+21
-28.4464  4.0587e+21
-28.3291  4.08366e+21
-28.2118  4.10677e+21
-28.0944  4.12809e+21
-27.9771  4.1479e+21
-27.8598  4.1662e+21
-27.7425  4.18393e+21
-27.6252  4.20102e+21
-27.5079  4.21851e+21
-27.3906  4.23697e+21
-27.2733  4.25702e+21
-27.156  4.27968e+21
-27.0387  4.3056e+21
-26.9214  4.33586e+21
-26.8041  4.37111e+21
-26.6868  4.41145e+21
-26.5695  4.45692e+21
-26.4522  4.50658e+21
-26.3349  4.55965e+21
-26.2176  4.61439e+21
-26.1003  4.6688e+21
-25.983  4.72051e+21
-25.8657  4.76728e+21
-25.7483  4.80715e+21
-25.631  4.83796e+21
-25.5137  4.85935e+21
-25.3964  4.86995e+21
-25.2791  4.87022e+21
-25.1618  4.86102e+21
-25.0445  4.84392e+21
-24.9272  4.82119e+21
-24.8099  4.79543e+21
-24.6926  4.76977e+21
-24.5753  4.74752e+21
-24.458  4.73108e+21
-24.3407  4.72315e+21
-24.2234  4.72536e+21
-24.1061  4.73864e+21
-23.9888  4.76279e+21
-23.8715  4.79734e+21
-23.7542  4.84052e+21
-23.6369  4.89054e+21
-23.5196  4.94464e+21
-23.4023  5.00059e+21
-23.2849  5.05601e+21
-23.1676  5.10842e+21
-23.0503  5.15679e+21
-22.933  5.19912e+21
-22.8157  5.23541e+21
-22.6984  5.26567e+21
-22.5811  5.29068e+21
-22.4638  5.31211e+21
-22.3465  5.33137e+21
-22.2292  5.35104e+21
-22.1119  5.37294e+21
-21.9946  5.39877e+21
-21.8773  5.42953e+21
-21.76  5.46539e+21
-21.6427  5.50633e+21
-21.5254  5.55098e+21
-21.4081  5.59759e+21
-21.2908  5.64379e+21
-21.1735  5.68725e+21
-21.0561  5.72592e+21
-20.9388  5.75796e+21
-20.8215  5.78282e+21
-20.7042  5.79955e+21
-20.5869  5.80886e+21
-20.4696  5.81216e+21
-20.3523  5.81143e+21
-20.235  5.80961e+21
-20.1177  5.80927e+21
-20.0004  5.81376e+21
-19.8831  5.82649e+21
-19.7658  5.84962e+21
-19.6485  5.88494e+21
-19.5312  5.93342e+21
-19.4139  5.9946e+21
-19.2966  6.06704e+21
-19.1793  6.14799e+21
-19.062  6.23418e+21
-18.9447  6.32148e+21
-18.8274  6.4053e+21
-18.71  6.48182e+21
-18.5927  6.54757e+21
-18.4754  6.59963e+21
-18.3581  6.63705e+21
-18.2408  6.65875e+21
-18.1235  6.66613e+21
-18.0062  6.66102e+21
-17.8889  6.64644e+21
-17.7716  6.62624e+21
-17.6543  6.60379e+21
-17.537  6.58367e+21
-17.4197  6.56906e+21
-17.3024  6.56304e+21
-17.1851  6.56729e+21
-17.0678  6.58242e+21
-16.9505  6.60842e+21
-16.8332  6.6439e+21
-16.7159  6.68624e+21
-16.5986  6.73223e+21
-16.4813  6.77873e+21
-16.364  6.82244e+21
-16.2466  6.86073e+21
-16.1293  6.89176e+21
-16.012  6.91376e+21
-15.8947  6.92711e+21
-15.7774  6.9325e+21
-15.6601  6.93143e+21
-15.5428  6.92672e+21
-15.4255  6.92069e+21
-15.3082  6.91639e+21
-15.1909  6.91717e+21
-15.0736  6.92495e+21
-14.9563  6.94175e+21
-14.839  6.96828e+21
-14.7217  7.00443e+21
-14.6044  7.049e+21
-14.4871  7.09937e+21
-14.3698  7.15299e+21
-14.2525  7.20577e+21
-14.1352  7.25395e+21
-14.0178  7.29439e+21
-13.9005  7.32436e+21
-13.7832  7.34252e+21
-13.6659  7.34846e+21
-13.5486  7.34309e+21
-13.4313  7.32887e+21
-13.314  7.30873e+21
-13.1967  7.28676e+21
-13.0794  7.2669e+21
-12.9621  7.25267e+21
-12.8448  7.24773e+21
-12.7275  7.25431e+21
-12.6102  7.27423e+21
-12.4929  7.30752e+21
-12.3756  7.3535e+21
-12.2583  7.41041e+21
-12.141  7.47589e+21
-12.0237  7.54603e+21
-11.9064  7.61695e+21
-11.7891  7.68468e+21
-11.6718  7.74554e+21
-11.5544  7.79705e+21
-11.4371  7.83679e+21
-11.3198  7.86377e+21
-11.2025  7.87871e+21
-11.0852  7.88281e+21
-10.9679  7.8782e+21
-10.8506  7.86827e+21
-10.7333  7.85596e+21
-10.616  7.84421e+21
-10.4987  7.83629e+21
-10.3814  7.83397e+21
-10.2641  7.83895e+21
-10.1468  7.8515e+21
-10.0295  7.87139e+21
-9.91217  7.89763e+21
-9.79487  7.92832e+21
-9.67756  7.96166e+21
-9.56026  7.99491e+21
-9.44295  8.02591e+21
-9.32565  8.05294e+21
-9.20834  8.07475e+21
-9.09104  8.09109e+21
-8.97373  8.10227e+21
-8.85643  8.10966e+21
-8.73913  8.11547e+21
-8.62182  8.12225e+21
-8.50452  8.13282e+21
-8.38721  8.14971e+21
-8.26991  8.1746e+21
-8.1526  8.20877e+21
-8.03529  8.25203e+21
-7.91799  8.30338e+21
-7.80069  8.3602e+21
-7.68338  8.41956e+21
-7.56608  8.47735e+21
-7.44877  8.52991e+21
-7.33146  8.57269e+21
-7.21416  8.6025e+21
-7.09685  8.61639e+21
-6.97955  8.61331e+21
-6.86224  8.59369e+21
-6.74494  8.55837e+21
-6.62763  8.51064e+21
-6.51033  8.45467e+21
-6.39302  8.39525e+21
-6.27572  8.33717e+21
-6.15842  8.28591e+21
-6.04111  8.24565e+21
-5.92381  8.21974e+21
-5.8065  8.21069e+21
-5.68919  8.21928e+21
-5.57189  8.24522e+21
-5.45458  8.2864e+21
-5.33728  8.34002e+21
-5.21997  8.40213e+21
-5.10267  8.46823e+21
-4.98536  8.53373e+21
-4.86806  8.59395e+21
-4.75075  8.64498e+21
-4.63345  8.68428e+21
-4.51614  8.70986e+21
-4.39884  8.72177e+21
-4.28154  8.72076e+21
-4.16423  8.70944e+21
-4.04692  8.6909e+21
-3.92962  8.66905e+21
-3.81231  8.6478e+21
-3.69501  8.63049e+21
-3.5777  8.62001e+21
-3.4604  8.61755e+21
-3.34309  8.62348e+21
-3.22579  8.63693e+21
-3.10849  8.65553e+21
-2.99118  8.67669e+21
-2.87387  8.69629e+21
-2.75657  8.71156e+21
-2.63926  8.71865e+21
-2.52196  8.71582e+21
-2.40465  8.70145e+21
-2.28735  8.67584e+21
-2.17005  8.64075e+21
-2.05274  8.59818e+21
-1.93544  8.55252e+21
-1.81813  8.50824e+21
-1.70083  8.47027e+21
-1.58352  8.44323e+21
-1.46622  8.43171e+21
-1.34891  8.43887e+21
-1.2316  8.46665e+21
-1.1143  8.51521e+21
-0.996995  8.58328e+21
-0.87969  8.66767e+21
-0.762385  8.76356e+21
-0.64508  8.86464e+21
-0.527775  8.96417e+21
-0.41047  9.05474e+21
-0.293165  9.1297e+21
-0.17586  9.18302e+21
-0.058555  9.2106e+21
0.05875  9.21049e+21
0.176055  9.18222e+21
0.29336  9.12862e+21
0.410665  9.05326e+21
0.52797  8.96262e+21
0.645275  8.86311e+21
0.76258  8.76214e+21
0.879885  8.66665e+21
0.99719  8.58266e+21
1.1145  8.51524e+21
1.2318  8.46723e+21
1.3491  8.44007e+21
1.46641  8.43353e+21
1.58371  8.44573e+21
1.70102  8.47359e+21
1.81832  8.51217e+21
1.93563  8.55711e+21
2.05294  8.60313e+21
2.17024  8.64589e+21
2.28754  8.68163e+21
2.40485  8.70738e+21
2.52216  8.72226e+21
2.63946  8.72505e+21
2.75677  8.71819e+21
2.87407  8.70336e+21
2.99137  8.68371e+21
3.10868  8.66292e+21
3.22599  8.64447e+21
3.34329  8.63133e+21
3.4606  8.62568e+21
3.5779  8.62821e+21
3.69521  8.63904e+21
3.81251  8.65639e+21
3.92982  8.67786e+21
4.04712  8.6997e+21
4.16443  8.71839e+21
4.28173  8.72982e+21
4.39903  8.73086e+21
4.51634  8.71905e+21
4.63364  8.69356e+21
4.75095  8.65471e+21
4.86825  8.60393e+21
4.98556  8.5443e+21
5.10286  8.47935e+21
5.22017  8.41405e+21
5.33748  8.35284e+21
5.45478  8.30004e+21
5.57209  8.25978e+21
5.68939  8.23479e+21
5.8067  8.22717e+21
5.924  8.23691e+21
6.0413  8.26338e+21
6.15861  8.30413e+21
6.27591  8.35595e+21
6.39322  8.41431e+21
6.51052  8.47402e+21
6.62783  8.52998e+21
6.74514  8.57734e+21
6.86244  8.61216e+21
6.97975  8.63194e+21
7.09705  8.63454e+21
7.21436  8.6205e+21
7.33166  8.59029e+21
7.44897  8.54751e+21
7.56627  8.49511e+21
7.68358  8.43715e+21
7.80088  8.37815e+21
7.91819  8.32156e+21
8.03549  8.27081e+21
8.1528  8.22824e+21
8.2701  8.19453e+21
8.38741  8.17022e+21
8.50471  8.15388e+21
8.62202  8.14393e+21
8.73932  8.13747e+21
8.85662  8.13208e+21
8.97393  8.12495e+21
9.09123  8.11401e+21
9.20854  8.09782e+21
9.32584  8.07622e+21
9.44315  8.04935e+21
9.56045  8.01842e+21
9.67776  7.98535e+21
9.79506  7.95209e+21
9.91237  7.92166e+21
10.0297  7.8956e+21
10.147  7.87594e+21
10.2643  7.86351e+21
10.3816  7.85871e+21
10.4989  7.86129e+21
10.6162  7.86933e+21
10.7335  7.88087e+21
10.8508  7.89309e+21
10.9681  7.90301e+21
11.0854  7.90749e+21
11.2027  7.90337e+21
11.32  7.88818e+21
11.4373  7.8607e+21
11.5546  7.82073e+21
11.6719  7.76935e+21
11.7893  7.70831e+21
11.9066  7.6406e+21
12.0239  7.56973e+21
12.1412  7.50017e+21
12.2585  7.43524e+21
12.3758  7.37868e+21
12.4931  7.33339e+21
12.6104  7.30057e+21
12.7277  7.28146e+21
12.845  7.2757e+21
12.9623  7.28116e+21
13.0796  7.29595e+21
13.1969  7.31635e+21
13.3142  7.33871e+21
13.4315  7.35896e+21
13.5488  7.37318e+21
13.6661  7.37854e+21
13.7834  7.3724e+21
13.9007  7.35399e+21
14.018  7.32386e+21
14.1354  7.28314e+21
14.2527  7.23475e+21
14.37  7.18194e+21
14.4873  7.12837e+21
14.6046  7.07803e+21
14.7219  7.03371e+21
14.8392  6.99797e+21
14.9565  6.97179e+21
15.0738  6.95535e+21
15.1911  6.94813e+21
15.3084  6.94792e+21
15.4257  6.95248e+21
15.543  6.95872e+21
15.6603  6.96389e+21
15.7776  6.96519e+21
15.8949  6.96014e+21
16.0122  6.94675e+21
16.1295  6.9246e+21
16.2468  6.89374e+21
16.3641  6.85541e+21
16.4815  6.81184e+21
16.5988  6.76513e+21
16.7161  6.71922e+21
16.8334  6.67738e+21
16.9507  6.6422e+21
17.068  6.61643e+21
17.1853  6.60162e+21
17.3026  6.59766e+21
17.4199  6.60417e+21
17.5372  6.61934e+21
17.6545  6.63975e+21
17.7718  6.66238e+21
17.8891  6.6829e+21
18.0064  6.69756e+21
18.1237  6.70265e+21
18.241  6.6951e+21
18.3583  6.67317e+21
18.4756  6.63558e+21
18.5929  6.583e+21
18.7102  6.51715e+21
18.8275  6.44017e+21
18.9449  6.35611e+21
19.0622  6.26863e+21
19.1795  6.18241e+21
19.2968  6.10134e+21
19.4141  6.02893e+21
19.5314  5.96812e+21
19.6487  5.91998e+21
19.766  5.8849e+21
19.8833  5.86225e+21
20.0006  5.85004e+21
20.1179  5.84589e+21
20.2352  5.84644e+21
20.3525  5.84876e+21
20.4698  5.84965e+21
20.5871  5.84663e+21
20.7044  5.83717e+21
20.8217  5.82034e+21
20.939  5.7956e+21
21.0563  5.76318e+21
21.1736  5.72435e+21
21.291  5.6803e+21
21.4083  5.63388e+21
21.5256  5.58716e+21
21.6429  5.54223e+21
21.7602  5.50097e+21
21.8775  5.46479e+21
21.9948  5.43375e+21
22.1121  5.40784e+21
22.2294  5.38594e+21
22.3467  5.36608e+21
22.464  5.34661e+21
22.5813  5.32512e+21
22.6986  5.29999e+21
22.8159  5.26962e+21
22.9332  5.23319e+21
23.0505  5.1908e+21
23.1678  5.14243e+21
23.2851  5.08988e+21
23.4024  5.03469e+21
23.5198  4.97861e+21
23.6371  4.92461e+21
23.7544  4.87473e+21
23.8717  4.8318e+21
23.989  4.79747e+21
24.1063  4.77345e+21
24.2236  4.76065e+21
24.3409  4.75888e+21
24.4582  4.76714e+21
24.5755  4.78385e+21
24.6928  4.80656e+21
24.8101  4.83266e+21
24.9274  4.85861e+21
25.0447  4.88161e+21
25.162  4.89876e+21
25.2793  4.90808e+21
25.3966  4.90773e+21
25.5139  4.89701e+21
25.6312  4.87567e+21
25.7485  4.84442e+21
25.8658  4.80444e+21
25.9832  4.75716e+21
26.1005  4.70527e+21
26.2178  4.65065e+21
26.3351  4.59566e+21
26.4524  4.54225e+21
26.5697  4.49224e+21
26.687  4.44665e+21
26.8043  4.4062e+21
26.9216  4.37104e+21
27.0389  4.34075e+21
27.1562  4.31477e+21
27.2735  4.29223e+21
27.3908  4.27218e+21
27.5081  4.25386e+21
27.6254  4.23649e+21
27.7427  4.21942e+21
27.86  4.20184e+21
27.9773  4.18356e+21
28.0946  4.16392e+21
28.212  4.14244e+21
28.3293  4.11923e+21
28.4466  4.09417e+21
28.5639  4.06769e+21
28.6812  4.03973e+21
28.7985  4.01087e+21
28.9158  3.98138e+21
29.0331  3.95143e+21
29.1504  3.92091e+21
29.2677  3.8897e+21
29.385  3.85744e+21
29.5023  3.82384e+21
29.6196  3.78859e+21
29.7369  3.75151e+21
29.8542  3.71272e+21
29.9715  3.67281e+21
30.0888  3.63227e+21
30.2061  3.59192e+21
30.3234  3.55226e+21
30.4407  3.514e+21
30.558  3.47794e+21
30.6754  3.44411e+21
30.7927  3.41328e+21
30.91  3.38507e+21
31.0273  3.35975e+21
31.1446  3.33683e+21
31.2619  3.31598e+21
31.3792  3.2967e+21
31.4965  3.27815e+21
31.6138  3.25945e+21
31.7311  3.24004e+21
31.8484  3.21898e+21
31.9657  3.19601e+21
32.083  3.17066e+21
32.2003  3.14329e+21
32.3176  3.11397e+21
32.4349  3.08312e+21
32.5522  3.05134e+21
32.6695  3.01915e+21
32.7868  2.987e+21
32.9042  2.95516e+21
33.0215  2.92426e+21
33.1388  2.8947e+21
33.2561  2.86694e+21
33.3734  2.84117e+21
33.4907  2.81801e+21
33.608  2.79744e+21
33.7253  2.77982e+21
33.8426  2.76494e+21
33.9599  2.75259e+21
34.0772  2.74269e+21
34.1945  2.73504e+21
34.3118  2.72958e+21
34.4291  2.72602e+21
34.5464  2.72454e+21
34.6637  2.7251e+21
34.781  2.72744e+21
34.8983  2.73117e+21
35.0156  2.7355e+21
35.1329  2.73914e+21
35.2503  2.74129e+21
35.3676  2.74057e+21
35.4849  2.73618e+21
35.6022  2.72706e+21
35.7195  2.71332e+21
35.8368  2.69465e+21
35.9541  2.67143e+21
36.0714  2.64424e+21
36.1887  2.61353e+21
36.306  2.57978e+21
36.4233  2.54373e+21
36.5406  2.50571e+21
36.6579  2.46664e+21
36.7752  2.42712e+21
36.8925  2.38833e+21
37.0098  2.35115e+21
37.1271  2.31641e+21
37.2444  2.28482e+21
37.3617  2.25653e+21
37.479  2.23112e+21
37.5964  2.20791e+21
37.7137  2.18578e+21
37.831  2.16354e+21
37.9483  2.14009e+21
38.0656  2.11451e+21
38.1829  2.08657e+21
38.3002  2.05621e+21
38.4175  2.02418e+21
38.5348  1.99124e+21
38.6521  1.95825e+21
38.7694  1.9263e+21
38.8867  1.8961e+21
39.004  1.86825e+21
39.1213  1.84294e+21
39.2386  1.82058e+21
39.3559  1.80109e+21
39.4732  1.78437e+21
39.5905  1.77031e+21
39.7078  1.75845e+21
39.8251  1.74816e+21
39.9425  1.73899e+21
40.0598  1.73022e+21
40.1771  1.72107e+21
40.2944  1.7107e+21
40.4117  1.69891e+21
40.529  1.68525e+21
40.6463  1.66984e+21
40.7636  1.6532e+21
40.8809  1.636e+21
40.9982  1.61892e+21
41.1155  1.60326e+21
41.2328  1.5897e+21
41.3501  1.57924e+21
41.4674  1.5724e+21
41.5847  1.56961e+21
41.702  1.57088e+21
41.8193  1.57559e+21
41.9366  1.5831e+21
42.0539  1.59206e+21
42.1712  1.60088e+21
42.2885  1.60786e+21
42.4059  1.61114e+21
42.5232  1.60927e+21
42.6405  1.60099e+21
42.7578  1.58564e+21
42.8751  1.56321e+21
42.9924  1.5343e+21
43.1097  1.50023e+21
43.227  1.46268e+21
43.3443  1.42347e+21
43.4616  1.38477e+21
43.5789  1.34857e+21
43.6962  1.31655e+21
43.8135  1.28997e+21
43.9308  1.26995e+21
44.0481  1.25699e+21
44.1654  1.25114e+21
44.2827  1.25194e+21
44.4  1.25847e+21
44.5173  1.26931e+21
44.6347  1.28261e+21
44.752  1.29656e+21
44.8693  1.30891e+21
44.9866  1.31768e+21
45.1039  1.32136e+21
45.2212  1.3188e+21
45.3385  1.30949e+21
45.4558  1.2937e+21
45.5731  1.27212e+21
45.6904  1.2458e+21
45.8077  1.21636e+21
45.925  1.18502e+21
46.0423  1.15337e+21
46.1596  1.12243e+21
46.2769  1.09334e+21
46.3942  1.06684e+21
46.5115  1.04323e+21
46.6288  1.02295e+21
46.7461  1.00595e+21
46.8634  9.91984e+20
46.9808  9.80752e+20
47.0981  9.71451e+20
47.2154  9.63419e+20
47.3327  9.55611e+20
47.45  9.47189e+20
47.5673  9.37414e+20
47.6846  9.2573e+20
47.8019  9.12157e+20
47.9192  8.96932e+20
48.0365  8.80641e+20
48.1538  8.64237e+20
48.2711  8.48772e+20
48.3884  8.35431e+20
48.5057  8.25067e+20
48.623  8.1847e+20
48.7403  8.16059e+20
48.8576  8.17888e+20
48.9749  8.23653e+20
49.0922  8.32708e+20
49.2095  8.44008e+20
49.3269  8.5627e+20
49.4442  8.68376e+20
49.5615  8.78857e+20
49.6788  8.86503e+20
49.7961  8.90512e+20
49.9134  8.902e+20
50.0307  8.85376e+20
50.148  8.76135e+20
50.2653  8.62932e+20
50.3826  8.46267e+20
50.4999  8.26986e+20
50.6172  8.05822e+20
50.7345  7.83661e+20
50.8518  7.61111e+20
