#S 1 spectral density
#N 2
#UFWHM 20.6457
#L  abscissas [um]  spectral density
-58.5938  1.24192e+20
-58.4764  1.25956e+20
-58.3591  1.29113e+20
-58.2418  1.33334e+20
-58.1245  1.38237e+20
-58.0072  1.43632e+20
-57.8899  1.4919e+20
-57.7726  1.5475e+20
-57.6553  1.60032e+20
-57.538  1.64756e+20
-57.4207  1.68464e+20
-57.3034  1.70705e+20
-57.1861  1.70986e+20
-57.0688  1.69018e+20
-56.9515  1.64696e+20
-56.8342  1.58218e+20
-56.7169  1.50134e+20
-56.5996  1.41097e+20
-56.4823  1.31985e+20
-56.365  1.23598e+20
-56.2477  1.16587e+20
-56.1303  1.11405e+20
-56.013  1.08331e+20
-55.8957  1.07502e+20
-55.7784  1.08874e+20
-55.6611  1.12393e+20
-55.5438  1.17964e+20
-55.4265  1.254e+20
-55.3092  1.34431e+20
-55.1919  1.44629e+20
-55.0746  1.55403e+20
-54.9573  1.66019e+20
-54.84  1.75758e+20
-54.7227  1.83812e+20
-54.6054  1.89676e+20
-54.4881  1.9302e+20
-54.3708  1.93829e+20
-54.2535  1.92285e+20
-54.1362  1.88848e+20
-54.0189  1.84038e+20
-53.9016  1.7836e+20
-53.7842  1.72285e+20
-53.6669  1.6629e+20
-53.5496  1.6078e+20
-53.4323  1.56053e+20
-53.315  1.52602e+20
-53.1977  1.50687e+20
-53.0804  1.50612e+20
-52.9631  1.52508e+20
-52.8458  1.56371e+20
-52.7285  1.61823e+20
-52.6112  1.68344e+20
-52.4939  1.75165e+20
-52.3766  1.81574e+20
-52.2593  1.86864e+20
-52.142  1.90543e+20
-52.0247  1.9246e+20
-51.9074  1.92679e+20
-51.7901  1.91614e+20
-51.6728  1.89769e+20
-51.5555  1.87775e+20
-51.4381  1.8607e+20
-51.3208  1.85135e+20
-51.2035  1.853e+20
-51.0862  1.86755e+20
-50.9689  1.89652e+20
-50.8516  1.94062e+20
-50.7343  2.00054e+20
-50.617  2.07574e+20
-50.4997  2.16503e+20
-50.3824  2.2657e+20
-50.2651  2.37315e+20
-50.1478  2.48169e+20
-50.0305  2.58418e+20
-49.9132  2.67338e+20
-49.7959  2.74314e+20
-49.6786  2.78777e+20
-49.5613  2.80464e+20
-49.444  2.79428e+20
-49.3267  2.75847e+20
-49.2094  2.7009e+20
-49.092  2.62786e+20
-48.9747  2.54568e+20
-48.8574  2.46268e+20
-48.7401  2.38432e+20
-48.6228  2.31828e+20
-48.5055  2.26841e+20
-48.3882  2.237e+20
-48.2709  2.22539e+20
-48.1536  2.23271e+20
-48.0363  2.25475e+20
-47.919  2.28705e+20
-47.8017  2.32368e+20
-47.6844  2.35988e+20
-47.5671  2.38988e+20
-47.4498  2.40989e+20
-47.3325  2.41765e+20
-47.2152  2.41144e+20
-47.0979  2.39141e+20
-46.9806  2.35764e+20
-46.8633  2.3121e+20
-46.7459  2.25576e+20
-46.6286  2.19171e+20
-46.5113  2.12459e+20
-46.394  2.05904e+20
-46.2767  2.00255e+20
-46.1594  1.96176e+20
-46.0421  1.94334e+20
-45.9248  1.95194e+20
-45.8075  1.99017e+20
-45.6902  2.05689e+20
-45.5729  2.14749e+20
-45.4556  2.25385e+20
-45.3383  2.36727e+20
-45.221  2.47684e+20
-45.1037  2.57431e+20
-44.9864  2.65176e+20
-44.8691  2.70522e+20
-44.7518  2.73375e+20
-44.6345  2.73832e+20
-44.5172  2.72058e+20
-44.3998  2.68493e+20
-44.2825  2.63533e+20
-44.1652  2.57786e+20
-44.0479  2.51624e+20
-43.9306  2.45767e+20
-43.8133  2.40719e+20
-43.696  2.36907e+20
-43.5787  2.34893e+20
-43.4614  2.34989e+20
-43.3441  2.37132e+20
-43.2268  2.41153e+20
-43.1095  2.46504e+20
-42.9922  2.52564e+20
-42.8749  2.58411e+20
-42.7576  2.63287e+20
-42.6403  2.6661e+20
-42.523  2.67975e+20
-42.4057  2.67352e+20
-42.2884  2.64927e+20
-42.171  2.61212e+20
-42.0537  2.56777e+20
-41.9364  2.52281e+20
-41.8191  2.48428e+20
-41.7018  2.45654e+20
-41.5845  2.4451e+20
-41.4672  2.45211e+20
-41.3499  2.4785e+20
-41.2326  2.52366e+20
-41.1153  2.58591e+20
-40.998  2.66132e+20
-40.8807  2.74525e+20
-40.7634  2.83084e+20
-40.6461  2.91319e+20
-40.5288  2.98495e+20
-40.4115  3.04232e+20
-40.2942  3.08162e+20
-40.1769  3.10139e+20
-40.0596  3.10256e+20
-39.9423  3.08763e+20
-39.825  3.05865e+20
-39.7076  3.01975e+20
-39.5903  2.97464e+20
-39.473  2.92816e+20
-39.3557  2.88415e+20
-39.2384  2.84825e+20
-39.1211  2.82527e+20
-39.0038  2.81955e+20
-38.8865  2.83642e+20
-38.7692  2.87856e+20
-38.6519  2.94546e+20
-38.5346  3.03531e+20
-38.4173  3.14252e+20
-38.3  3.26032e+20
-38.1827  3.37952e+20
-38.0654  3.49338e+20
-37.9481  3.59698e+20
-37.8308  3.68835e+20
-37.7135  3.76875e+20
-37.5962  3.84206e+20
-37.4789  3.9132e+20
-37.3615  3.98689e+20
-37.2442  4.06586e+20
-37.1269  4.15025e+20
-37.0096  4.23766e+20
-36.8923  4.32469e+20
-36.775  4.40714e+20
-36.6577  4.48125e+20
-36.5404  4.54506e+20
-36.4231  4.60011e+20
-36.3058  4.64687e+20
-36.1885  4.68866e+20
-36.0712  4.72557e+20
-35.9539  4.75969e+20
-35.8366  4.7877e+20
-35.7193  4.80713e+20
-35.602  4.81572e+20
-35.4847  4.80976e+20
-35.3674  4.78982e+20
-35.2501  4.75862e+20
-35.1328  4.71941e+20
-35.0154  4.67881e+20
-34.8981  4.64082e+20
-34.7808  4.6113e+20
-34.6635  4.59245e+20
-34.5462  4.58414e+20
-34.4289  4.58501e+20
-34.3116  4.59214e+20
-34.1943  4.60403e+20
-34.077  4.61888e+20
-33.9597  4.63552e+20
-33.8424  4.65618e+20
-33.7251  4.68279e+20
-33.6078  4.71702e+20
-33.4905  4.7595e+20
-33.3732  4.81176e+20
-33.2559  4.8727e+20
-33.1386  4.94182e+20
-33.0213  5.01724e+20
-32.904  5.09856e+20
-32.7867  5.18382e+20
-32.6693  5.27184e+20
-32.552  5.36134e+20
-32.4347  5.44745e+20
-32.3174  5.52841e+20
-32.2001  5.59906e+20
-32.0828  5.65634e+20
-31.9655  5.69649e+20
-31.8482  5.71786e+20
-31.7309  5.72319e+20
-31.6136  5.71351e+20
-31.4963  5.69524e+20
-31.379  5.67342e+20
-31.2617  5.65649e+20
-31.1444  5.64964e+20
-31.0271  5.657e+20
-30.9098  5.68418e+20
-30.7925  5.73111e+20
-30.6752  5.79962e+20
-30.5579  5.88966e+20
-30.4406  5.99756e+20
-30.3232  6.12078e+20
-30.2059  6.25146e+20
-30.0886  6.38527e+20
-29.9713  6.51464e+20
-29.854  6.6316e+20
-29.7367  6.73092e+20
-29.6194  6.8084e+20
-29.5021  6.86406e+20
-29.3848  6.89889e+20
-29.2675  6.91536e+20
-29.1502  6.92103e+20
-29.0329  6.92156e+20
-28.9156  6.92218e+20
-28.7983  6.9262e+20
-28.681  6.93758e+20
-28.5637  6.95674e+20
-28.4464  6.98432e+20
-28.3291  7.01968e+20
-28.2118  7.06376e+20
-28.0944  7.11525e+20
-27.9771  7.17427e+20
-27.8598  7.24002e+20
-27.7425  7.30755e+20
-27.6252  7.37637e+20
-27.5079  7.44009e+20
-27.3906  7.49589e+20
-27.2733  7.53879e+20
-27.156  7.56679e+20
-27.0387  7.58212e+20
-26.9214  7.58457e+20
-26.8041  7.58058e+20
-26.6868  7.57476e+20
-26.5695  7.57526e+20
-26.4522  7.58695e+20
-26.3349  7.61234e+20
-26.2176  7.65582e+20
-26.1003  7.71508e+20
-25.983  7.78945e+20
-25.8657  7.87652e+20
-25.7483  7.96995e+20
-25.631  8.06538e+20
-25.5137  8.15393e+20
-25.3964  8.23231e+20
-25.2791  8.29397e+20
-25.1618  8.33368e+20
-25.0445  8.34999e+20
-24.9272  8.34231e+20
-24.8099  8.31505e+20
-24.6926  8.27352e+20
-24.5753  8.22497e+20
-24.458  8.18091e+20
-24.3407  8.15185e+20
-24.2234  8.14753e+20
-24.1061  8.17599e+20
-23.9888  8.24471e+20
-23.8715  8.35734e+20
-23.7542  8.51515e+20
-23.6369  8.71655e+20
-23.5196  8.95923e+20
-23.4023  9.23622e+20
-23.2849  9.53936e+20
-23.1676  9.85836e+20
-23.0503  1.01795e+21
-22.933  1.04921e+21
-22.8157  1.07814e+21
-22.6984  1.10379e+21
-22.5811  1.1252e+21
-22.4638  1.14204e+21
-22.3465  1.15445e+21
-22.2292  1.16279e+21
-22.1119  1.1681e+21
-21.9946  1.17156e+21
-21.8773  1.17478e+21
-21.76  1.17915e+21
-21.6427  1.18605e+21
-21.5254  1.1969e+21
-21.4081  1.21257e+21
-21.2908  1.23391e+21
-21.1735  1.2615e+21
-21.0561  1.2953e+21
-20.9388  1.33527e+21
-20.8215  1.38076e+21
-20.7042  1.43087e+21
-20.5869  1.48439e+21
-20.4696  1.53973e+21
-20.3523  1.59538e+21
-20.235  1.64963e+21
-20.1177  1.70114e+21
-20.0004  1.74873e+21
-19.8831  1.79185e+21
-19.7658  1.83022e+21
-19.6485  1.86433e+21
-19.5312  1.89494e+21
-19.4139  1.92335e+21
-19.2966  1.95091e+21
-19.1793  1.97941e+21
-19.062  2.01036e+21
-18.9447  2.0453e+21
-18.8274  2.08557e+21
-18.71  2.13245e+21
-18.5927  2.18646e+21
-18.4754  2.24792e+21
-18.3581  2.31673e+21
-18.2408  2.39237e+21
-18.1235  2.47367e+21
-18.0062  2.55944e+21
-17.8889  2.64807e+21
-17.7716  2.73827e+21
-17.6543  2.82837e+21
-17.537  2.91747e+21
-17.4197  3.00467e+21
-17.3024  3.08984e+21
-17.1851  3.17332e+21
-17.0678  3.25562e+21
-16.9505  3.33808e+21
-16.8332  3.42219e+21
-16.7159  3.5094e+21
-16.5986  3.60127e+21
-16.4813  3.6993e+21
-16.364  3.80435e+21
-16.2466  3.91727e+21
-16.1293  4.03838e+21
-16.012  4.16662e+21
-15.8947  4.30117e+21
-15.7774  4.43999e+21
-15.6601  4.58096e+21
-15.5428  4.7213e+21
-15.4255  4.85836e+21
-15.3082  4.9896e+21
-15.1909  5.11364e+21
-15.0736  5.22872e+21
-14.9563  5.33504e+21
-14.839  5.43331e+21
-14.7217  5.52544e+21
-14.6044  5.61364e+21
-14.4871  5.70137e+21
-14.3698  5.79182e+21
-14.2525  5.88834e+21
-14.1352  5.99391e+21
-14.0178  6.11174e+21
-13.9005  6.24332e+21
-13.7832  6.38969e+21
-13.6659  6.55133e+21
-13.5486  6.72719e+21
-13.4313  6.91519e+21
-13.314  7.11257e+21
-13.1967  7.31559e+21
-13.0794  7.52082e+21
-12.9621  7.72327e+21
-12.8448  7.91978e+21
-12.7275  8.10654e+21
-12.6102  8.28164e+21
-12.4929  8.44393e+21
-12.3756  8.59326e+21
-12.2583  8.73154e+21
-12.141  8.86135e+21
-12.0237  8.98579e+21
-11.9064  9.1085e+21
-11.7891  9.2334e+21
-11.6718  9.3635e+21
-11.5544  9.50181e+21
-11.4371  9.65086e+21
-11.3198  9.81054e+21
-11.2025  9.98127e+21
-11.0852  1.01617e+22
-10.9679  1.035e+22
-10.8506  1.05433e+22
-10.7333  1.07382e+22
-10.616  1.09314e+22
-10.4987  1.11208e+22
-10.3814  1.13031e+22
-10.2641  1.14775e+22
-10.1468  1.16436e+22
-10.0295  1.18026e+22
-9.91217  1.19559e+22
-9.79487  1.21068e+22
-9.67756  1.22583e+22
-9.56026  1.24135e+22
-9.44295  1.25751e+22
-9.32565  1.27464e+22
-9.20834  1.29279e+22
-9.09104  1.312e+22
-8.97373  1.33225e+22
-8.85643  1.35331e+22
-8.73913  1.37491e+22
-8.62182  1.39671e+22
-8.50452  1.41833e+22
-8.38721  1.43949e+22
-8.26991  1.45976e+22
-8.1526  1.47898e+22
-8.03529  1.49695e+22
-7.91799  1.5137e+22
-7.80069  1.52933e+22
-7.68338  1.54403e+22
-7.56608  1.55819e+22
-7.44877  1.57223e+22
-7.33146  1.58657e+22
-7.21416  1.60162e+22
-7.09685  1.61779e+22
-6.97955  1.63529e+22
-6.86224  1.65429e+22
-6.74494  1.67485e+22
-6.62763  1.69671e+22
-6.51033  1.71958e+22
-6.39302  1.74303e+22
-6.27572  1.76657e+22
-6.15842  1.7896e+22
-6.04111  1.81154e+22
-5.92381  1.83189e+22
-5.8065  1.85038e+22
-5.68919  1.86667e+22
-5.57189  1.88077e+22
-5.45458  1.89282e+22
-5.33728  1.90314e+22
-5.21997  1.91214e+22
-5.10267  1.92038e+22
-4.98536  1.92841e+22
-4.86806  1.93671e+22
-4.75075  1.94575e+22
-4.63345  1.95588e+22
-4.51614  1.96724e+22
-4.39884  1.97985e+22
-4.28154  1.99361e+22
-4.16423  2.00827e+22
-4.04692  2.02346e+22
-3.92962  2.03878e+22
-3.81231  2.05383e+22
-3.69501  2.06826e+22
-3.5777  2.08172e+22
-3.4604  2.09407e+22
-3.34309  2.1052e+22
-3.22579  2.11522e+22
-3.10849  2.12432e+22
-2.99118  2.13278e+22
-2.87387  2.14101e+22
-2.75657  2.1494e+22
-2.63926  2.15833e+22
-2.52196  2.16807e+22
-2.40465  2.17879e+22
-2.28735  2.19046e+22
-2.17005  2.20294e+22
-2.05274  2.21588e+22
-1.93544  2.22875e+22
-1.81813  2.24093e+22
-1.70083  2.25176e+22
-1.58352  2.2606e+22
-1.46622  2.26687e+22
-1.34891  2.27014e+22
-1.2316  2.2702e+22
-1.1143  2.26709e+22
-0.996995  2.26106e+22
-0.87969  2.2526e+22
-0.762385  2.24243e+22
-0.64508  2.23137e+22
-0.527775  2.22033e+22
-0.41047  2.21021e+22
-0.293165  2.20184e+22
-0.17586  2.1959e+22
-0.058555  2.19288e+22
0.05875  2.19303e+22
0.176055  2.19635e+22
0.29336  2.20258e+22
0.410665  2.21123e+22
0.52797  2.22161e+22
0.645275  2.2329e+22
0.76258  2.24418e+22
0.879885  2.25456e+22
0.99719  2.2632e+22
1.1145  2.26939e+22
1.2318  2.27266e+22
1.3491  2.27272e+22
1.46641  2.26957e+22
1.58371  2.26343e+22
1.70102  2.25471e+22
1.81832  2.24399e+22
1.93563  2.23192e+22
2.05294  2.21918e+22
2.17024  2.20638e+22
2.28754  2.19404e+22
2.40485  2.18251e+22
2.52216  2.17195e+22
2.63946  2.16238e+22
2.75677  2.15363e+22
2.87407  2.14542e+22
2.99137  2.13738e+22
3.10868  2.12909e+22
3.22599  2.12018e+22
3.34329  2.11037e+22
3.4606  2.09945e+22
3.5779  2.0873e+22
3.69521  2.07403e+22
3.81251  2.05983e+22
3.92982  2.04496e+22
4.04712  2.02983e+22
4.16443  2.01484e+22
4.28173  2.00037e+22
4.39903  1.98678e+22
4.51634  1.97431e+22
4.63364  1.96312e+22
4.75095  1.95311e+22
4.86825  1.94416e+22
4.98556  1.93595e+22
5.10286  1.928e+22
5.22017  1.91982e+22
5.33748  1.91085e+22
5.45478  1.90059e+22
5.57209  1.88859e+22
5.68939  1.8745e+22
5.8067  1.85826e+22
5.924  1.83984e+22
6.0413  1.81952e+22
6.15861  1.79765e+22
6.27591  1.77471e+22
6.39322  1.7513e+22
6.51052  1.72795e+22
6.62783  1.70517e+22
6.74514  1.68342e+22
6.86244  1.66302e+22
6.97975  1.6441e+22
7.09705  1.62671e+22
7.21436  1.61066e+22
7.33166  1.59567e+22
7.44897  1.58141e+22
7.56627  1.56743e+22
7.68358  1.55331e+22
7.80088  1.53861e+22
7.91819  1.52299e+22
8.03549  1.50627e+22
8.1528  1.48832e+22
8.2701  1.46907e+22
8.38741  1.44878e+22
8.50471  1.42766e+22
8.62202  1.40601e+22
8.73932  1.38419e+22
8.85662  1.36261e+22
8.97393  1.34157e+22
9.09123  1.32134e+22
9.20854  1.30211e+22
9.32584  1.28399e+22
9.44315  1.26687e+22
9.56045  1.25066e+22
9.67776  1.23515e+22
9.79506  1.21999e+22
9.91237  1.20487e+22
10.0297  1.18949e+22
10.147  1.17358e+22
10.2643  1.15695e+22
10.3816  1.13945e+22
10.4989  1.1212e+22
10.6162  1.10224e+22
10.7335  1.08289e+22
10.8508  1.06338e+22
10.9681  1.04404e+22
11.0854  1.02523e+22
11.2027  1.00717e+22
11.32  9.90077e+21
11.4373  9.74075e+21
11.5546  9.59186e+21
11.6719  9.45296e+21
11.7893  9.32246e+21
11.9066  9.19718e+21
12.0239  9.07352e+21
12.1412  8.94821e+21
12.2585  8.81748e+21
12.3758  8.67793e+21
12.4931  8.52705e+21
12.6104  8.36329e+21
12.7277  8.18703e+21
12.845  7.99904e+21
12.9623  7.80106e+21
13.0796  7.59718e+21
13.1969  7.3912e+21
13.3142  7.18694e+21
13.4315  6.9886e+21
13.5488  6.80007e+21
13.6661  6.62367e+21
13.7834  6.46154e+21
13.9007  6.31452e+21
14.018  6.18277e+21
14.1354  6.06444e+21
14.2527  5.95809e+21
14.37  5.86111e+21
14.4873  5.76992e+21
14.6046  5.68141e+21
14.7219  5.59213e+21
14.8392  5.49911e+21
14.9565  5.39976e+21
15.0738  5.29199e+21
15.1911  5.17559e+21
15.3084  5.05019e+21
15.4257  4.91752e+21
15.543  4.77901e+21
15.6603  4.63734e+21
15.7776  4.49526e+21
15.8949  4.3552e+21
16.0122  4.21952e+21
16.1295  4.09013e+21
16.2468  3.96822e+21
16.3641  3.85428e+21
16.4815  3.74832e+21
16.5988  3.64958e+21
16.7161  3.55667e+21
16.8334  3.46854e+21
16.9507  3.38359e+21
17.068  3.30006e+21
17.1853  3.21655e+21
17.3026  3.13193e+21
17.4199  3.0457e+21
17.5372  2.95738e+21
17.6545  2.86701e+21
17.7718  2.77566e+21
17.8891  2.68449e+21
18.0064  2.59469e+21
18.1237  2.50787e+21
18.241  2.42574e+21
18.3583  2.34934e+21
18.4756  2.27978e+21
18.5929  2.21762e+21
18.7102  2.1631e+21
18.8275  2.11565e+21
18.9449  2.07471e+21
19.0622  2.03928e+21
19.1795  2.00773e+21
19.2968  1.97864e+21
19.4141  1.95034e+21
19.5314  1.92126e+21
19.6487  1.88986e+21
19.766  1.85482e+21
19.8833  1.81551e+21
20.0006  1.77136e+21
20.1179  1.72278e+21
20.2352  1.67027e+21
20.3525  1.61504e+21
20.4698  1.55853e+21
20.5871  1.50228e+21
20.7044  1.44809e+21
20.8217  1.3973e+21
20.939  1.35123e+21
21.0563  1.31082e+21
21.1736  1.27656e+21
21.291  1.24877e+21
21.4083  1.22698e+21
21.5256  1.21094e+21
21.6429  1.19987e+21
21.7602  1.19261e+21
21.8775  1.18783e+21
21.9948  1.18418e+21
22.1121  1.18021e+21
22.2294  1.17433e+21
22.3467  1.16532e+21
22.464  1.15228e+21
22.5813  1.13479e+21
22.6986  1.1127e+21
22.8159  1.08641e+21
22.9332  1.05692e+21
23.0505  1.02517e+21
23.1678  9.9257e+20
23.2851  9.60318e+20
23.4024  9.29667e+20
23.5198  9.01711e+20
23.6371  8.77243e+20
23.7544  8.56978e+20
23.8717  8.41065e+20
23.989  8.29741e+20
24.1063  8.22784e+20
24.2236  8.19827e+20
24.3409  8.20158e+20
24.4582  8.2291e+20
24.5755  8.27137e+20
24.6928  8.31661e+20
24.8101  8.35584e+20
24.9274  8.38043e+20
25.0447  8.38473e+20
25.162  8.3654e+20
25.2793  8.32158e+20
25.3966  8.25868e+20
25.5139  8.17784e+20
25.6312  8.08637e+20
25.7485  7.99049e+20
25.8658  7.89537e+20
25.9832  7.80906e+20
26.1005  7.73296e+20
26.2178  7.67257e+20
26.3351  7.62996e+20
26.4524  7.60426e+20
26.5697  7.59273e+20
26.687  7.59228e+20
26.8043  7.59704e+20
26.9216  7.60016e+20
27.0389  7.59634e+20
27.1562  7.58059e+20
27.2735  7.55135e+20
27.3908  7.50774e+20
27.5081  7.45143e+20
27.6254  7.38717e+20
27.7427  7.3185e+20
27.86  7.25036e+20
27.9773  7.18538e+20
28.0946  7.126e+20
28.212  7.07481e+20
28.3293  7.03133e+20
28.4466  6.99668e+20
28.5639  6.96983e+20
28.6812  6.95145e+20
28.7985  6.94103e+20
28.9158  6.93755e+20
29.0331  6.93768e+20
29.1504  6.93772e+20
29.2677  6.93237e+20
29.385  6.91494e+20
29.5023  6.8804e+20
29.6196  6.82487e+20
29.7369  6.74662e+20
29.8542  6.64701e+20
29.9715  6.5289e+20
30.0888  6.40069e+20
30.2061  6.2668e+20
30.3234  6.13581e+20
30.4407  6.0141e+20
30.558  5.90643e+20
30.6754  5.81846e+20
30.7927  5.74984e+20
30.91  5.70308e+20
31.0273  5.67774e+20
31.1446  5.67075e+20
31.2619  5.6784e+20
31.3792  5.69616e+20
31.4965  5.71762e+20
31.6138  5.73599e+20
31.7311  5.74509e+20
31.8484  5.73985e+20
31.9657  5.7179e+20
32.083  5.67761e+20
32.2003  5.62042e+20
32.3176  5.54957e+20
32.4349  5.46892e+20
32.5522  5.38251e+20
32.6695  5.29377e+20
32.7868  5.20558e+20
32.9042  5.1205e+20
33.0215  5.03955e+20
33.1388  4.96448e+20
33.2561  4.89602e+20
33.3734  4.83535e+20
33.4907  4.78372e+20
33.608  4.74149e+20
33.7253  4.70792e+20
33.8426  4.68166e+20
33.9599  4.66124e+20
34.0772  4.64425e+20
34.1945  4.62984e+20
34.3118  4.61848e+20
34.4291  4.6112e+20
34.5464  4.61094e+20
34.6637  4.6192e+20
34.781  4.63919e+20
34.8983  4.66901e+20
35.0156  4.70689e+20
35.1329  4.748e+20
35.2503  4.78703e+20
35.3676  4.81842e+20
35.4849  4.83758e+20
35.6022  4.84268e+20
35.7195  4.83441e+20
35.8368  4.81423e+20
35.9541  4.78579e+20
36.0714  4.75216e+20
36.1887  4.71434e+20
36.306  4.67251e+20
36.4233  4.62497e+20
36.5406  4.56956e+20
36.6579  4.50472e+20
36.7752  4.42987e+20
36.8925  4.34705e+20
37.0098  4.25925e+20
37.1271  4.17117e+20
37.2444  4.08636e+20
37.3617  4.00709e+20
37.479  3.93299e+20
37.5964  3.86085e+20
37.7137  3.78693e+20
37.831  3.70557e+20
37.9483  3.61363e+20
38.0656  3.5089e+20
38.1829  3.39405e+20
38.3002  3.27412e+20
38.4175  3.15654e+20
38.5348  3.04917e+20
38.6521  2.9596e+20
38.7694  2.89289e+20
38.8867  2.85147e+20
39.004  2.83514e+20
39.1213  2.84061e+20
39.2386  2.86389e+20
39.3559  2.89957e+20
39.4732  2.94345e+20
39.5905  2.98973e+20
39.7078  3.03402e+20
39.8251  3.07174e+20
39.9425  3.09989e+20
40.0598  3.11396e+20
40.1771  3.11184e+20
40.2944  3.09047e+20
40.4117  3.05032e+20
40.529  2.99177e+20
40.6463  2.91858e+20
40.7636  2.83655e+20
40.8809  2.75006e+20
40.9982  2.66602e+20
41.1155  2.59063e+20
41.2328  2.52871e+20
41.3501  2.48373e+20
41.4674  2.45762e+20
41.5847  2.45131e+20
41.702  2.46302e+20
41.8193  2.49059e+20
41.9366  2.52952e+20
42.0539  2.57446e+20
42.1712  2.61884e+20
42.2885  2.65527e+20
42.4059  2.67896e+20
42.5232  2.68444e+20
42.6405  2.67036e+20
42.7578  2.63626e+20
42.8751  2.58681e+20
42.9924  2.52772e+20
43.1097  2.46763e+20
43.227  2.41402e+20
43.3443  2.37416e+20
43.4616  2.35319e+20
43.5789  2.35294e+20
43.6962  2.37356e+20
43.8135  2.41116e+20
43.9308  2.46231e+20
44.0481  2.5209e+20
44.1654  2.58208e+20
44.2827  2.63986e+20
44.4  2.68871e+20
44.5173  2.72305e+20
44.6347  2.7402e+20
44.752  2.73521e+20
44.8693  2.7063e+20
44.9866  2.65153e+20
45.1039  2.57361e+20
45.2212  2.47567e+20
45.3385  2.36539e+20
45.4558  2.25312e+20
45.5731  2.14696e+20
45.6904  2.05701e+20
45.8077  1.99149e+20
45.925  1.95443e+20
46.0423  1.94668e+20
46.1596  1.96592e+20
46.2769  2.0075e+20
46.3942  2.06428e+20
46.5115  2.12966e+20
46.6288  2.1969e+20
46.7461  2.26081e+20
46.8634  2.31705e+20
46.9808  2.36223e+20
47.0981  2.39548e+20
47.2154  2.41521e+20
47.3327  2.42113e+20
47.45  2.41305e+20
47.5673  2.39283e+20
47.6846  2.36229e+20
47.8019  2.32653e+20
47.9192  2.28986e+20
48.0365  2.25797e+20
48.1538  2.23669e+20
48.2711  2.2302e+20
48.3884  2.24256e+20
48.5057  2.27417e+20
48.623  2.32534e+20
48.7403  2.39233e+20
48.8576  2.47086e+20
48.9749  2.55462e+20
49.0922  2.63654e+20
49.2095  2.70874e+20
49.3269  2.76579e+20
49.4442  2.8013e+20
49.5615  2.81123e+20
49.6788  2.79297e+20
49.7961  2.74757e+20
49.9134  2.67731e+20
50.0307  2.58723e+20
50.148  2.48494e+20
50.2653  2.37643e+20
50.3826  2.26899e+20
50.4999  2.16888e+20
50.6172  2.0802e+20
50.7345  2.00549e+20
50.8518  1.94628e+20
