#S 1 spectral density
#N 2
#UFWHM 31.6724
#L  abscissas [um]  spectral density
-58.5938  2.81911e+20
-58.4764  2.86904e+20
-58.3591  2.93929e+20
-58.2418  3.02747e+20
-58.1245  3.12879e+20
-58.0072  3.23805e+20
-57.8899  3.34751e+20
-57.7726  3.44876e+20
-57.6553  3.53213e+20
-57.538  3.58857e+20
-57.4207  3.60842e+20
-57.3034  3.58455e+20
-57.1861  3.51256e+20
-57.0688  3.39448e+20
-56.9515  3.23646e+20
-56.8342  3.05083e+20
-56.7169  2.8554e+20
-56.5996  2.66832e+20
-56.4823  2.50824e+20
-56.365  2.39073e+20
-56.2477  2.3257e+20
-56.1303  2.31612e+20
-56.013  2.36011e+20
-55.8957  2.44986e+20
-55.7784  2.57592e+20
-55.6611  2.72662e+20
-55.5438  2.89134e+20
-55.4265  3.06159e+20
-55.3092  3.23012e+20
-55.1919  3.39245e+20
-55.0746  3.54455e+20
-54.9573  3.68417e+20
-54.84  3.81116e+20
-54.7227  3.92537e+20
-54.6054  4.02917e+20
-54.4881  4.12487e+20
-54.3708  4.21604e+20
-54.2535  4.30579e+20
-54.1362  4.39651e+20
-54.0189  4.48744e+20
-53.9016  4.57538e+20
-53.7842  4.65602e+20
-53.6669  4.72137e+20
-53.5496  4.76682e+20
-53.4323  4.78705e+20
-53.315  4.78066e+20
-53.1977  4.74982e+20
-53.0804  4.69902e+20
-52.9631  4.63565e+20
-52.8458  4.56736e+20
-52.7285  4.50104e+20
-52.6112  4.44215e+20
-52.4939  4.39401e+20
-52.3766  4.35749e+20
-52.2593  4.33257e+20
-52.142  4.31794e+20
-52.0247  4.31184e+20
-51.9074  4.31265e+20
-51.7901  4.31787e+20
-51.6728  4.3252e+20
-51.5555  4.3317e+20
-51.4381  4.33188e+20
-51.3208  4.32331e+20
-51.2035  4.30153e+20
-51.0862  4.26801e+20
-50.9689  4.22325e+20
-50.8516  4.17296e+20
-50.7343  4.12689e+20
-50.617  4.09518e+20
-50.4997  4.08897e+20
-50.3824  4.11754e+20
-50.2651  4.18719e+20
-50.1478  4.30161e+20
-50.0305  4.45815e+20
-49.9132  4.65174e+20
-49.7959  4.8732e+20
-49.6786  5.11159e+20
-49.5613  5.35638e+20
-49.444  5.59822e+20
-49.3267  5.82873e+20
-49.2094  6.04151e+20
-49.092  6.23564e+20
-48.9747  6.40798e+20
-48.8574  6.5606e+20
-48.7401  6.69595e+20
-48.6228  6.8153e+20
-48.5055  6.92008e+20
-48.3882  7.01043e+20
-48.2709  7.08327e+20
-48.1536  7.13258e+20
-48.0363  7.15218e+20
-47.919  7.13423e+20
-47.8017  7.07204e+20
-47.6844  6.96024e+20
-47.5671  6.79836e+20
-47.4498  6.59002e+20
-47.3325  6.34228e+20
-47.2152  6.06841e+20
-47.0979  5.78268e+20
-46.9806  5.50326e+20
-46.8633  5.24773e+20
-46.7459  5.03229e+20
-46.6286  4.87306e+20
-46.5113  4.77989e+20
-46.394  4.76197e+20
-46.2767  4.82156e+20
-46.1594  4.95718e+20
-46.0421  5.16199e+20
-45.9248  5.4234e+20
-45.8075  5.72265e+20
-45.6902  6.03885e+20
-45.5729  6.34666e+20
-45.4556  6.62415e+20
-45.3383  6.84909e+20
-45.221  7.00865e+20
-45.1037  7.09323e+20
-44.9864  7.10566e+20
-44.8691  7.054e+20
-44.7518  6.95413e+20
-44.6345  6.82478e+20
-44.5172  6.68722e+20
-44.3998  6.56197e+20
-44.2825  6.46321e+20
-44.1652  6.40135e+20
-44.0479  6.38232e+20
-43.9306  6.4046e+20
-43.8133  6.46225e+20
-43.696  6.54894e+20
-43.5787  6.65198e+20
-43.4614  6.75903e+20
-43.3441  6.85947e+20
-43.2268  6.94215e+20
-43.1095  6.99967e+20
-42.9922  7.02706e+20
-42.8749  7.02418e+20
-42.7576  6.99653e+20
-42.6403  6.95189e+20
-42.523  6.9036e+20
-42.4057  6.86421e+20
-42.2884  6.8476e+20
-42.171  6.86489e+20
-42.0537  6.92224e+20
-41.9364  7.02104e+20
-41.8191  7.15463e+20
-41.7018  7.3129e+20
-41.5845  7.48138e+20
-41.4672  7.64403e+20
-41.3499  7.78452e+20
-41.2326  7.8901e+20
-41.1153  7.94984e+20
-40.998  7.95908e+20
-40.8807  7.91792e+20
-40.7634  7.83161e+20
-40.6461  7.70913e+20
-40.5288  7.56454e+20
-40.4115  7.41175e+20
-40.2942  7.27013e+20
-40.1769  7.15197e+20
-40.0596  7.0702e+20
-39.9423  7.03253e+20
-39.825  7.04332e+20
-39.7076  7.10044e+20
-39.5903  7.19598e+20
-39.473  7.31801e+20
-39.3557  7.45515e+20
-39.2384  7.59265e+20
-39.1211  7.71884e+20
-39.0038  7.82714e+20
-38.8865  7.91141e+20
-38.7692  7.9704e+20
-38.6519  8.00792e+20
-38.5346  8.02764e+20
-38.4173  8.03715e+20
-38.3  8.0433e+20
-38.1827  8.05474e+20
-38.0654  8.08204e+20
-37.9481  8.13457e+20
-37.8308  8.22384e+20
-37.7135  8.35749e+20
-37.5962  8.54074e+20
-37.4789  8.77496e+20
-37.3615  9.05544e+20
-37.2442  9.36963e+20
-37.1269  9.69983e+20
-37.0096  1.00232e+21
-36.8923  1.03199e+21
-36.775  1.05699e+21
-36.6577  1.07597e+21
-36.5404  1.0885e+21
-36.4231  1.09483e+21
-36.3058  1.0959e+21
-36.1885  1.0934e+21
-36.0712  1.08882e+21
-35.9539  1.08389e+21
-35.8366  1.07971e+21
-35.7193  1.07725e+21
-35.602  1.07724e+21
-35.4847  1.07947e+21
-35.3674  1.08388e+21
-35.2501  1.09033e+21
-35.1328  1.09844e+21
-35.0154  1.10806e+21
-34.8981  1.11863e+21
-34.7808  1.12961e+21
-34.6635  1.1407e+21
-34.5462  1.15113e+21
-34.4289  1.16037e+21
-34.3116  1.16816e+21
-34.1943  1.17425e+21
-34.077  1.17871e+21
-33.9597  1.18211e+21
-33.8424  1.18476e+21
-33.7251  1.18744e+21
-33.6078  1.1905e+21
-33.4905  1.19433e+21
-33.3732  1.19903e+21
-33.2559  1.20467e+21
-33.1386  1.21123e+21
-33.0213  1.21861e+21
-32.904  1.22659e+21
-32.7867  1.23546e+21
-32.6693  1.24524e+21
-32.552  1.25602e+21
-32.4347  1.26786e+21
-32.3174  1.28036e+21
-32.2001  1.29348e+21
-32.0828  1.30663e+21
-31.9655  1.3195e+21
-31.8482  1.3317e+21
-31.7309  1.34292e+21
-31.6136  1.35328e+21
-31.4963  1.36292e+21
-31.379  1.37214e+21
-31.2617  1.38148e+21
-31.1444  1.39119e+21
-31.0271  1.40208e+21
-30.9098  1.41481e+21
-30.7925  1.42969e+21
-30.6752  1.44729e+21
-30.5579  1.46807e+21
-30.4406  1.49228e+21
-30.3232  1.5202e+21
-30.2059  1.55152e+21
-30.0886  1.5858e+21
-29.9713  1.62252e+21
-29.854  1.66076e+21
-29.7367  1.69939e+21
-29.6194  1.73768e+21
-29.5021  1.7746e+21
-29.3848  1.80958e+21
-29.2675  1.84243e+21
-29.1502  1.87267e+21
-29.0329  1.90053e+21
-28.9156  1.92598e+21
-28.7983  1.94917e+21
-28.681  1.97022e+21
-28.5637  1.98956e+21
-28.4464  2.00751e+21
-28.3291  2.02444e+21
-28.2118  2.0407e+21
-28.0944  2.05698e+21
-27.9771  2.07345e+21
-27.8598  2.09034e+21
-27.7425  2.10753e+21
-27.6252  2.12439e+21
-27.5079  2.14048e+21
-27.3906  2.15494e+21
-27.2733  2.16734e+21
-27.156  2.17729e+21
-27.0387  2.18482e+21
-26.9214  2.19078e+21
-26.8041  2.19616e+21
-26.6868  2.20265e+21
-26.5695  2.21209e+21
-26.4522  2.22632e+21
-26.3349  2.24735e+21
-26.2176  2.27703e+21
-26.1003  2.31633e+21
-25.983  2.36604e+21
-25.8657  2.42629e+21
-25.7483  2.49649e+21
-25.631  2.5756e+21
-25.5137  2.66175e+21
-25.3964  2.75267e+21
-25.2791  2.84585e+21
-25.1618  2.93877e+21
-25.0445  3.02858e+21
-24.9272  3.11347e+21
-24.8099  3.19156e+21
-24.6926  3.26212e+21
-24.5753  3.32522e+21
-24.458  3.38108e+21
-24.3407  3.43098e+21
-24.2234  3.47653e+21
-24.1061  3.51918e+21
-23.9888  3.56087e+21
-23.8715  3.60296e+21
-23.7542  3.64681e+21
-23.6369  3.69294e+21
-23.5196  3.74155e+21
-23.4023  3.79246e+21
-23.2849  3.84449e+21
-23.1676  3.89622e+21
-23.0503  3.94591e+21
-22.933  3.99124e+21
-22.8157  4.03049e+21
-22.6984  4.06192e+21
-22.5811  4.08468e+21
-22.4638  4.0987e+21
-22.3465  4.10445e+21
-22.2292  4.10375e+21
-22.1119  4.09874e+21
-21.9946  4.09244e+21
-21.8773  4.08753e+21
-21.76  4.0868e+21
-21.6427  4.0929e+21
-21.5254  4.10782e+21
-21.4081  4.13263e+21
-21.2908  4.16786e+21
-21.1735  4.21335e+21
-21.0561  4.2684e+21
-20.9388  4.33215e+21
-20.8215  4.40315e+21
-20.7042  4.47977e+21
-20.5869  4.56054e+21
-20.4696  4.64418e+21
-20.3523  4.7292e+21
-20.235  4.81497e+21
-20.1177  4.90053e+21
-20.0004  4.98565e+21
-19.8831  5.07058e+21
-19.7658  5.15495e+21
-19.6485  5.2389e+21
-19.5312  5.32251e+21
-19.4139  5.40524e+21
-19.2966  5.48666e+21
-19.1793  5.56573e+21
-19.062  5.64169e+21
-18.9447  5.71315e+21
-18.8274  5.77893e+21
-18.71  5.83873e+21
-18.5927  5.89187e+21
-18.4754  5.93842e+21
-18.3581  5.97923e+21
-18.2408  6.01506e+21
-18.1235  6.04771e+21
-18.0062  6.07886e+21
-17.8889  6.11041e+21
-17.7716  6.1448e+21
-17.6543  6.18313e+21
-17.537  6.22733e+21
-17.4197  6.27821e+21
-17.3024  6.33623e+21
-17.1851  6.40083e+21
-17.0678  6.47074e+21
-16.9505  6.54459e+21
-16.8332  6.62021e+21
-16.7159  6.69516e+21
-16.5986  6.76671e+21
-16.4813  6.83295e+21
-16.364  6.89225e+21
-16.2466  6.94429e+21
-16.1293  6.98935e+21
-16.012  7.0285e+21
-15.8947  7.06415e+21
-15.7774  7.09936e+21
-15.6601  7.1374e+21
-15.5428  7.18207e+21
-15.4255  7.23654e+21
-15.3082  7.30367e+21
-15.1909  7.38636e+21
-15.0736  7.48505e+21
-14.9563  7.60024e+21
-14.839  7.73053e+21
-14.7217  7.87374e+21
-14.6044  8.02611e+21
-14.4871  8.18331e+21
-14.3698  8.34063e+21
-14.2525  8.49276e+21
-14.1352  8.63466e+21
-14.0178  8.76317e+21
-13.9005  8.87517e+21
-13.7832  8.9694e+21
-13.6659  9.04652e+21
-13.5486  9.10771e+21
-13.4313  9.15618e+21
-13.314  9.19531e+21
-13.1967  9.22868e+21
-13.0794  9.26074e+21
-12.9621  9.29356e+21
-12.8448  9.33048e+21
-12.7275  9.37244e+21
-12.6102  9.41997e+21
-12.4929  9.47263e+21
-12.3756  9.52853e+21
-12.2583  9.58631e+21
-12.141  9.64344e+21
-12.0237  9.69752e+21
-11.9064  9.74575e+21
-11.7891  9.78639e+21
-11.6718  9.81805e+21
-11.5544  9.84054e+21
-11.4371  9.85521e+21
-11.3198  9.86291e+21
-11.2025  9.86711e+21
-11.0852  9.87162e+21
-10.9679  9.88051e+21
-10.8506  9.89829e+21
-10.7333  9.92872e+21
-10.616  9.97522e+21
-10.4987  1.00414e+22
-10.3814  1.01276e+22
-10.2641  1.02349e+22
-10.1468  1.03619e+22
-10.0295  1.0507e+22
-9.91217  1.06664e+22
-9.79487  1.08362e+22
-9.67756  1.10114e+22
-9.56026  1.11862e+22
-9.44295  1.13548e+22
-9.32565  1.1512e+22
-9.20834  1.16525e+22
-9.09104  1.1772e+22
-8.97373  1.1868e+22
-8.85643  1.19381e+22
-8.73913  1.19824e+22
-8.62182  1.20019e+22
-8.50452  1.19991e+22
-8.38721  1.19777e+22
-8.26991  1.19415e+22
-8.1526  1.18963e+22
-8.03529  1.18467e+22
-7.91799  1.17982e+22
-7.80069  1.17556e+22
-7.68338  1.17229e+22
-7.56608  1.17043e+22
-7.44877  1.17022e+22
-7.33146  1.17182e+22
-7.21416  1.1753e+22
-7.09685  1.18057e+22
-6.97955  1.1875e+22
-6.86224  1.19581e+22
-6.74494  1.20529e+22
-6.62763  1.21544e+22
-6.51033  1.22591e+22
-6.39302  1.2363e+22
-6.27572  1.24619e+22
-6.15842  1.25522e+22
-6.04111  1.26311e+22
-5.92381  1.2696e+22
-5.8065  1.2747e+22
-5.68919  1.27831e+22
-5.57189  1.28062e+22
-5.45458  1.28184e+22
-5.33728  1.28234e+22
-5.21997  1.28245e+22
-5.10267  1.28257e+22
-4.98536  1.28307e+22
-4.86806  1.28425e+22
-4.75075  1.28628e+22
-4.63345  1.28932e+22
-4.51614  1.29334e+22
-4.39884  1.29821e+22
-4.28154  1.30383e+22
-4.16423  1.30985e+22
-4.04692  1.31602e+22
-3.92962  1.32202e+22
-3.81231  1.32761e+22
-3.69501  1.33253e+22
-3.5777  1.3366e+22
-3.4604  1.33983e+22
-3.34309  1.34221e+22
-3.22579  1.34389e+22
-3.10849  1.34506e+22
-2.99118  1.34604e+22
-2.87387  1.34719e+22
-2.75657  1.34882e+22
-2.63926  1.35125e+22
-2.52196  1.35471e+22
-2.40465  1.35927e+22
-2.28735  1.36494e+22
-2.17005  1.37152e+22
-2.05274  1.37878e+22
-1.93544  1.38618e+22
-1.81813  1.39327e+22
-1.70083  1.39951e+22
-1.58352  1.40436e+22
-1.46622  1.40737e+22
-1.34891  1.40825e+22
-1.2316  1.40684e+22
-1.1143  1.40319e+22
-0.996995  1.39747e+22
-0.87969  1.39013e+22
-0.762385  1.38167e+22
-0.64508  1.37274e+22
-0.527775  1.36399e+22
-0.41047  1.35607e+22
-0.293165  1.34955e+22
-0.17586  1.34493e+22
-0.058555  1.34253e+22
0.05875  1.34254e+22
0.176055  1.34493e+22
0.29336  1.34952e+22
0.410665  1.35603e+22
0.52797  1.36392e+22
0.645275  1.37263e+22
0.76258  1.38149e+22
0.879885  1.38989e+22
0.99719  1.39715e+22
1.1145  1.40275e+22
1.2318  1.40633e+22
1.3491  1.40765e+22
1.46641  1.40667e+22
1.58371  1.40354e+22
1.70102  1.39858e+22
1.81832  1.39227e+22
1.93563  1.38508e+22
2.05294  1.3776e+22
2.17024  1.37032e+22
2.28754  1.36366e+22
2.40485  1.35795e+22
2.52216  1.35331e+22
2.63946  1.34983e+22
2.75677  1.34734e+22
2.87407  1.34566e+22
2.99137  1.34444e+22
3.10868  1.34337e+22
3.22599  1.3421e+22
3.34329  1.34035e+22
3.4606  1.33789e+22
3.5779  1.33458e+22
3.69521  1.33039e+22
3.81251  1.32538e+22
3.92982  1.31969e+22
4.04712  1.3136e+22
4.16443  1.30735e+22
4.28173  1.30124e+22
4.39903  1.29557e+22
4.51634  1.2906e+22
4.63364  1.28653e+22
4.75095  1.28344e+22
4.86825  1.28132e+22
4.98556  1.28008e+22
5.10286  1.27952e+22
5.22017  1.27933e+22
5.33748  1.27913e+22
5.45478  1.27855e+22
5.57209  1.27724e+22
5.68939  1.27484e+22
5.8067  1.27112e+22
5.924  1.26597e+22
6.0413  1.25936e+22
6.15861  1.25141e+22
6.27591  1.24231e+22
6.39322  1.23236e+22
6.51052  1.22195e+22
6.62783  1.21142e+22
6.74514  1.20124e+22
6.86244  1.19181e+22
6.97975  1.18347e+22
7.09705  1.17657e+22
7.21436  1.1713e+22
7.33166  1.16787e+22
7.44897  1.16629e+22
7.56627  1.16653e+22
7.68358  1.16839e+22
7.80088  1.17163e+22
7.91819  1.17587e+22
8.03549  1.1807e+22
8.1528  1.1856e+22
8.2701  1.19004e+22
8.38741  1.19355e+22
8.50471  1.19558e+22
8.62202  1.19572e+22
8.73932  1.19363e+22
8.85662  1.18907e+22
8.97393  1.18193e+22
9.09123  1.17221e+22
9.20854  1.16015e+22
9.32584  1.14605e+22
9.44315  1.13027e+22
9.56045  1.11338e+22
9.67776  1.0959e+22
9.79506  1.07842e+22
9.91237  1.0615e+22
10.0297  1.0456e+22
10.147  1.03119e+22
10.2643  1.01856e+22
10.3816  1.00791e+22
10.4989  9.99346e+21
10.6162  9.9281e+21
10.7335  9.88163e+21
10.8508  9.85123e+21
10.9681  9.83341e+21
11.0854  9.82436e+21
11.2027  9.81951e+21
11.32  9.81424e+21
11.4373  9.80557e+21
11.5546  9.79041e+21
11.6719  9.76682e+21
11.7893  9.73445e+21
11.9066  9.69288e+21
12.0239  9.64406e+21
12.1412  9.5899e+21
12.2585  9.53252e+21
12.3758  9.47454e+21
12.4931  9.4185e+21
12.6104  9.36606e+21
12.7277  9.31877e+21
12.845  9.27725e+21
12.9623  9.24047e+21
13.0796  9.20764e+21
13.1969  9.17596e+21
13.3142  9.14232e+21
13.4315  9.10301e+21
13.5488  9.05432e+21
13.6661  8.99262e+21
13.7834  8.91499e+21
13.9007  8.81998e+21
14.018  8.70772e+21
14.1354  8.5787e+21
14.2527  8.4362e+21
14.37  8.28394e+21
14.4873  8.12652e+21
14.6046  7.9693e+21
14.7219  7.81696e+21
14.8392  7.67425e+21
14.9565  7.54437e+21
15.0738  7.42954e+21
15.1911  7.3314e+21
15.3084  7.24934e+21
15.4257  7.18245e+21
15.543  7.12825e+21
15.6603  7.08397e+21
15.7776  7.0463e+21
15.8949  7.01147e+21
16.0122  6.97576e+21
16.1295  6.93666e+21
16.2468  6.89178e+21
16.3641  6.83984e+21
16.4815  6.78076e+21
16.5988  6.71457e+21
16.7161  6.64319e+21
16.8334  6.5689e+21
16.9507  6.49366e+21
17.068  6.42008e+21
17.1853  6.35054e+21
17.3026  6.28635e+21
17.4199  6.22885e+21
17.5372  6.17857e+21
17.6545  6.13449e+21
17.7718  6.09646e+21
17.8891  6.0625e+21
18.0064  6.03106e+21
18.1237  5.99989e+21
18.241  5.96739e+21
18.3583  5.93156e+21
18.4756  5.89072e+21
18.5929  5.84406e+21
18.7102  5.79109e+21
18.8275  5.73122e+21
18.9449  5.6653e+21
19.0622  5.59391e+21
19.1795  5.51796e+21
19.2968  5.43889e+21
19.4141  5.35758e+21
19.5314  5.27507e+21
19.6487  5.19173e+21
19.766  5.10791e+21
19.8833  5.02395e+21
20.0006  4.9394e+21
20.1179  4.85457e+21
20.2352  4.76936e+21
20.3525  4.68415e+21
20.4698  4.59982e+21
20.5871  4.51704e+21
20.7044  4.43686e+21
20.8217  4.36092e+21
20.939  4.29068e+21
21.0563  4.2277e+21
21.1736  4.17335e+21
21.291  4.12848e+21
21.4083  4.09379e+21
21.5256  4.06961e+21
21.6429  4.05508e+21
21.7602  4.04902e+21
21.8775  4.04978e+21
21.9948  4.05457e+21
22.1121  4.06083e+21
22.2294  4.06562e+21
22.3467  4.06588e+21
22.464  4.05983e+21
22.5813  4.04553e+21
22.6986  4.02255e+21
22.8159  3.99085e+21
22.9332  3.95167e+21
23.0505  3.90642e+21
23.1678  3.85702e+21
23.2851  3.80566e+21
23.4024  3.7542e+21
23.5198  3.7038e+21
23.6371  3.65572e+21
23.7544  3.6102e+21
23.8717  3.56686e+21
23.989  3.5253e+21
24.1063  3.48412e+21
24.2236  3.44187e+21
24.3409  3.39675e+21
24.4582  3.3471e+21
24.5755  3.29161e+21
24.6928  3.22891e+21
24.8101  3.1586e+21
24.9274  3.08078e+21
25.0447  2.99643e+21
25.162  2.90723e+21
25.2793  2.81515e+21
25.3966  2.72265e+21
25.5139  2.63248e+21
25.6312  2.54712e+21
25.7485  2.46889e+21
25.8658  2.39957e+21
25.9832  2.34016e+21
26.1005  2.29115e+21
26.2178  2.25262e+21
26.3351  2.22362e+21
26.4524  2.20292e+21
26.5697  2.18904e+21
26.687  2.17992e+21
26.8043  2.17365e+21
26.9216  2.16849e+21
27.0389  2.1626e+21
27.1562  2.15512e+21
27.2735  2.14529e+21
27.3908  2.13301e+21
27.5081  2.11867e+21
27.6254  2.10274e+21
27.7427  2.08611e+21
27.86  2.06919e+21
27.9773  2.0526e+21
28.0946  2.03642e+21
28.212  2.02038e+21
28.3293  2.00433e+21
28.4466  1.98767e+21
28.5639  1.96996e+21
28.6812  1.95086e+21
28.7985  1.92992e+21
28.9158  1.90696e+21
29.0331  1.88172e+21
29.1504  1.85403e+21
29.2677  1.82397e+21
29.385  1.79144e+21
29.5023  1.75659e+21
29.6196  1.71983e+21
29.7369  1.68188e+21
29.8542  1.64358e+21
29.9715  1.60577e+21
30.0888  1.56944e+21
30.2061  1.53548e+21
30.3234  1.50457e+21
30.4407  1.47712e+21
30.558  1.45336e+21
30.6754  1.43298e+21
30.7927  1.41577e+21
30.91  1.40132e+21
31.0273  1.38912e+21
31.1446  1.37847e+21
31.2619  1.36902e+21
31.3792  1.36009e+21
31.4965  1.35115e+21
31.6138  1.34189e+21
31.7311  1.33169e+21
31.8484  1.32064e+21
31.9657  1.30864e+21
32.083  1.29592e+21
32.2003  1.28289e+21
32.3176  1.26985e+21
32.4349  1.25746e+21
32.5522  1.2457e+21
32.6695  1.23497e+21
32.7868  1.22532e+21
32.9042  1.21642e+21
33.0215  1.20846e+21
33.1388  1.20124e+21
33.2561  1.19481e+21
33.3734  1.18927e+21
33.4907  1.18465e+21
33.608  1.18106e+21
33.7253  1.1782e+21
33.8426  1.17568e+21
33.9599  1.1732e+21
34.0772  1.17001e+21
34.1945  1.16566e+21
34.3118  1.15962e+21
34.4291  1.152e+21
34.5464  1.14288e+21
34.6637  1.13258e+21
34.781  1.1217e+21
34.8983  1.11072e+21
35.0156  1.10031e+21
35.1329  1.09099e+21
35.2503  1.0831e+21
35.3676  1.07686e+21
35.4849  1.07267e+21
35.6022  1.0708e+21
35.7195  1.0713e+21
35.8368  1.07394e+21
35.9541  1.07847e+21
36.0714  1.08365e+21
36.1887  1.08844e+21
36.306  1.09128e+21
36.4233  1.09013e+21
36.5406  1.08384e+21
36.6579  1.07124e+21
36.7752  1.05217e+21
36.8925  1.02705e+21
37.0098  9.97261e+20
37.1271  9.64877e+20
37.2444  9.31822e+20
37.3617  9.00441e+20
37.479  8.7255e+20
37.5964  8.49182e+20
37.7137  8.30966e+20
37.831  8.17783e+20
37.9483  8.09038e+20
38.0656  8.03877e+20
38.1829  8.01269e+20
38.3002  8.00298e+20
38.4175  7.99822e+20
38.5348  7.98959e+20
38.6521  7.97109e+20
38.7694  7.93402e+20
38.8867  7.8755e+20
39.004  7.79117e+20
39.1213  7.68407e+20
39.2386  7.55764e+20
39.3559  7.42057e+20
39.4732  7.28439e+20
39.5905  7.16188e+20
39.7078  7.06728e+20
39.8251  7.01246e+20
39.9425  7.00278e+20
40.0598  7.04125e+20
40.1771  7.12361e+20
40.2944  7.24376e+20
40.4117  7.38675e+20
40.529  7.5392e+20
40.6463  7.68434e+20
40.7636  7.80523e+20
40.8809  7.89115e+20
40.9982  7.93285e+20
41.1155  7.92174e+20
41.2328  7.86116e+20
41.3501  7.75509e+20
41.4674  7.6147e+20
41.5847  7.45173e+20
41.702  7.28362e+20
41.8193  7.12589e+20
41.9366  6.99291e+20
42.0539  6.89513e+20
42.1712  6.8389e+20
42.2885  6.82269e+20
42.4059  6.83934e+20
42.5232  6.87906e+20
42.6405  6.9271e+20
42.7578  6.97124e+20
42.8751  6.99816e+20
42.9924  7.00045e+20
43.1097  6.972e+20
43.227  6.91367e+20
43.3443  6.83078e+20
43.4616  6.72972e+20
43.5789  6.62198e+20
43.6962  6.51899e+20
43.8135  6.43331e+20
43.9308  6.37569e+20
44.0481  6.35427e+20
44.1654  6.37436e+20
44.2827  6.43558e+20
44.4  6.53458e+20
44.5173  6.66104e+20
44.6347  6.79746e+20
44.752  6.92629e+20
44.8693  7.02403e+20
44.9866  7.07458e+20
45.1039  7.06028e+20
45.2212  6.97367e+20
45.3385  6.8134e+20
45.4558  6.58662e+20
45.5731  6.3095e+20
45.6904  6.00219e+20
45.8077  5.6871e+20
45.925  5.38961e+20
46.0423  5.13099e+20
46.1596  4.92912e+20
46.2769  4.79606e+20
46.3942  4.7397e+20
46.5115  4.76034e+20
46.6288  4.85565e+20
46.7461  5.01663e+20
46.8634  5.23234e+20
46.9808  5.48909e+20
47.0981  5.76789e+20
47.2154  6.05293e+20
47.3327  6.32474e+20
47.45  6.57123e+20
47.5673  6.77753e+20
47.6846  6.93681e+20
47.8019  7.0459e+20
47.9192  7.10599e+20
48.0365  7.12243e+20
48.1538  7.10097e+20
48.2711  7.04987e+20
48.3884  6.97636e+20
48.5057  6.88517e+20
48.623  6.7802e+20
48.7403  6.66019e+20
48.8576  6.52476e+20
48.9749  6.3712e+20
49.0922  6.19836e+20
49.2095  6.00503e+20
49.3269  5.79165e+20
49.4442  5.56257e+20
49.5615  5.32079e+20
49.6788  5.0764e+20
49.7961  4.83913e+20
49.9134  4.61929e+20
50.0307  4.42732e+20
50.148  4.27204e+20
50.2653  4.15978e+20
50.3826  4.09105e+20
50.4999  4.06348e+20
50.6172  4.0704e+20
50.7345  4.10286e+20
50.8518  4.14872e+20
