#S 1 spectral density
#N 2
#UFWHM 5.27873
#L  abscissas [um]  spectral density
-58.5938  2.34358e+20
-58.4764  2.37977e+20
-58.3591  2.38261e+20
-58.2418  2.34891e+20
-58.1245  2.27584e+20
-58.0072  2.16232e+20
-57.8899  2.01063e+20
-57.7726  1.82599e+20
-57.6553  1.61944e+20
-57.538  1.40681e+20
-57.4207  1.21053e+20
-57.3034  1.05193e+20
-57.1861  9.5221e+19
-57.0688  9.23916e+19
-56.9515  9.69614e+19
-56.8342  1.0772e+20
-56.7169  1.22358e+20
-56.5996  1.3764e+20
-56.4823  1.50143e+20
-56.365  1.56877e+20
-56.2477  1.56099e+20
-56.1303  1.47621e+20
-56.013  1.32847e+20
-55.8957  1.14581e+20
-55.7784  9.60812e+19
-55.6611  8.0583e+19
-55.5438  7.02716e+19
-55.4265  6.57998e+19
-55.3092  6.63594e+19
-55.1919  6.97756e+19
-55.0746  7.33004e+19
-54.9573  7.43289e+19
-54.84  7.1129e+19
-54.7227  6.33862e+19
-54.6054  5.22082e+19
-54.4881  3.98735e+19
-54.3708  2.91572e+19
-54.2535  2.26178e+19
-54.1362  2.19411e+19
-54.0189  2.75034e+19
-53.9016  3.83233e+19
-53.7842  5.24066e+19
-53.6669  6.72191e+19
-53.5496  8.04695e+19
-53.4323  9.05639e+19
-53.315  9.70218e+19
-53.1977  1.00507e+20
-53.0804  1.02586e+20
-52.9631  1.05083e+20
-52.8458  1.09699e+20
-52.7285  1.17548e+20
-52.6112  1.28604e+20
-52.4939  1.41863e+20
-52.3766  1.55443e+20
-52.2593  1.67192e+20
-52.142  1.74794e+20
-52.0247  1.76594e+20
-51.9074  1.7171e+20
-51.7901  1.60394e+20
-51.6728  1.43972e+20
-51.5555  1.24575e+20
-51.4381  1.04838e+20
-51.3208  8.76682e+19
-51.2035  7.56611e+19
-51.0862  7.08079e+19
-50.9689  7.42891e+19
-50.8516  8.63234e+19
-50.7343  1.06138e+20
-50.617  1.32088e+20
-50.4997  1.62012e+20
-50.3824  1.9337e+20
-50.2651  2.23741e+20
-50.1478  2.5105e+20
-50.0305  2.74024e+20
-49.9132  2.91792e+20
-49.7959  3.04539e+20
-49.6786  3.13041e+20
-49.5613  3.18146e+20
-49.444  3.20794e+20
-49.3267  3.21768e+20
-49.2094  3.21228e+20
-49.092  3.18844e+20
-48.9747  3.13989e+20
-48.8574  3.05952e+20
-48.7401  2.93994e+20
-48.6228  2.78144e+20
-48.5055  2.59054e+20
-48.3882  2.3796e+20
-48.2709  2.16732e+20
-48.1536  1.97489e+20
-48.0363  1.82205e+20
-47.919  1.72367e+20
-47.8017  1.68673e+20
-47.6844  1.71001e+20
-47.5671  1.78454e+20
-47.4498  1.89587e+20
-47.3325  2.02864e+20
-47.2152  2.16897e+20
-47.0979  2.30595e+20
-46.9806  2.43411e+20
-46.8633  2.55222e+20
-46.7459  2.66022e+20
-46.6286  2.75772e+20
-46.5113  2.8424e+20
-46.394  2.90869e+20
-46.2767  2.94835e+20
-46.1594  2.95049e+20
-46.0421  2.90828e+20
-45.9248  2.8178e+20
-45.8075  2.68039e+20
-45.6902  2.50541e+20
-45.5729  2.30654e+20
-45.4556  2.10256e+20
-45.3383  1.91002e+20
-45.221  1.74501e+20
-45.1037  1.61563e+20
-44.9864  1.5242e+20
-44.8691  1.4676e+20
-44.7518  1.43784e+20
-44.6345  1.42323e+20
-44.5172  1.41306e+20
-44.3998  1.39999e+20
-44.2825  1.37931e+20
-44.1652  1.35209e+20
-44.0479  1.32142e+20
-43.9306  1.29409e+20
-43.8133  1.27574e+20
-43.696  1.27114e+20
-43.5787  1.28272e+20
-43.4614  1.3089e+20
-43.3441  1.3459e+20
-43.2268  1.38587e+20
-43.1095  1.42138e+20
-42.9922  1.44476e+20
-42.8749  1.44927e+20
-42.7576  1.43043e+20
-42.6403  1.38641e+20
-42.523  1.317e+20
-42.4057  1.22484e+20
-42.2884  1.11255e+20
-42.171  9.85329e+19
-42.0537  8.49137e+19
-41.9364  7.11141e+19
-41.8191  5.80775e+19
-41.7018  4.68014e+19
-41.5845  3.8441e+19
-41.4672  3.40831e+19
-41.3499  3.46396e+19
-41.2326  4.06455e+19
-41.1153  5.20942e+19
-40.998  6.83607e+19
-40.8807  8.82004e+19
-40.7634  1.09977e+20
-40.6461  1.31741e+20
-40.5288  1.51644e+20
-40.4115  1.68036e+20
-40.2942  1.79882e+20
-40.1769  1.86673e+20
-40.0596  1.88433e+20
-39.9423  1.85652e+20
-39.825  1.79054e+20
-39.7076  1.69471e+20
-39.5903  1.57661e+20
-39.473  1.4444e+20
-39.3557  1.30536e+20
-39.2384  1.16823e+20
-39.1211  1.04189e+20
-39.0038  9.36221e+19
-38.8865  8.60234e+19
-38.7692  8.20763e+19
-38.6519  8.21652e+19
-38.5346  8.61367e+19
-38.4173  9.32503e+19
-38.3  1.02399e+20
-38.1827  1.12246e+20
-38.0654  1.21413e+20
-37.9481  1.28922e+20
-37.8308  1.34273e+20
-37.7135  1.37495e+20
-37.5962  1.39045e+20
-37.4789  1.39775e+20
-37.3615  1.40541e+20
-37.2442  1.41962e+20
-37.1269  1.44446e+20
-37.0096  1.4784e+20
-36.8923  1.51944e+20
-36.775  1.56171e+20
-36.6577  1.60113e+20
-36.5404  1.63387e+20
-36.4231  1.65808e+20
-36.3058  1.67453e+20
-36.1885  1.68302e+20
-36.0712  1.68451e+20
-35.9539  1.67923e+20
-35.8366  1.66657e+20
-35.7193  1.647e+20
-35.602  1.62144e+20
-35.4847  1.59564e+20
-35.3674  1.57744e+20
-35.2501  1.57815e+20
-35.1328  1.61082e+20
-35.0154  1.68785e+20
-34.8981  1.81721e+20
-34.7808  2.00109e+20
-34.6635  2.23388e+20
-34.5462  2.50008e+20
-34.4289  2.77976e+20
-34.3116  3.04684e+20
-34.1943  3.27683e+20
-34.077  3.44662e+20
-33.9597  3.54225e+20
-33.8424  3.55574e+20
-33.7251  3.49219e+20
-33.6078  3.36274e+20
-33.4905  3.18437e+20
-33.3732  2.97889e+20
-33.2559  2.76654e+20
-33.1386  2.56474e+20
-33.0213  2.38731e+20
-32.904  2.24173e+20
-32.7867  2.1323e+20
-32.6693  2.05733e+20
-32.552  2.0149e+20
-32.4347  2.00144e+20
-32.3174  2.01304e+20
-32.2001  2.04609e+20
-32.0828  2.09596e+20
-31.9655  2.15825e+20
-31.8482  2.22676e+20
-31.7309  2.29404e+20
-31.6136  2.35258e+20
-31.4963  2.39533e+20
-31.379  2.41723e+20
-31.2617  2.41596e+20
-31.1444  2.3933e+20
-31.0271  2.35306e+20
-30.9098  2.3013e+20
-30.7925  2.24385e+20
-30.6752  2.18311e+20
-30.5579  2.11786e+20
-30.4406  2.04492e+20
-30.3232  1.95705e+20
-30.2059  1.84761e+20
-30.0886  1.71319e+20
-29.9713  1.55582e+20
-29.854  1.38506e+20
-29.7367  1.21581e+20
-29.6194  1.06927e+20
-29.5021  9.66332e+19
-29.3848  9.25031e+19
-29.2675  9.5514e+19
-29.1502  1.05672e+20
-29.0329  1.21923e+20
-28.9156  1.42312e+20
-28.7983  1.64346e+20
-28.681  1.85556e+20
-28.5637  2.03856e+20
-28.4464  2.17961e+20
-28.3291  2.27539e+20
-28.2118  2.33106e+20
-28.0944  2.35853e+20
-27.9771  2.37193e+20
-27.8598  2.38471e+20
-27.7425  2.40424e+20
-27.6252  2.43171e+20
-27.5079  2.46016e+20
-27.3906  2.47806e+20
-27.2733  2.47161e+20
-27.156  2.42617e+20
-27.0387  2.33321e+20
-26.9214  2.18935e+20
-26.8041  2.00062e+20
-26.6868  1.78078e+20
-26.5695  1.55017e+20
-26.4522  1.33376e+20
-26.3349  1.15578e+20
-26.2176  1.03717e+20
-26.1003  9.93254e+19
-25.983  1.02937e+20
-25.8657  1.14029e+20
-25.7483  1.31212e+20
-25.631  1.52265e+20
-25.5137  1.74619e+20
-25.3964  1.95726e+20
-25.2791  2.13501e+20
-25.1618  2.26655e+20
-25.0445  2.3493e+20
-24.9272  2.38976e+20
-24.8099  2.40188e+20
-24.6926  2.40293e+20
-24.5753  2.40855e+20
-24.458  2.42758e+20
-24.3407  2.46232e+20
-24.2234  2.50393e+20
-24.1061  2.53754e+20
-23.9888  2.54669e+20
-23.8715  2.51762e+20
-23.7542  2.44456e+20
-23.6369  2.33755e+20
-23.5196  2.21761e+20
-23.4023  2.11713e+20
-23.2849  2.07362e+20
-23.1676  2.12156e+20
-23.0503  2.28316e+20
-22.933  2.56502e+20
-22.8157  2.94971e+20
-22.6984  3.4029e+20
-22.5811  3.87434e+20
-22.4638  4.30941e+20
-22.3465  4.65773e+20
-22.2292  4.88205e+20
-22.1119  4.96497e+20
-21.9946  4.91085e+20
-21.8773  4.74458e+20
-21.76  4.50204e+20
-21.6427  4.22257e+20
-21.5254  3.94483e+20
-21.4081  3.69374e+20
-21.2908  3.4838e+20
-21.1735  3.3147e+20
-21.0561  3.17692e+20
-20.9388  3.05821e+20
-20.8215  2.94588e+20
-20.7042  2.83598e+20
-20.5869  2.73034e+20
-20.4696  2.63938e+20
-20.3523  2.57683e+20
-20.235  2.55703e+20
-20.1177  2.59013e+20
-20.0004  2.67826e+20
-19.8831  2.81629e+20
-19.7658  2.99033e+20
-19.6485  3.18327e+20
-19.5312  3.37527e+20
-19.4139  3.55083e+20
-19.2966  3.70044e+20
-19.1793  3.81998e+20
-19.062  3.9133e+20
-18.9447  3.99091e+20
-18.8274  4.06168e+20
-18.71  4.14026e+20
-18.5927  4.23288e+20
-18.4754  4.34284e+20
-18.3581  4.47027e+20
-18.2408  4.60303e+20
-18.1235  4.73211e+20
-18.0062  4.84063e+20
-17.8889  4.91247e+20
-17.7716  4.93541e+20
-17.6543  4.89602e+20
-17.537  4.79143e+20
-17.4197  4.62327e+20
-17.3024  4.39907e+20
-17.1851  4.13273e+20
-17.0678  3.84295e+20
-16.9505  3.55033e+20
-16.8332  3.27462e+20
-16.7159  3.03311e+20
-16.5986  2.83886e+20
-16.4813  2.69909e+20
-16.364  2.61546e+20
-16.2466  2.58549e+20
-16.1293  2.60224e+20
-16.012  2.65969e+20
-15.8947  2.75029e+20
-15.7774  2.86803e+20
-15.6601  3.00917e+20
-15.5428  3.17088e+20
-15.4255  3.34959e+20
-15.3082  3.54195e+20
-15.1909  3.73964e+20
-15.0736  3.93545e+20
-14.9563  4.11937e+20
-14.839  4.28101e+20
-14.7217  4.41463e+20
-14.6044  4.51881e+20
-14.4871  4.5977e+20
-14.3698  4.6651e+20
-14.2525  4.73902e+20
-14.1352  4.8411e+20
-14.0178  4.99098e+20
-13.9005  5.20334e+20
-13.7832  5.48368e+20
-13.6659  5.82639e+20
-13.5486  6.2121e+20
-13.4313  6.61508e+20
-13.314  7.00188e+20
-13.1967  7.34212e+20
-13.0794  7.60642e+20
-12.9621  7.77871e+20
-12.8448  7.85172e+20
-12.7275  7.83362e+20
-12.6102  7.74066e+20
-12.4929  7.60117e+20
-12.3756  7.44773e+20
-12.2583  7.31471e+20
-12.141  7.24013e+20
-12.0237  7.25826e+20
-11.9064  7.40381e+20
-11.7891  7.7048e+20
-11.6718  8.18491e+20
-11.5544  8.86056e+20
-11.4371  9.73883e+20
-11.3198  1.08128e+21
-11.2025  1.2064e+21
-11.0852  1.3461e+21
-10.9679  1.49636e+21
-10.8506  1.65273e+21
-10.7333  1.8109e+21
-10.616  1.96757e+21
-10.4987  2.12037e+21
-10.3814  2.26885e+21
-10.2641  2.4142e+21
-10.1468  2.55859e+21
-10.0295  2.70469e+21
-9.91217  2.85551e+21
-9.79487  3.01242e+21
-9.67756  3.17583e+21
-9.56026  3.34464e+21
-9.44295  3.51575e+21
-9.32565  3.68544e+21
-9.20834  3.84934e+21
-9.09104  4.00392e+21
-8.97373  4.14642e+21
-8.85643  4.27589e+21
-8.73913  4.394e+21
-8.62182  4.50336e+21
-8.50452  4.60823e+21
-8.38721  4.71396e+21
-8.26991  4.82506e+21
-8.1526  4.94668e+21
-8.03529  5.08172e+21
-7.91799  5.23211e+21
-7.80069  5.39776e+21
-7.68338  5.57802e+21
-7.56608  5.77052e+21
-7.44877  5.97302e+21
-7.33146  6.18293e+21
-7.21416  6.39821e+21
-7.09685  6.61701e+21
-6.97955  6.839e+21
-6.86224  7.06339e+21
-6.74494  7.29014e+21
-6.62763  7.51886e+21
-6.51033  7.74954e+21
-6.39302  7.98066e+21
-6.27572  8.21146e+21
-6.15842  8.4396e+21
-6.04111  8.66313e+21
-5.92381  8.8798e+21
-5.8065  9.08787e+21
-5.68919  9.28631e+21
-5.57189  9.4751e+21
-5.45458  9.6562e+21
-5.33728  9.83133e+21
-5.21997  1.00047e+22
-5.10267  1.01812e+22
-4.98536  1.03662e+22
-4.86806  1.05648e+22
-4.75075  1.07828e+22
-4.63345  1.10251e+22
-4.51614  1.12966e+22
-4.39884  1.16004e+22
-4.28154  1.19404e+22
-4.16423  1.232e+22
-4.04692  1.27407e+22
-3.92962  1.32047e+22
-3.81231  1.3715e+22
-3.69501  1.42721e+22
-3.5777  1.48787e+22
-3.4604  1.55347e+22
-3.34309  1.62408e+22
-3.22579  1.69965e+22
-3.10849  1.78024e+22
-2.99118  1.86564e+22
-2.87387  1.95585e+22
-2.75657  2.05078e+22
-2.63926  2.15035e+22
-2.52196  2.25446e+22
-2.40465  2.36303e+22
-2.28735  2.47587e+22
-2.17005  2.59267e+22
-2.05274  2.71292e+22
-1.93544  2.83595e+22
-1.81813  2.96084e+22
-1.70083  3.08641e+22
-1.58352  3.21143e+22
-1.46622  3.33434e+22
-1.34891  3.45354e+22
-1.2316  3.56768e+22
-1.1143  3.67514e+22
-0.996995  3.77461e+22
-0.87969  3.86511e+22
-0.762385  3.94552e+22
-0.64508  4.0153e+22
-0.527775  4.074e+22
-0.41047  4.1212e+22
-0.293165  4.15669e+22
-0.17586  4.18059e+22
-0.058555  4.19271e+22
0.05875  4.19306e+22
0.176055  4.18167e+22
0.29336  4.15857e+22
0.410665  4.12369e+22
0.52797  4.07719e+22
0.645275  4.01915e+22
0.76258  3.95005e+22
0.879885  3.87016e+22
0.99719  3.78034e+22
1.1145  3.68141e+22
1.2318  3.57455e+22
1.3491  3.46096e+22
1.46641  3.34228e+22
1.58371  3.21981e+22
1.70102  3.09527e+22
1.81832  2.97008e+22
1.93563  2.84551e+22
2.05294  2.72275e+22
2.17024  2.6027e+22
2.28754  2.48603e+22
2.40485  2.37323e+22
2.52216  2.26461e+22
2.63946  2.16039e+22
2.75677  2.06066e+22
2.87407  1.96555e+22
2.99137  1.87517e+22
3.10868  1.7895e+22
3.22599  1.70873e+22
3.34329  1.63299e+22
3.4606  1.56218e+22
3.5779  1.49643e+22
3.69521  1.43569e+22
3.81251  1.37983e+22
3.92982  1.32871e+22
4.04712  1.28219e+22
4.16443  1.24003e+22
4.28173  1.20199e+22
4.39903  1.16784e+22
4.51634  1.1373e+22
4.63364  1.11e+22
4.75095  1.08561e+22
4.86825  1.06359e+22
4.98556  1.04352e+22
5.10286  1.02485e+22
5.22017  1.00692e+22
5.33748  9.89353e+21
5.45478  9.7163e+21
5.57209  9.53338e+21
5.68939  9.34299e+21
5.8067  9.14316e+21
5.924  8.93403e+21
6.0413  8.71705e+21
6.15861  8.49326e+21
6.27591  8.26503e+21
6.39322  8.03462e+21
6.51052  7.80338e+21
6.62783  7.5729e+21
6.74514  7.34382e+21
6.86244  7.11693e+21
6.97975  6.89183e+21
7.09705  6.66899e+21
7.21436  6.44882e+21
7.33166  6.23231e+21
7.44897  6.02107e+21
7.56627  5.81734e+21
7.68358  5.62346e+21
7.80088  5.44216e+21
7.91819  5.27521e+21
8.03549  5.12392e+21
8.1528  4.98785e+21
8.2701  4.86528e+21
8.38741  4.75299e+21
8.50471  4.64616e+21
8.62202  4.5404e+21
8.73932  4.42983e+21
8.85662  4.31048e+21
8.97393  4.17951e+21
9.09123  4.03593e+21
9.20854  3.88032e+21
9.32584  3.71539e+21
9.44315  3.5449e+21
9.56045  3.37308e+21
9.67776  3.20348e+21
9.79506  3.03909e+21
9.91237  2.8814e+21
10.0297  2.72946e+21
10.147  2.58175e+21
10.2643  2.43559e+21
10.3816  2.2882e+21
10.4989  2.13735e+21
10.6162  1.98219e+21
10.7335  1.82333e+21
10.8508  1.66291e+21
10.9681  1.50458e+21
11.0854  1.35262e+21
11.2027  1.21161e+21
11.32  1.08545e+21
11.4373  9.77301e+20
11.5546  8.88993e+20
11.6719  8.2116e+20
11.7893  7.72932e+20
11.9066  7.42698e+20
12.0239  7.28207e+20
12.1412  7.26244e+20
12.2585  7.33589e+20
12.3758  7.46622e+20
12.4931  7.6175e+20
12.6104  7.75433e+20
12.7277  7.84309e+20
12.845  7.85857e+20
12.9623  7.78308e+20
13.0796  7.60839e+20
13.1969  7.34495e+20
13.3142  7.00631e+20
13.4315  6.6227e+20
13.5488  6.22548e+20
13.6661  5.84567e+20
13.7834  5.51055e+20
13.9007  5.23688e+20
14.018  5.03009e+20
14.1354  4.88474e+20
14.2527  4.78536e+20
14.37  4.71173e+20
14.4873  4.64388e+20
14.6046  4.56209e+20
14.7219  4.45503e+20
14.8392  4.3174e+20
14.9565  4.15099e+20
15.0738  3.96345e+20
15.1911  3.76358e+20
15.3084  3.5622e+20
15.4257  3.36742e+20
15.543  3.18556e+20
15.6603  3.02171e+20
15.7776  2.878e+20
15.8949  2.75808e+20
16.0122  2.66588e+20
16.1295  2.60736e+20
16.2468  2.58965e+20
16.3641  2.61996e+20
16.4815  2.70374e+20
16.5988  2.84436e+20
16.7161  3.0392e+20
16.8334  3.28126e+20
16.9507  3.55753e+20
17.068  3.85011e+20
17.1853  4.139e+20
17.3026  4.40398e+20
17.4199  4.62712e+20
17.5372  4.79488e+20
17.6545  4.89767e+20
17.7718  4.93623e+20
17.8891  4.91466e+20
18.0064  4.84381e+20
18.1237  4.73636e+20
18.241  4.61077e+20
18.3583  4.48045e+20
18.4756  4.35771e+20
18.5929  4.25043e+20
18.7102  4.1622e+20
18.8275  4.08579e+20
18.9449  4.01647e+20
19.0622  3.94045e+20
19.1795  3.84627e+20
19.2968  3.7264e+20
19.4141  3.57542e+20
19.5314  3.39763e+20
19.6487  3.20432e+20
19.766  3.01008e+20
19.8833  2.83511e+20
20.0006  2.69634e+20
20.1179  2.60707e+20
20.2352  2.57317e+20
20.3525  2.59173e+20
20.4698  2.65346e+20
20.5871  2.74336e+20
20.7044  2.84773e+20
20.8217  2.95778e+20
20.939  3.07019e+20
21.0563  3.19155e+20
21.1736  3.33245e+20
21.291  3.50616e+20
21.4083  3.72121e+20
21.5256  3.97656e+20
21.6429  4.25792e+20
21.7602  4.53811e+20
21.8775  4.77984e+20
21.9948  4.94236e+20
22.1121  4.9887e+20
22.2294  4.89718e+20
22.3467  4.6652e+20
22.464  4.30978e+20
22.5813  3.86939e+20
22.6986  3.39565e+20
22.8159  2.94261e+20
22.9332  2.56059e+20
23.0505  2.284e+20
23.1678  2.1276e+20
23.2851  2.08553e+20
23.4024  2.13305e+20
23.5198  2.23649e+20
23.6371  2.35726e+20
23.7544  2.46347e+20
23.8717  2.53344e+20
23.989  2.5602e+20
24.1063  2.54821e+20
24.2236  2.51134e+20
24.3409  2.46725e+20
24.4582  2.43077e+20
24.5755  2.4095e+20
24.6928  2.40246e+20
24.8101  2.39948e+20
24.9274  2.38548e+20
25.0447  2.343e+20
25.162  2.25785e+20
25.2793  2.12487e+20
25.3966  1.94595e+20
25.5139  1.73515e+20
25.6312  1.51318e+20
25.7485  1.30517e+20
25.8658  1.13726e+20
25.9832  1.03022e+20
26.1005  9.98763e+19
26.2178  1.04613e+20
26.3351  1.16732e+20
26.4524  1.34693e+20
26.5697  1.56315e+20
26.687  1.79172e+20
26.8043  2.00831e+20
26.9216  2.19308e+20
27.0389  2.33245e+20
27.1562  2.42092e+20
27.2735  2.46209e+20
27.3908  2.46611e+20
27.5081  2.44591e+20
27.6254  2.41708e+20
27.7427  2.39071e+20
27.86  2.37206e+20
27.9773  2.36081e+20
28.0946  2.34798e+20
28.212  2.32104e+20
28.3293  2.26464e+20
28.4466  2.16861e+20
28.5639  2.02619e+20
28.6812  1.84184e+20
28.7985  1.62887e+20
28.9158  1.40857e+20
29.0331  1.20561e+20
29.1504  1.04531e+20
29.2677  9.4663e+19
29.385  9.20474e+19
29.5023  9.6572e+19
29.6196  1.07215e+20
29.7369  1.22189e+20
29.8542  1.39337e+20
29.9715  1.56624e+20
30.0888  1.72353e+20
30.2061  1.85851e+20
30.3234  1.96789e+20
30.4407  2.05609e+20
30.558  2.12976e+20
30.6754  2.19444e+20
30.7927  2.25672e+20
30.91  2.31507e+20
31.0273  2.36663e+20
31.1446  2.40608e+20
31.2619  2.42814e+20
31.3792  2.42759e+20
31.4965  2.40368e+20
31.6138  2.35866e+20
31.7311  2.29718e+20
31.8484  2.22725e+20
31.9657  2.15615e+20
32.083  2.09124e+20
32.2003  2.03898e+20
32.3176  2.0045e+20
32.4349  1.99188e+20
32.5522  2.00475e+20
32.6695  2.04738e+20
32.7868  2.12334e+20
32.9042  2.23461e+20
33.0215  2.38159e+20
33.1388  2.56158e+20
33.2561  2.76518e+20
33.3734  2.97978e+20
33.4907  3.18592e+20
33.608  3.36417e+20
33.7253  3.49438e+20
33.8426  3.55659e+20
33.9599  3.54151e+20
34.0772  3.44519e+20
34.1945  3.27453e+20
34.3118  3.04495e+20
34.4291  2.77839e+20
34.5464  2.50058e+20
34.6637  2.23581e+20
34.781  2.00663e+20
34.8983  1.82501e+20
35.0156  1.69783e+20
35.1329  1.62259e+20
35.2503  1.59093e+20
35.3676  1.59038e+20
35.4849  1.6082e+20
35.6022  1.63301e+20
35.7195  1.65688e+20
35.8368  1.67549e+20
35.9541  1.68644e+20
36.0714  1.69056e+20
36.1887  1.68747e+20
36.306  1.67777e+20
36.4233  1.6603e+20
36.5406  1.63493e+20
36.6579  1.60093e+20
36.7752  1.561e+20
36.8925  1.51764e+20
37.0098  1.47645e+20
37.1271  1.44216e+20
37.2444  1.41765e+20
37.3617  1.40397e+20
37.479  1.39664e+20
37.5964  1.38906e+20
37.7137  1.37345e+20
37.831  1.34078e+20
37.9483  1.2873e+20
38.0656  1.21138e+20
38.1829  1.11946e+20
38.3002  1.02118e+20
38.4175  9.30337e+19
38.5348  8.60037e+19
38.6521  8.21695e+19
38.7694  8.2174e+19
38.8867  8.61993e+19
39.004  9.38887e+19
39.1213  1.04505e+20
39.2386  1.17141e+20
39.3559  1.30828e+20
39.4732  1.44687e+20
39.5905  1.57894e+20
39.7078  1.69701e+20
39.8251  1.79291e+20
39.9425  1.85836e+20
40.0598  1.88528e+20
40.1771  1.86603e+20
40.2944  1.79638e+20
40.4117  1.67541e+20
40.529  1.50961e+20
40.6463  1.30908e+20
40.7636  1.09052e+20
40.8809  8.72814e+19
40.9982  6.74947e+19
41.1155  5.14016e+19
41.2328  4.01838e+19
41.3501  3.44495e+19
41.4674  3.41514e+19
41.5847  3.87591e+19
41.702  4.73206e+19
41.8193  5.87719e+19
41.9366  7.19158e+19
42.0539  8.57829e+19
42.1712  9.94625e+19
42.2885  1.1217e+20
42.4059  1.23371e+20
42.5232  1.32575e+20
42.6405  1.39487e+20
42.7578  1.43764e+20
42.8751  1.45513e+20
42.9924  1.44936e+20
43.1097  1.42466e+20
43.227  1.38767e+20
43.3443  1.34609e+20
43.4616  1.30809e+20
43.5789  1.28068e+20
43.6962  1.26797e+20
43.8135  1.27095e+20
43.9308  1.28843e+20
44.0481  1.31489e+20
44.1654  1.34431e+20
44.2827  1.37094e+20
44.4  1.39046e+20
44.5173  1.40294e+20
44.6347  1.41271e+20
44.752  1.42821e+20
44.8693  1.45941e+20
44.9866  1.51738e+20
45.1039  1.61028e+20
45.2212  1.74192e+20
45.3385  1.90885e+20
45.4558  2.10238e+20
45.5731  2.30726e+20
45.6904  2.50673e+20
45.8077  2.68177e+20
45.925  2.81978e+20
46.0423  2.91145e+20
46.1596  2.95521e+20
46.2769  2.95365e+20
46.3942  2.91666e+20
46.5115  2.85165e+20
46.6288  2.76857e+20
46.7461  2.6718e+20
46.8634  2.56388e+20
46.9808  2.44489e+20
47.0981  2.31497e+20
47.2154  2.17574e+20
47.3327  2.03385e+20
47.45  1.89994e+20
47.5673  1.78808e+20
47.6846  1.71435e+20
47.8019  1.69221e+20
47.9192  1.73068e+20
48.0365  1.83079e+20
48.1538  1.98431e+20
48.2711  2.17685e+20
48.3884  2.38849e+20
48.5057  2.59834e+20
48.623  2.78721e+20
48.7403  2.94242e+20
48.8576  3.05978e+20
48.9749  3.13938e+20
49.0922  3.18694e+20
49.2095  3.20962e+20
49.3269  3.21607e+20
49.4442  3.20646e+20
49.5615  3.17972e+20
49.6788  3.12804e+20
49.7961  3.04208e+20
49.9134  2.91203e+20
50.0307  2.73174e+20
50.148  2.50063e+20
50.2653  2.22563e+20
50.3826  1.92116e+20
50.4999  1.60765e+20
50.6172  1.30984e+20
50.7345  1.05265e+20
50.8518  8.57499e+19
