#S 1 spectral density
#N 2
#UFWHM 27.0975
#L  abscissas [um]  spectral density
-58.5938  2.31919e+20
-58.4764  2.32706e+20
-58.3591  2.31053e+20
-58.2418  2.26843e+20
-58.1245  2.20134e+20
-58.0072  2.11617e+20
-57.8899  2.02287e+20
-57.7726  1.93236e+20
-57.6553  1.85725e+20
-57.538  1.80711e+20
-57.4207  1.78717e+20
-57.3034  1.79953e+20
-57.1861  1.84126e+20
-57.0688  1.90808e+20
-56.9515  1.99301e+20
-56.8342  2.08996e+20
-56.7169  2.19283e+20
-56.5996  2.29778e+20
-56.4823  2.40076e+20
-56.365  2.49872e+20
-56.2477  2.58997e+20
-56.1303  2.67051e+20
-56.013  2.73926e+20
-55.8957  2.79489e+20
-55.7784  2.84017e+20
-55.6611  2.87686e+20
-55.5438  2.90908e+20
-55.4265  2.94237e+20
-55.3092  2.9794e+20
-55.1919  3.02243e+20
-55.0746  3.06926e+20
-54.9573  3.11561e+20
-54.84  3.15587e+20
-54.7227  3.18337e+20
-54.6054  3.19345e+20
-54.4881  3.1835e+20
-54.3708  3.15347e+20
-54.2535  3.10896e+20
-54.1362  3.05779e+20
-54.0189  3.00757e+20
-53.9016  2.966e+20
-53.7842  2.94137e+20
-53.6669  2.93658e+20
-53.5496  2.95525e+20
-53.4323  2.99686e+20
-53.315  3.05977e+20
-53.1977  3.14059e+20
-53.0804  3.23434e+20
-52.9631  3.33418e+20
-52.8458  3.43208e+20
-52.7285  3.51902e+20
-52.6112  3.58555e+20
-52.4939  3.62322e+20
-52.3766  3.62652e+20
-52.2593  3.59357e+20
-52.142  3.52671e+20
-52.0247  3.43309e+20
-51.9074  3.32273e+20
-51.7901  3.2081e+20
-51.6728  3.10139e+20
-51.5555  3.01255e+20
-51.4381  2.94649e+20
-51.3208  2.90642e+20
-51.2035  2.88865e+20
-51.0862  2.88866e+20
-50.9689  2.89788e+20
-50.8516  2.90929e+20
-50.7343  2.9165e+20
-50.617  2.91447e+20
-50.4997  2.90055e+20
-50.3824  2.8747e+20
-50.2651  2.83745e+20
-50.1478  2.7938e+20
-50.0305  2.74703e+20
-49.9132  2.70483e+20
-49.7959  2.67266e+20
-49.6786  2.65808e+20
-49.5613  2.66786e+20
-49.444  2.70823e+20
-49.3267  2.78238e+20
-49.2094  2.89153e+20
-49.092  3.03371e+20
-48.9747  3.20347e+20
-48.8574  3.39268e+20
-48.7401  3.59054e+20
-48.6228  3.78596e+20
-48.5055  3.96707e+20
-48.3882  4.12427e+20
-48.2709  4.24844e+20
-48.1536  4.33434e+20
-48.0363  4.38043e+20
-47.919  4.38831e+20
-47.8017  4.36304e+20
-47.6844  4.3134e+20
-47.5671  4.25027e+20
-47.4498  4.1856e+20
-47.3325  4.13052e+20
-47.2152  4.09453e+20
-47.0979  4.08304e+20
-46.9806  4.09955e+20
-46.8633  4.1413e+20
-46.7459  4.2041e+20
-46.6286  4.28135e+20
-46.5113  4.36545e+20
-46.394  4.45119e+20
-46.2767  4.53396e+20
-46.1594  4.61273e+20
-46.0421  4.68659e+20
-45.9248  4.75667e+20
-45.8075  4.82259e+20
-45.6902  4.88147e+20
-45.5729  4.92957e+20
-45.4556  4.96165e+20
-45.3383  4.97089e+20
-45.221  4.95247e+20
-45.1037  4.90244e+20
-44.9864  4.82271e+20
-44.8691  4.71695e+20
-44.7518  4.59468e+20
-44.6345  4.46902e+20
-44.5172  4.35305e+20
-44.3998  4.26181e+20
-44.2825  4.20757e+20
-44.1652  4.20124e+20
-44.0479  4.24976e+20
-43.9306  4.35595e+20
-43.8133  4.51905e+20
-43.696  4.73417e+20
-43.5787  4.99227e+20
-43.4614  5.28095e+20
-43.3441  5.58519e+20
-43.2268  5.88945e+20
-43.1095  6.17708e+20
-42.9922  6.43412e+20
-42.8749  6.64906e+20
-42.7576  6.81709e+20
-42.6403  6.93664e+20
-42.523  7.01422e+20
-42.4057  7.0587e+20
-42.2884  7.08303e+20
-42.171  7.10115e+20
-42.0537  7.12483e+20
-41.9364  7.16304e+20
-41.8191  7.21945e+20
-41.7018  7.29512e+20
-41.5845  7.38597e+20
-41.4672  7.48562e+20
-41.3499  7.58644e+20
-41.2326  7.68145e+20
-41.1153  7.7653e+20
-40.998  7.83358e+20
-40.8807  7.88685e+20
-40.7634  7.92732e+20
-40.6461  7.96073e+20
-40.5288  7.99381e+20
-40.4115  8.03391e+20
-40.2942  8.09075e+20
-40.1769  8.16868e+20
-40.0596  8.27226e+20
-39.9423  8.40034e+20
-39.825  8.54801e+20
-39.7076  8.70757e+20
-39.5903  8.86351e+20
-39.473  9.00181e+20
-39.3557  9.10903e+20
-39.2384  9.17158e+20
-39.1211  9.18158e+20
-39.0038  9.13799e+20
-38.8865  9.04338e+20
-38.7692  8.90547e+20
-38.6519  8.73765e+20
-38.5346  8.55451e+20
-38.4173  8.37296e+20
-38.3  8.20822e+20
-38.1827  8.07592e+20
-38.0654  7.9898e+20
-37.9481  7.96177e+20
-37.8308  8.00248e+20
-37.7135  8.1175e+20
-37.5962  8.30818e+20
-37.4789  8.57233e+20
-37.3615  8.89907e+20
-37.2442  9.27378e+20
-37.1269  9.67393e+20
-37.0096  1.00775e+21
-36.8923  1.04619e+21
-36.775  1.08088e+21
-36.6577  1.1107e+21
-36.5404  1.13528e+21
-36.4231  1.155e+21
-36.3058  1.17089e+21
-36.1885  1.18422e+21
-36.0712  1.19634e+21
-35.9539  1.20821e+21
-35.8366  1.22027e+21
-35.7193  1.23232e+21
-35.602  1.24416e+21
-35.4847  1.25444e+21
-35.3674  1.26223e+21
-35.2501  1.26656e+21
-35.1328  1.26677e+21
-35.0154  1.26268e+21
-34.8981  1.25414e+21
-34.7808  1.24144e+21
-34.6635  1.22555e+21
-34.5462  1.20726e+21
-34.4289  1.18763e+21
-34.3116  1.16831e+21
-34.1943  1.15061e+21
-34.077  1.13599e+21
-33.9597  1.12606e+21
-33.8424  1.12174e+21
-33.7251  1.12381e+21
-33.6078  1.13226e+21
-33.4905  1.1465e+21
-33.3732  1.16552e+21
-33.2559  1.18774e+21
-33.1386  1.21171e+21
-33.0213  1.23566e+21
-32.904  1.25824e+21
-32.7867  1.27871e+21
-32.6693  1.29667e+21
-32.552  1.31216e+21
-32.4347  1.32573e+21
-32.3174  1.33776e+21
-32.2001  1.34933e+21
-32.0828  1.36109e+21
-31.9655  1.37396e+21
-31.8482  1.38842e+21
-31.7309  1.4047e+21
-31.6136  1.42312e+21
-31.4963  1.44325e+21
-31.379  1.46458e+21
-31.2617  1.48619e+21
-31.1444  1.50686e+21
-31.0271  1.52569e+21
-30.9098  1.54194e+21
-30.7925  1.55455e+21
-30.6752  1.5634e+21
-30.5579  1.56872e+21
-30.4406  1.57117e+21
-30.3232  1.57208e+21
-30.2059  1.5727e+21
-30.0886  1.57434e+21
-29.9713  1.57844e+21
-29.854  1.58603e+21
-29.7367  1.5975e+21
-29.6194  1.61338e+21
-29.5021  1.63319e+21
-29.3848  1.65632e+21
-29.2675  1.68203e+21
-29.1502  1.70862e+21
-29.0329  1.73472e+21
-28.9156  1.75861e+21
-28.7983  1.77857e+21
-28.681  1.79333e+21
-28.5637  1.80182e+21
-28.4464  1.80389e+21
-28.3291  1.79977e+21
-28.2118  1.79023e+21
-28.0944  1.7772e+21
-27.9771  1.76244e+21
-27.8598  1.74794e+21
-27.7425  1.73589e+21
-27.6252  1.7273e+21
-27.5079  1.72372e+21
-27.3906  1.72541e+21
-27.2733  1.73247e+21
-27.156  1.74458e+21
-27.0387  1.76067e+21
-26.9214  1.78014e+21
-26.8041  1.80182e+21
-26.6868  1.82462e+21
-26.5695  1.84743e+21
-26.4522  1.86923e+21
-26.3349  1.88964e+21
-26.2176  1.90822e+21
-26.1003  1.92495e+21
-25.983  1.94031e+21
-25.8657  1.95508e+21
-25.7483  1.97054e+21
-25.631  1.98848e+21
-25.5137  2.0106e+21
-25.3964  2.03838e+21
-25.2791  2.07337e+21
-25.1618  2.11671e+21
-25.0445  2.16879e+21
-24.9272  2.22977e+21
-24.8099  2.29868e+21
-24.6926  2.37438e+21
-24.5753  2.45531e+21
-24.458  2.53866e+21
-24.3407  2.62192e+21
-24.2234  2.70228e+21
-24.1061  2.77673e+21
-23.9888  2.84267e+21
-23.8715  2.89805e+21
-23.7542  2.9416e+21
-23.6369  2.97266e+21
-23.5196  2.99127e+21
-23.4023  2.99905e+21
-23.2849  2.99752e+21
-23.1676  2.98896e+21
-23.0503  2.97629e+21
-22.933  2.96168e+21
-22.8157  2.94811e+21
-22.6984  2.93755e+21
-22.5811  2.93198e+21
-22.4638  2.93325e+21
-22.3465  2.94193e+21
-22.2292  2.95895e+21
-22.1119  2.98417e+21
-21.9946  3.01723e+21
-21.8773  3.057e+21
-21.76  3.1019e+21
-21.6427  3.15052e+21
-21.5254  3.20106e+21
-21.4081  3.25199e+21
-21.2908  3.3019e+21
-21.1735  3.35002e+21
-21.0561  3.39625e+21
-20.9388  3.44113e+21
-20.8215  3.48589e+21
-20.7042  3.53157e+21
-20.5869  3.58005e+21
-20.4696  3.63286e+21
-20.3523  3.69146e+21
-20.235  3.75676e+21
-20.1177  3.82895e+21
-20.0004  3.90782e+21
-19.8831  3.993e+21
-19.7658  4.08224e+21
-19.6485  4.17392e+21
-19.5312  4.26556e+21
-19.4139  4.35453e+21
-19.2966  4.43817e+21
-19.1793  4.51439e+21
-19.062  4.58156e+21
-18.9447  4.63862e+21
-18.8274  4.68552e+21
-18.71  4.72361e+21
-18.5927  4.75449e+21
-18.4754  4.78086e+21
-18.3581  4.80592e+21
-18.2408  4.83272e+21
-18.1235  4.86445e+21
-18.0062  4.90341e+21
-17.8889  4.95143e+21
-17.7716  5.00971e+21
-17.6543  5.07756e+21
-17.537  5.15452e+21
-17.4197  5.2385e+21
-17.3024  5.32735e+21
-17.1851  5.41837e+21
-17.0678  5.5085e+21
-16.9505  5.59556e+21
-16.8332  5.67766e+21
-16.7159  5.75346e+21
-16.5986  5.82233e+21
-16.4813  5.88494e+21
-16.364  5.94267e+21
-16.2466  5.99759e+21
-16.1293  6.05287e+21
-16.012  6.1107e+21
-15.8947  6.17428e+21
-15.7774  6.2458e+21
-15.6601  6.32672e+21
-15.5428  6.4179e+21
-15.4255  6.51885e+21
-15.3082  6.62833e+21
-15.1909  6.74513e+21
-15.0736  6.86619e+21
-14.9563  6.98953e+21
-14.839  7.11256e+21
-14.7217  7.23336e+21
-14.6044  7.35024e+21
-14.4871  7.46253e+21
-14.3698  7.57003e+21
-14.2525  7.67328e+21
-14.1352  7.77323e+21
-14.0178  7.87215e+21
-13.9005  7.97173e+21
-13.7832  8.07418e+21
-13.6659  8.18139e+21
-13.5486  8.29445e+21
-13.4313  8.41378e+21
-13.314  8.53843e+21
-13.1967  8.6666e+21
-13.0794  8.7957e+21
-12.9621  8.92137e+21
-12.8448  9.04041e+21
-12.7275  9.14859e+21
-12.6102  9.24308e+21
-12.4929  9.32193e+21
-12.3756  9.38436e+21
-12.2583  9.43206e+21
-12.141  9.46777e+21
-12.0237  9.49551e+21
-11.9064  9.52042e+21
-11.7891  9.54807e+21
-11.6718  9.58423e+21
-11.5544  9.63405e+21
-11.4371  9.70213e+21
-11.3198  9.79053e+21
-11.2025  9.90082e+21
-11.0852  1.00322e+22
-10.9679  1.01817e+22
-10.8506  1.03452e+22
-10.7333  1.0517e+22
-10.616  1.06902e+22
-10.4987  1.08587e+22
-10.3814  1.10156e+22
-10.2641  1.1156e+22
-10.1468  1.12762e+22
-10.0295  1.13747e+22
-9.91217  1.14518e+22
-9.79487  1.151e+22
-9.67756  1.15534e+22
-9.56026  1.15872e+22
-9.44295  1.16172e+22
-9.32565  1.16498e+22
-9.20834  1.16903e+22
-9.09104  1.17432e+22
-8.97373  1.18118e+22
-8.85643  1.18972e+22
-8.73913  1.19995e+22
-8.62182  1.21163e+22
-8.50452  1.22446e+22
-8.38721  1.238e+22
-8.26991  1.2517e+22
-8.1526  1.26508e+22
-8.03529  1.27769e+22
-7.91799  1.28915e+22
-7.80069  1.29921e+22
-7.68338  1.30778e+22
-7.56608  1.31497e+22
-7.44877  1.321e+22
-7.33146  1.32621e+22
-7.21416  1.33102e+22
-7.09685  1.33586e+22
-6.97955  1.34116e+22
-6.86224  1.34729e+22
-6.74494  1.35453e+22
-6.62763  1.36291e+22
-6.51033  1.3724e+22
-6.39302  1.38283e+22
-6.27572  1.3938e+22
-6.15842  1.4049e+22
-6.04111  1.4156e+22
-5.92381  1.42541e+22
-5.8065  1.43394e+22
-5.68919  1.44082e+22
-5.57189  1.44591e+22
-5.45458  1.4492e+22
-5.33728  1.45092e+22
-5.21997  1.4514e+22
-5.10267  1.45112e+22
-4.98536  1.45065e+22
-4.86806  1.45058e+22
-4.75075  1.45144e+22
-4.63345  1.45374e+22
-4.51614  1.45779e+22
-4.39884  1.4638e+22
-4.28154  1.47187e+22
-4.16423  1.48179e+22
-4.04692  1.49333e+22
-3.92962  1.50607e+22
-3.81231  1.51957e+22
-3.69501  1.53324e+22
-3.5777  1.54659e+22
-3.4604  1.55915e+22
-3.34309  1.57054e+22
-3.22579  1.58051e+22
-3.10849  1.58896e+22
-2.99118  1.59588e+22
-2.87387  1.60151e+22
-2.75657  1.60607e+22
-2.63926  1.60994e+22
-2.52196  1.61342e+22
-2.40465  1.61684e+22
-2.28735  1.62041e+22
-2.17005  1.62424e+22
-2.05274  1.62841e+22
-1.93544  1.63268e+22
-1.81813  1.63684e+22
-1.70083  1.64059e+22
-1.58352  1.64355e+22
-1.46622  1.6454e+22
-1.34891  1.64584e+22
-1.2316  1.64472e+22
-1.1143  1.64203e+22
-0.996995  1.63784e+22
-0.87969  1.63244e+22
-0.762385  1.62613e+22
-0.64508  1.61947e+22
-0.527775  1.61288e+22
-0.41047  1.60689e+22
-0.293165  1.60194e+22
-0.17586  1.59843e+22
-0.058555  1.5966e+22
0.05875  1.59659e+22
0.176055  1.59839e+22
0.29336  1.60186e+22
0.410665  1.60678e+22
0.52797  1.61272e+22
0.645275  1.61923e+22
0.76258  1.62582e+22
0.879885  1.63201e+22
0.99719  1.63731e+22
1.1145  1.64136e+22
1.2318  1.64393e+22
1.3491  1.6449e+22
1.46641  1.64431e+22
1.58371  1.6423e+22
1.70102  1.63917e+22
1.81832  1.63529e+22
1.93563  1.63094e+22
2.05294  1.62652e+22
2.17024  1.62224e+22
2.28754  1.61823e+22
2.40485  1.61451e+22
2.52216  1.61093e+22
2.63946  1.60732e+22
2.75677  1.60331e+22
2.87407  1.5986e+22
2.99137  1.59284e+22
3.10868  1.58577e+22
3.22599  1.57722e+22
3.34329  1.56716e+22
3.4606  1.5557e+22
3.5779  1.54309e+22
3.69521  1.52971e+22
3.81251  1.51602e+22
3.92982  1.50253e+22
4.04712  1.48979e+22
4.16443  1.47828e+22
4.28173  1.46837e+22
4.39903  1.46034e+22
4.51634  1.45432e+22
4.63364  1.45027e+22
4.75095  1.44796e+22
4.86825  1.44704e+22
4.98556  1.44705e+22
5.10286  1.44743e+22
5.22017  1.4476e+22
5.33748  1.447e+22
5.45478  1.44515e+22
5.57209  1.44172e+22
5.68939  1.4365e+22
5.8067  1.4295e+22
5.924  1.42088e+22
6.0413  1.41097e+22
6.15861  1.4002e+22
6.27591  1.38904e+22
6.39322  1.37805e+22
6.51052  1.36764e+22
6.62783  1.3581e+22
6.74514  1.34971e+22
6.86244  1.3425e+22
6.97975  1.33633e+22
7.09705  1.331e+22
7.21436  1.3261e+22
7.33166  1.32125e+22
7.44897  1.31598e+22
7.56627  1.30988e+22
7.68358  1.30258e+22
7.80088  1.29392e+22
7.91819  1.28375e+22
8.03549  1.27222e+22
8.1528  1.25957e+22
8.2701  1.24611e+22
8.38741  1.23236e+22
8.50471  1.2188e+22
8.62202  1.20596e+22
8.73932  1.19425e+22
8.85662  1.18405e+22
8.97393  1.1755e+22
9.09123  1.16864e+22
9.20854  1.16334e+22
9.32584  1.15928e+22
9.44315  1.15599e+22
9.56045  1.15293e+22
9.67776  1.14948e+22
9.79506  1.14507e+22
9.91237  1.13916e+22
10.0297  1.13136e+22
10.147  1.12143e+22
10.2643  1.10934e+22
10.3816  1.09523e+22
10.4989  1.0795e+22
10.6162  1.06265e+22
10.7335  1.04533e+22
10.8508  1.0282e+22
10.9681  1.0119e+22
11.0854  9.9703e+21
11.2027  9.84009e+21
11.32  9.73052e+21
11.4373  9.64295e+21
11.5546  9.57606e+21
11.6719  9.52683e+21
11.7893  9.4914e+21
11.9066  9.46403e+21
12.0239  9.43937e+21
12.1412  9.41184e+21
12.2585  9.37611e+21
12.3758  9.32795e+21
12.4931  9.26496e+21
12.6104  9.18565e+21
12.7277  9.09079e+21
12.845  8.98233e+21
12.9623  8.86287e+21
13.0796  8.73677e+21
13.1969  8.60769e+21
13.3142  8.47944e+21
13.4315  8.35475e+21
13.5488  8.23571e+21
13.6661  8.12293e+21
13.7834  8.01594e+21
13.9007  7.91384e+21
14.018  7.81484e+21
14.1354  7.71637e+21
14.2527  7.61673e+21
14.37  7.51413e+21
14.4873  7.40714e+21
14.6046  7.29549e+21
14.7219  7.17915e+21
14.8392  7.05911e+21
14.9565  6.93671e+21
15.0738  6.81404e+21
15.1911  6.69358e+21
15.3084  6.57753e+21
15.4257  6.46842e+21
15.543  6.36795e+21
15.6603  6.27726e+21
15.7776  6.19683e+21
15.8949  6.12579e+21
16.0122  6.06239e+21
16.1295  6.00466e+21
16.2468  5.94976e+21
16.3641  5.89484e+21
16.4815  5.83746e+21
16.5988  5.77502e+21
16.7161  5.7064e+21
16.8334  5.63115e+21
16.9507  5.54955e+21
17.068  5.46284e+21
17.1853  5.37327e+21
17.3026  5.28291e+21
17.4199  5.19489e+21
17.5372  5.11167e+21
17.6545  5.03537e+21
17.7718  4.96807e+21
17.8891  4.91059e+21
18.0064  4.86301e+21
18.1237  4.82448e+21
18.241  4.79319e+21
18.3583  4.76674e+21
18.4756  4.74191e+21
18.5929  4.7157e+21
18.7102  4.68522e+21
18.8275  4.64734e+21
18.9449  4.60058e+21
19.0622  4.54397e+21
19.1795  4.47716e+21
19.2968  4.40156e+21
19.4141  4.31844e+21
19.5314  4.23027e+21
19.6487  4.13942e+21
19.766  4.04838e+21
19.8833  3.95993e+21
20.0006  3.87565e+21
20.1179  3.79727e+21
20.2352  3.72554e+21
20.3525  3.66086e+21
20.4698  3.60288e+21
20.5871  3.55048e+21
20.7044  3.50223e+21
20.8217  3.45676e+21
20.939  3.4123e+21
21.0563  3.36763e+21
21.1736  3.32184e+21
21.291  3.27402e+21
21.4083  3.22459e+21
21.5256  3.17433e+21
21.6429  3.1244e+21
21.7602  3.07637e+21
21.8775  3.03212e+21
21.9948  2.9931e+21
22.1121  2.96092e+21
22.2294  2.9365e+21
22.3467  2.92003e+21
22.464  2.91188e+21
22.5813  2.91124e+21
22.6986  2.91702e+21
22.8159  2.92784e+21
22.9332  2.94167e+21
23.0505  2.95632e+21
23.1678  2.96907e+21
23.2851  2.97751e+21
23.4024  2.97914e+21
23.5198  2.97125e+21
23.6371  2.95246e+21
23.7544  2.92146e+21
23.8717  2.87792e+21
23.989  2.82267e+21
24.1063  2.75682e+21
24.2236  2.68273e+21
24.3409  2.60288e+21
24.4582  2.51991e+21
24.5755  2.43713e+21
24.6928  2.35691e+21
24.8101  2.28168e+21
24.9274  2.21321e+21
25.0447  2.1529e+21
25.162  2.10142e+21
25.2793  2.05871e+21
25.3966  2.0241e+21
25.5139  1.99666e+21
25.6312  1.97489e+21
25.7485  1.95723e+21
25.8658  1.942e+21
25.9832  1.92738e+21
26.1005  1.91226e+21
26.2178  1.89584e+21
26.3351  1.87751e+21
26.4524  1.85725e+21
26.5697  1.83557e+21
26.687  1.81303e+21
26.8043  1.79058e+21
26.9216  1.76941e+21
27.0389  1.75018e+21
27.1562  1.73441e+21
27.2735  1.72276e+21
27.3908  1.716e+21
27.5081  1.71461e+21
27.6254  1.7185e+21
27.7427  1.72729e+21
27.86  1.73957e+21
27.9773  1.7541e+21
28.0946  1.76903e+21
28.212  1.78192e+21
28.3293  1.79128e+21
28.4466  1.7953e+21
28.5639  1.79306e+21
28.6812  1.78437e+21
28.7985  1.76944e+21
28.9158  1.74942e+21
29.0331  1.72555e+21
29.1504  1.6994e+21
29.2677  1.67297e+21
29.385  1.64751e+21
29.5023  1.62457e+21
29.6196  1.60492e+21
29.7369  1.58939e+21
29.8542  1.57822e+21
29.9715  1.57109e+21
30.0888  1.56726e+21
30.2061  1.56573e+21
30.3234  1.56529e+21
30.4407  1.56459e+21
30.558  1.56217e+21
30.6754  1.55683e+21
30.7927  1.54794e+21
30.91  1.5354e+21
31.0273  1.51929e+21
31.1446  1.50028e+21
31.2619  1.47958e+21
31.3792  1.45797e+21
31.4965  1.43673e+21
31.6138  1.41684e+21
31.7311  1.39844e+21
31.8484  1.38226e+21
31.9657  1.36789e+21
32.083  1.35518e+21
32.2003  1.34346e+21
32.3176  1.33192e+21
32.4349  1.31992e+21
32.5522  1.30637e+21
32.6695  1.2908e+21
32.7868  1.27288e+21
32.9042  1.25227e+21
33.0215  1.22961e+21
33.1388  1.20565e+21
33.2561  1.18171e+21
33.3734  1.15948e+21
33.4907  1.1405e+21
33.608  1.12639e+21
33.7253  1.11808e+21
33.8426  1.1161e+21
33.9599  1.12061e+21
34.0772  1.13065e+21
34.1945  1.14532e+21
34.3118  1.16299e+21
34.4291  1.18244e+21
34.5464  1.20208e+21
34.6637  1.22044e+21
34.781  1.23636e+21
34.8983  1.24884e+21
35.0156  1.25732e+21
35.1329  1.26151e+21
35.2503  1.26121e+21
35.3676  1.25681e+21
35.4849  1.24886e+21
35.6022  1.23863e+21
35.7195  1.22692e+21
35.8368  1.21471e+21
35.9541  1.20271e+21
36.0714  1.19077e+21
36.1887  1.17862e+21
36.306  1.16536e+21
36.4233  1.14926e+21
36.5406  1.1294e+21
36.6579  1.10464e+21
36.7752  1.07471e+21
36.8925  1.03987e+21
37.0098  1.00136e+21
37.1271  9.61026e+20
37.2444  9.21048e+20
37.3617  8.83711e+20
37.479  8.51186e+20
37.5964  8.24998e+20
37.7137  8.06035e+20
37.831  7.94784e+20
37.9483  7.90864e+20
38.0656  7.93794e+20
38.1829  8.02475e+20
38.3002  8.158e+20
38.4175  8.32321e+20
38.5348  8.50433e+20
38.6521  8.6877e+20
38.7694  8.85481e+20
38.8867  8.99154e+20
39.004  9.08506e+20
39.1213  9.12821e+20
39.2386  9.11744e+20
39.3559  9.0541e+20
39.4732  8.94687e+20
39.5905  8.80745e+20
39.7078  8.65146e+20
39.8251  8.4938e+20
39.9425  8.34658e+20
40.0598  8.21989e+20
40.1771  8.11631e+20
40.2944  8.03929e+20
40.4117  7.9838e+20
40.529  7.94342e+20
40.6463  7.91095e+20
40.7636  7.8776e+20
40.8809  7.83732e+20
40.9982  7.78447e+20
41.1155  7.71529e+20
41.2328  7.63234e+20
41.3501  7.53783e+20
41.4674  7.43781e+20
41.5847  7.33879e+20
41.702  7.24935e+20
41.8193  7.17487e+20
41.9366  7.11924e+20
42.0539  7.08174e+20
42.1712  7.05861e+20
42.2885  7.04037e+20
42.4059  7.01518e+20
42.5232  6.97025e+20
42.6405  6.89136e+20
42.7578  6.77054e+20
42.8751  6.60152e+20
42.9924  6.38604e+20
43.1097  6.129e+20
43.227  5.84146e+20
43.3443  5.5389e+20
43.4616  5.2359e+20
43.5789  4.94962e+20
43.6962  4.69427e+20
43.8135  4.48242e+20
43.9308  4.32246e+20
44.0481  4.21885e+20
44.1654  4.17329e+20
44.2827  4.18159e+20
44.4  4.23733e+20
44.5173  4.33027e+20
44.6347  4.44638e+20
44.752  4.57282e+20
44.8693  4.69376e+20
44.9866  4.79855e+20
45.1039  4.87754e+20
45.2212  4.92651e+20
45.3385  4.94436e+20
45.4558  4.93394e+20
45.5731  4.90181e+20
45.6904  4.85375e+20
45.8077  4.79478e+20
45.925  4.72981e+20
46.0423  4.66068e+20
46.1596  4.58787e+20
46.2769  4.50961e+20
46.3942  4.42798e+20
46.5115  4.34306e+20
46.6288  4.25988e+20
46.7461  4.18361e+20
46.8634  4.1219e+20
46.9808  4.08141e+20
47.0981  4.06593e+20
47.2154  4.07836e+20
47.3327  4.11477e+20
47.45  4.17033e+20
47.5673  4.23518e+20
47.6846  4.29797e+20
47.8019  4.34662e+20
47.9192  4.37093e+20
48.0365  4.36226e+20
48.1538  4.31486e+20
48.2711  4.22751e+20
48.3884  4.10246e+20
48.5057  3.94512e+20
48.623  3.76379e+20
48.7403  3.5687e+20
48.8576  3.37163e+20
48.9749  3.18349e+20
49.0922  3.01496e+20
49.2095  2.87467e+20
49.3269  2.76695e+20
49.4442  2.69497e+20
49.5615  2.65578e+20
49.6788  2.64728e+20
49.7961  2.66257e+20
49.9134  2.69596e+20
50.0307  2.73892e+20
50.148  2.7856e+20
50.2653  2.82958e+20
50.3826  2.86627e+20
50.4999  2.89207e+20
50.6172  2.90567e+20
50.7345  2.90754e+20
50.8518  2.90036e+20
50.9691  2.88877e+20
