#S 1 spectral density
#N 2
#UFWHM 28.7397
#L  abscissas [um]  spectral density
-58.5938  1.96021e+20
-58.4764  1.99322e+20
-58.3591  2.01602e+20
-58.2418  2.02734e+20
-58.1245  2.02804e+20
-58.0072  2.01996e+20
-57.8899  2.00578e+20
-57.7726  1.98807e+20
-57.6553  1.9681e+20
-57.538  1.94515e+20
-57.4207  1.91693e+20
-57.3034  1.88019e+20
-57.1861  1.83226e+20
-57.0688  1.77144e+20
-56.9515  1.70077e+20
-56.8342  1.6261e+20
-56.7169  1.55704e+20
-56.5996  1.50404e+20
-56.4823  1.47724e+20
-56.365  1.48322e+20
-56.2477  1.52358e+20
-56.1303  1.59566e+20
-56.013  1.69056e+20
-55.8957  1.79741e+20
-55.7784  1.90423e+20
-55.6611  2.00027e+20
-55.5438  2.0782e+20
-55.4265  2.13379e+20
-55.3092  2.16765e+20
-55.1919  2.18245e+20
-55.0746  2.18401e+20
-54.9573  2.17797e+20
-54.84  2.16962e+20
-54.7227  2.16559e+20
-54.6054  2.16911e+20
-54.4881  2.18361e+20
-54.3708  2.20999e+20
-54.2535  2.24839e+20
-54.1362  2.29555e+20
-54.0189  2.34671e+20
-53.9016  2.39487e+20
-53.7842  2.43176e+20
-53.6669  2.44938e+20
-53.5496  2.4423e+20
-53.4323  2.40732e+20
-53.315  2.34576e+20
-53.1977  2.26211e+20
-53.0804  2.16396e+20
-52.9631  2.05986e+20
-52.8458  1.9576e+20
-52.7285  1.86241e+20
-52.6112  1.77703e+20
-52.4939  1.70043e+20
-52.3766  1.63066e+20
-52.2593  1.56416e+20
-52.142  1.49901e+20
-52.0247  1.43571e+20
-51.9074  1.37703e+20
-51.7901  1.3286e+20
-51.6728  1.29712e+20
-51.5555  1.28924e+20
-51.4381  1.31179e+20
-51.3208  1.36731e+20
-51.2035  1.45768e+20
-51.0862  1.58049e+20
-50.9689  1.73277e+20
-50.8516  1.90872e+20
-50.7343  2.10137e+20
-50.617  2.30281e+20
-50.4997  2.50595e+20
-50.3824  2.70095e+20
-50.2651  2.8802e+20
-50.1478  3.03414e+20
-50.0305  3.15599e+20
-49.9132  3.2391e+20
-49.7959  3.28016e+20
-49.6786  3.27796e+20
-49.5613  3.23407e+20
-49.444  3.15373e+20
-49.3267  3.043e+20
-49.2094  2.91046e+20
-49.092  2.76462e+20
-48.9747  2.61477e+20
-48.8574  2.46857e+20
-48.7401  2.33211e+20
-48.6228  2.21089e+20
-48.5055  2.10802e+20
-48.3882  2.0244e+20
-48.2709  1.96026e+20
-48.1536  1.91525e+20
-48.0363  1.88816e+20
-47.919  1.87913e+20
-47.8017  1.88907e+20
-47.6844  1.92145e+20
-47.5671  1.98028e+20
-47.4498  2.07023e+20
-47.3325  2.19654e+20
-47.2152  2.35987e+20
-47.0979  2.55933e+20
-46.9806  2.78772e+20
-46.8633  3.03302e+20
-46.7459  3.27912e+20
-46.6286  3.50675e+20
-46.5113  3.6978e+20
-46.394  3.83573e+20
-46.2767  3.90926e+20
-46.1594  3.91365e+20
-46.0421  3.85123e+20
-45.9248  3.73194e+20
-45.8075  3.57059e+20
-45.6902  3.38635e+20
-45.5729  3.19955e+20
-45.4556  3.03007e+20
-45.3383  2.89614e+20
-45.221  2.81126e+20
-45.1037  2.78458e+20
-44.9864  2.81835e+20
-44.8691  2.90986e+20
-44.7518  3.0503e+20
-44.6345  3.2258e+20
-44.5172  3.417e+20
-44.3998  3.6042e+20
-44.2825  3.76731e+20
-44.1652  3.89092e+20
-44.0479  3.96293e+20
-43.9306  3.98047e+20
-43.8133  3.94786e+20
-43.696  3.87498e+20
-43.5787  3.77908e+20
-43.4614  3.67916e+20
-43.3441  3.5926e+20
-43.2268  3.53448e+20
-43.1095  3.51356e+20
-42.9922  3.53334e+20
-42.8749  3.59041e+20
-42.7576  3.67634e+20
-42.6403  3.78032e+20
-42.523  3.89009e+20
-42.4057  3.99427e+20
-42.2884  4.08533e+20
-42.171  4.15827e+20
-42.0537  4.21004e+20
-41.9364  4.24345e+20
-41.8191  4.26216e+20
-41.7018  4.27413e+20
-41.5845  4.28601e+20
-41.4672  4.30588e+20
-41.3499  4.34096e+20
-41.2326  4.39666e+20
-41.1153  4.47564e+20
-40.998  4.5769e+20
-40.8807  4.69487e+20
-40.7634  4.82299e+20
-40.6461  4.94947e+20
-40.5288  5.06403e+20
-40.4115  5.15265e+20
-40.2942  5.20575e+20
-40.1769  5.21585e+20
-40.0596  5.18105e+20
-39.9423  5.10238e+20
-39.825  4.98582e+20
-39.7076  4.84308e+20
-39.5903  4.68731e+20
-39.473  4.53676e+20
-39.3557  4.40924e+20
-39.2384  4.32291e+20
-39.1211  4.29356e+20
-39.0038  4.33306e+20
-38.8865  4.44608e+20
-38.7692  4.62958e+20
-38.6519  4.8715e+20
-38.5346  5.15199e+20
-38.4173  5.44442e+20
-38.3  5.71965e+20
-38.1827  5.94902e+20
-38.0654  6.11091e+20
-37.9481  6.19025e+20
-37.8308  6.1862e+20
-37.7135  6.10633e+20
-37.5962  5.97129e+20
-37.4789  5.80606e+20
-37.3615  5.63705e+20
-37.2442  5.48996e+20
-37.1269  5.38155e+20
-37.0096  5.32453e+20
-36.8923  5.31904e+20
-36.775  5.3604e+20
-36.6577  5.43833e+20
-36.5404  5.54056e+20
-36.4231  5.6544e+20
-36.3058  5.76739e+20
-36.1885  5.87317e+20
-36.0712  5.96608e+20
-35.9539  6.04433e+20
-35.8366  6.10974e+20
-35.7193  6.16552e+20
-35.602  6.22047e+20
-35.4847  6.28127e+20
-35.3674  6.35706e+20
-35.2501  6.45694e+20
-35.1328  6.58594e+20
-35.0154  6.74573e+20
-34.8981  6.92841e+20
-34.7808  7.12172e+20
-34.6635  7.30903e+20
-34.5462  7.46636e+20
-34.4289  7.57206e+20
-34.3116  7.60839e+20
-34.1943  7.56241e+20
-34.077  7.42902e+20
-33.9597  7.2161e+20
-33.8424  6.93675e+20
-33.7251  6.61349e+20
-33.6078  6.26887e+20
-33.4905  5.92825e+20
-33.3732  5.61435e+20
-33.2559  5.34432e+20
-33.1386  5.13238e+20
-33.0213  4.98506e+20
-32.904  4.90465e+20
-32.7867  4.88872e+20
-32.6693  4.93168e+20
-32.552  5.02426e+20
-32.4347  5.15457e+20
-32.3174  5.30994e+20
-32.2001  5.47943e+20
-32.0828  5.65306e+20
-31.9655  5.82452e+20
-31.8482  5.99155e+20
-31.7309  6.15753e+20
-31.6136  6.3295e+20
-31.4963  6.517e+20
-31.379  6.73022e+20
-31.2617  6.98008e+20
-31.1444  7.27192e+20
-31.0271  7.60875e+20
-30.9098  7.99058e+20
-30.7925  8.40915e+20
-30.6752  8.85528e+20
-30.5579  9.31803e+20
-30.4406  9.78346e+20
-30.3232  1.02389e+21
-30.2059  1.06712e+21
-30.0886  1.10706e+21
-29.9713  1.1431e+21
-29.854  1.17485e+21
-29.7367  1.20225e+21
-29.6194  1.22579e+21
-29.5021  1.24616e+21
-29.3848  1.26418e+21
-29.2675  1.2808e+21
-29.1502  1.29665e+21
-29.0329  1.31214e+21
-28.9156  1.32729e+21
-28.7983  1.34156e+21
-28.681  1.35426e+21
-28.5637  1.36461e+21
-28.4464  1.37189e+21
-28.3291  1.37573e+21
-28.2118  1.3762e+21
-28.0944  1.37394e+21
-27.9771  1.37005e+21
-27.8598  1.36594e+21
-27.7425  1.36311e+21
-27.6252  1.36314e+21
-27.5079  1.36724e+21
-27.3906  1.37641e+21
-27.2733  1.39128e+21
-27.156  1.41197e+21
-27.0387  1.43863e+21
-26.9214  1.47089e+21
-26.8041  1.50837e+21
-26.6868  1.55059e+21
-26.5695  1.59699e+21
-26.4522  1.64707e+21
-26.3349  1.70038e+21
-26.2176  1.75648e+21
-26.1003  1.81479e+21
-25.983  1.87504e+21
-25.8657  1.93672e+21
-25.7483  1.99903e+21
-25.631  2.06116e+21
-25.5137  2.12171e+21
-25.3964  2.17937e+21
-25.2791  2.23223e+21
-25.1618  2.27861e+21
-25.0445  2.31671e+21
-24.9272  2.34531e+21
-24.8099  2.36354e+21
-24.6926  2.37147e+21
-24.5753  2.3697e+21
-24.458  2.35991e+21
-24.3407  2.34418e+21
-24.2234  2.32555e+21
-24.1061  2.30699e+21
-23.9888  2.292e+21
-23.8715  2.284e+21
-23.7542  2.28618e+21
-23.6369  2.30118e+21
-23.5196  2.331e+21
-23.4023  2.37701e+21
-23.2849  2.43921e+21
-23.1676  2.51675e+21
-23.0503  2.60744e+21
-22.933  2.70833e+21
-22.8157  2.81549e+21
-22.6984  2.92482e+21
-22.5811  3.03198e+21
-22.4638  3.13338e+21
-22.3465  3.22592e+21
-22.2292  3.30784e+21
-22.1119  3.37845e+21
-21.9946  3.43855e+21
-21.8773  3.48996e+21
-21.76  3.53536e+21
-21.6427  3.57822e+21
-21.5254  3.622e+21
-21.4081  3.67004e+21
-21.2908  3.72492e+21
-21.1735  3.78855e+21
-21.0561  3.86141e+21
-20.9388  3.94298e+21
-20.8215  4.03091e+21
-20.7042  4.1223e+21
-20.5869  4.21295e+21
-20.4696  4.29873e+21
-20.3523  4.37525e+21
-20.235  4.43933e+21
-20.1177  4.48819e+21
-20.0004  4.52137e+21
-19.8831  4.53962e+21
-19.7658  4.5454e+21
-19.6485  4.54238e+21
-19.5312  4.53566e+21
-19.4139  4.52972e+21
-19.2966  4.52983e+21
-19.1793  4.53997e+21
-19.062  4.5634e+21
-18.9447  4.60142e+21
-18.8274  4.65416e+21
-18.71  4.72077e+21
-18.5927  4.79864e+21
-18.4754  4.88457e+21
-18.3581  4.97509e+21
-18.2408  5.06657e+21
-18.1235  5.15612e+21
-18.0062  5.24146e+21
-17.8889  5.3212e+21
-17.7716  5.39579e+21
-17.6543  5.4659e+21
-17.537  5.53408e+21
-17.4197  5.60293e+21
-17.3024  5.67606e+21
-17.1851  5.75674e+21
-17.0678  5.84746e+21
-16.9505  5.95074e+21
-16.8332  6.06771e+21
-16.7159  6.19814e+21
-16.5986  6.34053e+21
-16.4813  6.49259e+21
-16.364  6.65089e+21
-16.2466  6.81188e+21
-16.1293  6.97115e+21
-16.012  7.1246e+21
-15.8947  7.26871e+21
-15.7774  7.4009e+21
-15.6601  7.51925e+21
-15.5428  7.62341e+21
-15.4255  7.71364e+21
-15.3082  7.79218e+21
-15.1909  7.8624e+21
-15.0736  7.92725e+21
-14.9563  7.991e+21
-14.839  8.05737e+21
-14.7217  8.12912e+21
-14.6044  8.20822e+21
-14.4871  8.29503e+21
-14.3698  8.38859e+21
-14.2525  8.48647e+21
-14.1352  8.58489e+21
-14.0178  8.68098e+21
-13.9005  8.77047e+21
-13.7832  8.85059e+21
-13.6659  8.91993e+21
-13.5486  8.97811e+21
-13.4313  9.02684e+21
-13.314  9.06893e+21
-13.1967  9.10852e+21
-13.0794  9.1514e+21
-12.9621  9.20163e+21
-12.8448  9.26534e+21
-12.7275  9.34596e+21
-12.6102  9.44672e+21
-12.4929  9.56877e+21
-12.3756  9.71114e+21
-12.2583  9.87182e+21
-12.141  1.00467e+22
-12.0237  1.02296e+22
-11.9064  1.04139e+22
-11.7891  1.05925e+22
-11.6718  1.07581e+22
-11.5544  1.09054e+22
-11.4371  1.10305e+22
-11.3198  1.11304e+22
-11.2025  1.12056e+22
-11.0852  1.12587e+22
-10.9679  1.12939e+22
-10.8506  1.13175e+22
-10.7333  1.13361e+22
-10.616  1.1357e+22
-10.4987  1.13885e+22
-10.3814  1.14349e+22
-10.2641  1.15016e+22
-10.1468  1.15909e+22
-10.0295  1.17036e+22
-9.91217  1.18373e+22
-9.79487  1.19885e+22
-9.67756  1.21513e+22
-9.56026  1.23185e+22
-9.44295  1.2482e+22
-9.32565  1.26348e+22
-9.20834  1.27689e+22
-9.09104  1.28789e+22
-8.97373  1.29613e+22
-8.85643  1.3014e+22
-8.73913  1.30384e+22
-8.62182  1.30371e+22
-8.50452  1.30154e+22
-8.38721  1.29802e+22
-8.26991  1.29377e+22
-8.1526  1.28961e+22
-8.03529  1.28615e+22
-7.91799  1.28401e+22
-7.80069  1.2836e+22
-7.68338  1.28518e+22
-7.56608  1.28889e+22
-7.44877  1.29469e+22
-7.33146  1.30235e+22
-7.21416  1.31161e+22
-7.09685  1.32209e+22
-6.97955  1.33337e+22
-6.86224  1.34507e+22
-6.74494  1.35695e+22
-6.62763  1.36857e+22
-6.51033  1.3798e+22
-6.39302  1.39048e+22
-6.27572  1.40055e+22
-6.15842  1.41002e+22
-6.04111  1.41894e+22
-5.92381  1.42738e+22
-5.8065  1.43555e+22
-5.68919  1.44347e+22
-5.57189  1.45134e+22
-5.45458  1.45919e+22
-5.33728  1.46716e+22
-5.21997  1.47516e+22
-5.10267  1.48315e+22
-4.98536  1.49098e+22
-4.86806  1.49844e+22
-4.75075  1.50529e+22
-4.63345  1.51131e+22
-4.51614  1.51624e+22
-4.39884  1.5199e+22
-4.28154  1.52228e+22
-4.16423  1.52331e+22
-4.04692  1.52311e+22
-3.92962  1.52189e+22
-3.81231  1.51999e+22
-3.69501  1.51768e+22
-3.5777  1.5153e+22
-3.4604  1.51325e+22
-3.34309  1.51178e+22
-3.22579  1.51115e+22
-3.10849  1.5115e+22
-2.99118  1.51292e+22
-2.87387  1.51548e+22
-2.75657  1.51913e+22
-2.63926  1.5238e+22
-2.52196  1.5294e+22
-2.40465  1.53579e+22
-2.28735  1.54284e+22
-2.17005  1.5504e+22
-2.05274  1.55846e+22
-1.93544  1.56675e+22
-1.81813  1.57523e+22
-1.70083  1.58378e+22
-1.58352  1.59228e+22
-1.46622  1.60062e+22
-1.34891  1.60874e+22
-1.2316  1.61649e+22
-1.1143  1.62384e+22
-0.996995  1.63066e+22
-0.87969  1.63697e+22
-0.762385  1.64262e+22
-0.64508  1.64765e+22
-0.527775  1.65195e+22
-0.41047  1.65547e+22
-0.293165  1.65815e+22
-0.17586  1.65996e+22
-0.058555  1.66086e+22
0.05875  1.66082e+22
0.176055  1.65982e+22
0.29336  1.65789e+22
0.410665  1.65513e+22
0.52797  1.65152e+22
0.645275  1.64712e+22
0.76258  1.64201e+22
0.879885  1.63625e+22
0.99719  1.62987e+22
1.1145  1.62294e+22
1.2318  1.61551e+22
1.3491  1.6077e+22
1.46641  1.59952e+22
1.58371  1.59109e+22
1.70102  1.58252e+22
1.81832  1.5739e+22
1.93563  1.56533e+22
2.05294  1.55696e+22
2.17024  1.54889e+22
2.28754  1.54123e+22
2.40485  1.53411e+22
2.52216  1.52764e+22
2.63946  1.522e+22
2.75677  1.51723e+22
2.87407  1.5135e+22
2.99137  1.51083e+22
3.10868  1.50928e+22
3.22599  1.5088e+22
3.34329  1.50934e+22
3.4606  1.51068e+22
3.5779  1.5126e+22
3.69521  1.51478e+22
3.81251  1.51694e+22
3.92982  1.51866e+22
4.04712  1.51968e+22
4.16443  1.51971e+22
4.28173  1.51853e+22
4.39903  1.51602e+22
4.51634  1.5122e+22
4.63364  1.50718e+22
4.75095  1.50107e+22
4.86825  1.49414e+22
4.98556  1.48662e+22
5.10286  1.47876e+22
5.22017  1.47075e+22
5.33748  1.46274e+22
5.45478  1.45479e+22
5.57209  1.44692e+22
5.68939  1.43904e+22
5.8067  1.4311e+22
5.924  1.42292e+22
6.0413  1.41445e+22
6.15861  1.40548e+22
6.27591  1.39596e+22
6.39322  1.38585e+22
6.51052  1.37514e+22
6.62783  1.36383e+22
6.74514  1.35215e+22
6.86244  1.34027e+22
6.97975  1.32849e+22
7.09705  1.31719e+22
7.21436  1.3067e+22
7.33166  1.29743e+22
7.44897  1.28975e+22
7.56627  1.28397e+22
7.68358  1.28023e+22
7.80088  1.27861e+22
7.91819  1.27898e+22
8.03549  1.28108e+22
8.1528  1.28449e+22
8.2701  1.28855e+22
8.38741  1.29266e+22
8.50471  1.29607e+22
8.62202  1.29805e+22
8.73932  1.29798e+22
8.85662  1.29539e+22
8.97393  1.28995e+22
9.09123  1.28155e+22
9.20854  1.2704e+22
9.32584  1.25691e+22
9.44315  1.24156e+22
9.56045  1.22514e+22
9.67776  1.20841e+22
9.79506  1.19214e+22
9.91237  1.17706e+22
10.0297  1.16374e+22
10.147  1.15257e+22
10.2643  1.14372e+22
10.3816  1.1371e+22
10.4989  1.13252e+22
10.6162  1.12945e+22
10.7335  1.12735e+22
10.8508  1.12546e+22
10.9681  1.12307e+22
11.0854  1.11953e+22
11.2027  1.11417e+22
11.32  1.10655e+22
11.4373  1.09648e+22
11.5546  1.08392e+22
11.6719  1.0691e+22
11.7893  1.05251e+22
11.9066  1.03463e+22
12.0239  1.0162e+22
12.1412  9.97951e+21
12.2585  9.80535e+21
12.3758  9.64517e+21
12.4931  9.50338e+21
12.6104  9.38207e+21
12.7277  9.28215e+21
12.845  9.20241e+21
12.9623  9.13916e+21
13.0796  9.08913e+21
13.1969  9.04676e+21
13.3142  9.00692e+21
13.4315  8.96443e+21
13.5488  8.91539e+21
13.6661  8.85667e+21
13.7834  8.78651e+21
13.9007  8.70554e+21
14.018  8.61561e+21
14.1354  8.51883e+21
14.2527  8.41946e+21
14.37  8.32129e+21
14.4873  8.22713e+21
14.6046  8.13996e+21
14.7219  8.06047e+21
14.8392  7.9885e+21
14.9565  7.9221e+21
15.0738  7.85799e+21
15.1911  7.79319e+21
15.3084  7.72308e+21
15.4257  7.64442e+21
15.543  7.55417e+21
15.6603  7.45041e+21
15.7776  7.3327e+21
15.8949  7.20123e+21
16.0122  7.05774e+21
16.1295  6.90504e+21
16.2468  6.74682e+21
16.3641  6.58696e+21
16.4815  6.42985e+21
16.5988  6.27902e+21
16.7161  6.13761e+21
16.8334  6.00866e+21
16.9507  5.89286e+21
17.068  5.79061e+21
17.1853  5.70075e+21
17.3026  5.621e+21
17.4199  5.54873e+21
17.5372  5.48061e+21
17.6545  5.41287e+21
17.7718  5.34346e+21
17.8891  5.26947e+21
18.0064  5.19027e+21
18.1237  5.10543e+21
18.241  5.01641e+21
18.3583  4.92542e+21
18.4756  4.83542e+21
18.5929  4.75005e+21
18.7102  4.67285e+21
18.8275  4.60668e+21
18.9449  4.55427e+21
19.0622  4.5167e+21
19.1795  4.49351e+21
19.2968  4.4834e+21
19.4141  4.48316e+21
19.5314  4.48894e+21
19.6487  4.49552e+21
19.766  4.49795e+21
19.8833  4.49182e+21
20.0006  4.47307e+21
20.1179  4.43943e+21
20.2352  4.39014e+21
20.3525  4.32611e+21
20.4698  4.24965e+21
20.5871  4.16419e+21
20.7044  4.07395e+21
20.8217  3.98313e+21
20.939  3.8958e+21
21.0563  3.81503e+21
21.1736  3.74288e+21
21.291  3.68006e+21
21.4083  3.62561e+21
21.5256  3.5783e+21
21.6429  3.53497e+21
21.7602  3.4926e+21
21.8775  3.44742e+21
21.9948  3.39633e+21
22.1121  3.3365e+21
22.2294  3.26626e+21
22.3467  3.1846e+21
22.464  3.09266e+21
22.5813  2.9919e+21
22.6986  2.88559e+21
22.8159  2.77719e+21
22.9332  2.67107e+21
23.0505  2.57135e+21
23.1678  2.48185e+21
23.2851  2.40557e+21
23.4024  2.34448e+21
23.5198  2.29953e+21
23.6371  2.27062e+21
23.7544  2.25649e+21
23.8717  2.25497e+21
23.989  2.26342e+21
24.1063  2.27875e+21
24.2236  2.29754e+21
24.3409  2.31628e+21
24.4582  2.33199e+21
24.5755  2.34174e+21
24.6928  2.3434e+21
24.8101  2.33533e+21
24.9274  2.31702e+21
25.0447  2.2884e+21
25.162  2.25038e+21
25.2793  2.20423e+21
25.3966  2.15167e+21
25.5139  2.09437e+21
25.6312  2.03416e+21
25.7485  1.97254e+21
25.8658  1.91073e+21
25.9832  1.84975e+21
26.1005  1.79002e+21
26.2178  1.73228e+21
26.3351  1.67686e+21
26.4524  1.6242e+21
26.5697  1.57469e+21
26.687  1.52893e+21
26.8043  1.48731e+21
26.9216  1.45038e+21
27.0389  1.41868e+21
27.1562  1.39265e+21
27.2735  1.37234e+21
27.3908  1.35802e+21
27.5081  1.3493e+21
27.6254  1.34556e+21
27.7427  1.34591e+21
27.86  1.34905e+21
27.9773  1.35347e+21
28.0946  1.35757e+21
28.212  1.36004e+21
28.3293  1.35979e+21
28.4466  1.35616e+21
28.5639  1.34917e+21
28.6812  1.33905e+21
28.7985  1.32668e+21
28.9158  1.31275e+21
29.0331  1.29795e+21
29.1504  1.28282e+21
29.2677  1.26729e+21
29.385  1.25101e+21
29.5023  1.23327e+21
29.6196  1.21315e+21
29.7369  1.18983e+21
29.8542  1.16261e+21
29.9715  1.13111e+21
30.0888  1.09532e+21
30.2061  1.05555e+21
30.3234  1.01259e+21
30.4407  9.67379e+20
30.558  9.21212e+20
30.6754  8.75353e+20
30.7927  8.31093e+20
30.91  7.89705e+20
31.0273  7.52104e+20
31.1446  7.18807e+20
31.2619  6.9009e+20
31.3792  6.65567e+20
31.4965  6.44554e+20
31.6138  6.26155e+20
31.7311  6.09239e+20
31.8484  5.92877e+20
31.9657  5.76325e+20
32.083  5.59409e+20
32.2003  5.42301e+20
32.3176  5.2555e+20
32.4349  5.10293e+20
32.5522  4.97547e+20
32.6695  4.88645e+20
32.7868  4.84724e+20
32.9042  4.86651e+20
33.0215  4.95071e+20
33.1388  5.10182e+20
33.2561  5.31754e+20
33.3734  5.58983e+20
33.4907  5.90572e+20
33.608  6.24821e+20
33.7253  6.59279e+20
33.8426  6.91541e+20
33.9599  7.19309e+20
34.0772  7.40354e+20
34.1945  7.53407e+20
34.3118  7.57741e+20
34.4291  7.53967e+20
34.5464  7.43216e+20
34.6637  7.27352e+20
34.781  7.08697e+20
34.8983  6.89335e+20
35.0156  6.71181e+20
35.1329  6.55537e+20
35.2503  6.42804e+20
35.3676  6.32997e+20
35.4849  6.25428e+20
35.6022  6.19506e+20
35.7195  6.14136e+20
35.8368  6.08564e+20
35.9541  6.02093e+20
36.0714  5.94199e+20
36.1887  5.84951e+20
36.306  5.74467e+20
36.4233  5.63081e+20
36.5406  5.51817e+20
36.6579  5.41752e+20
36.7752  5.34159e+20
36.8925  5.302e+20
37.0098  5.31059e+20
37.1271  5.37082e+20
37.2444  5.48137e+20
37.3617  5.63037e+20
37.479  5.80041e+20
37.5964  5.96658e+20
37.7137  6.10036e+20
37.831  6.17876e+20
37.9483  6.18001e+20
38.0656  6.09843e+20
38.1829  5.93477e+20
38.3002  5.70336e+20
38.4175  5.42717e+20
38.5348  5.13435e+20
38.6521  4.85493e+20
38.7694  4.61405e+20
38.8867  4.43199e+20
39.004  4.32086e+20
39.1213  4.28331e+20
39.2386  4.31438e+20
39.3559  4.40176e+20
39.4732  4.53004e+20
39.5905  4.68052e+20
39.7078  4.83563e+20
39.8251  4.97836e+20
39.9425  5.09323e+20
40.0598  5.17218e+20
40.1771  5.20523e+20
40.2944  5.19344e+20
40.4117  5.13928e+20
40.529  5.05037e+20
40.6463  4.93571e+20
40.7636  4.80848e+20
40.8809  4.681e+20
40.9982  4.56259e+20
41.1155  4.46187e+20
41.2328  4.38339e+20
41.3501  4.32844e+20
41.4674  4.29346e+20
41.5847  4.27375e+20
41.702  4.26289e+20
41.8193  4.25079e+20
41.9366  4.23232e+20
42.0539  4.19908e+20
42.1712  4.14678e+20
42.2885  4.07447e+20
42.4059  3.98318e+20
42.5232  3.87909e+20
42.6405  3.76912e+20
42.7578  3.66614e+20
42.8751  3.58097e+20
42.9924  3.52416e+20
43.1097  3.50557e+20
43.227  3.52707e+20
43.3443  3.5859e+20
43.4616  3.67266e+20
43.5789  3.77241e+20
43.6962  3.86739e+20
43.8135  3.93827e+20
43.9308  3.96964e+20
44.0481  3.95005e+20
44.1654  3.87632e+20
44.2827  3.75186e+20
44.4  3.58767e+20
44.5173  3.3998e+20
44.6347  3.20879e+20
44.752  3.03498e+20
44.8693  2.89586e+20
44.9866  2.80532e+20
45.1039  2.77328e+20
45.2212  2.80195e+20
45.3385  2.88769e+20
45.4558  3.02289e+20
45.5731  3.19227e+20
45.6904  3.37853e+20
45.8077  3.56186e+20
45.925  3.72155e+20
46.0423  3.83904e+20
46.1596  3.89879e+20
46.2769  3.89189e+20
46.3942  3.81605e+20
46.5115  3.67612e+20
46.6288  3.484e+20
46.7461  3.25575e+20
46.8634  3.00993e+20
46.9808  2.765e+20
47.0981  2.53798e+20
47.2154  2.33995e+20
47.3327  2.17821e+20
47.45  2.05332e+20
47.5673  1.96461e+20
47.6846  1.9068e+20
47.8019  1.87567e+20
47.9192  1.86636e+20
48.0365  1.87606e+20
48.1538  1.90387e+20
48.2711  1.94959e+20
48.3884  2.01429e+20
48.5057  2.09843e+20
48.623  2.20201e+20
48.7403  2.32364e+20
48.8576  2.46029e+20
48.9749  2.60698e+20
49.0922  2.75659e+20
49.2095  2.90162e+20
49.3269  3.03348e+20
49.4442  3.14331e+20
49.5615  3.2227e+20
49.6788  3.26496e+20
49.7961  3.26591e+20
49.9134  3.2236e+20
50.0307  3.13909e+20
50.148  3.01675e+20
50.2653  2.86183e+20
50.3826  2.68245e+20
50.4999  2.48721e+20
50.6172  2.28495e+20
50.7345  2.0835e+20
50.8518  1.89184e+20
