#S 1 spectral density
#N 2
#UFWHM 28.3878
#L  abscissas [um]  spectral density
-58.5938  1.86761e+20
-58.4764  1.92493e+20
-58.3591  1.97555e+20
-58.2418  2.01722e+20
-58.1245  2.04985e+20
-58.0072  2.07405e+20
-57.8899  2.09118e+20
-57.7726  2.1025e+20
-57.6553  2.10772e+20
-57.538  2.10477e+20
-57.4207  2.09001e+20
-57.3034  2.05909e+20
-57.1861  2.0086e+20
-57.0688  1.93657e+20
-56.9515  1.84642e+20
-56.8342  1.74495e+20
-56.7169  1.64346e+20
-56.5996  1.55454e+20
-56.4823  1.49092e+20
-56.365  1.462e+20
-56.2477  1.47186e+20
-56.1303  1.52015e+20
-56.013  1.59949e+20
-55.8957  1.69969e+20
-55.7784  1.80848e+20
-55.6611  1.91392e+20
-55.5438  2.00669e+20
-55.4265  2.08005e+20
-55.3092  2.13189e+20
-55.1919  2.16225e+20
-55.0746  2.17484e+20
-54.9573  2.17388e+20
-54.84  2.16419e+20
-54.7227  2.15277e+20
-54.6054  2.14411e+20
-54.4881  2.14353e+20
-54.3708  2.15414e+20
-54.2535  2.17829e+20
-54.1362  2.21467e+20
-54.0189  2.25998e+20
-53.9016  2.30787e+20
-53.7842  2.35008e+20
-53.6669  2.37797e+20
-53.5496  2.3849e+20
-53.4323  2.36629e+20
-53.315  2.32186e+20
-53.1977  2.25479e+20
-53.0804  2.17164e+20
-52.9631  2.08032e+20
-52.8458  1.98833e+20
-52.7285  1.90094e+20
-52.6112  1.82116e+20
-52.4939  1.74821e+20
-52.3766  1.68035e+20
-52.2593  1.61398e+20
-52.142  1.54708e+20
-52.0247  1.47972e+20
-51.9074  1.41433e+20
-51.7901  1.35607e+20
-51.6728  1.31141e+20
-51.5555  1.28698e+20
-51.4381  1.28987e+20
-51.3208  1.32325e+20
-51.2035  1.38975e+20
-51.0862  1.48803e+20
-50.9689  1.61611e+20
-50.8516  1.76925e+20
-50.7343  1.94132e+20
-50.617  2.12504e+20
-50.4997  2.31365e+20
-50.3824  2.49757e+20
-50.2651  2.6691e+20
-50.1478  2.81866e+20
-50.0305  2.93925e+20
-49.9132  3.0241e+20
-49.7959  3.06982e+20
-49.6786  3.07513e+20
-49.5613  3.04165e+20
-49.444  2.97458e+20
-49.3267  2.87992e+20
-49.2094  2.76619e+20
-49.092  2.64161e+20
-48.9747  2.51515e+20
-48.8574  2.39392e+20
-48.7401  2.28344e+20
-48.6228  2.18842e+20
-48.5055  2.11108e+20
-48.3882  2.05136e+20
-48.2709  2.00839e+20
-48.1536  1.9807e+20
-48.0363  1.96596e+20
-47.919  1.96324e+20
-47.8017  1.97259e+20
-47.6844  1.9969e+20
-47.5671  2.04011e+20
-47.4498  2.10733e+20
-47.3325  2.20496e+20
-47.2152  2.33547e+20
-47.0979  2.50044e+20
-46.9806  2.69555e+20
-46.8633  2.91181e+20
-46.7459  3.13617e+20
-46.6286  3.35177e+20
-46.5113  3.54204e+20
-46.394  3.69085e+20
-46.2767  3.78582e+20
-46.1594  3.81986e+20
-46.0421  3.79166e+20
-45.9248  3.70665e+20
-45.8075  3.5747e+20
-45.6902  3.41037e+20
-45.5729  3.23016e+20
-45.4556  3.05154e+20
-45.3383  2.89214e+20
-45.221  2.76678e+20
-45.1037  2.688e+20
-44.9864  2.66279e+20
-44.8691  2.69433e+20
-44.7518  2.77984e+20
-44.6345  2.91109e+20
-44.5172  3.07317e+20
-44.3998  3.24892e+20
-44.2825  3.41892e+20
-44.1652  3.56595e+20
-44.0479  3.67449e+20
-43.9306  3.73668e+20
-43.8133  3.75122e+20
-43.696  3.72238e+20
-43.5787  3.66263e+20
-43.4614  3.58759e+20
-43.3441  3.51312e+20
-43.2268  3.4547e+20
-43.1095  3.4232e+20
-42.9922  3.42571e+20
-42.8749  3.46308e+20
-42.7576  3.53125e+20
-42.6403  3.62324e+20
-42.523  3.72934e+20
-42.4057  3.83937e+20
-42.2884  3.9452e+20
-42.171  4.03968e+20
-42.0537  4.11664e+20
-41.9364  4.17485e+20
-41.8191  4.21423e+20
-41.7018  4.23923e+20
-41.5845  4.25446e+20
-41.4672  4.26727e+20
-41.3499  4.28574e+20
-41.2326  4.31778e+20
-41.1153  4.36969e+20
-40.998  4.4448e+20
-40.8807  4.54214e+20
-40.7634  4.65903e+20
-40.6461  4.78671e+20
-40.5288  4.91622e+20
-40.4115  5.03339e+20
-40.2942  5.12652e+20
-40.1769  5.18466e+20
-40.0596  5.20126e+20
-39.9423  5.17225e+20
-39.825  5.0985e+20
-39.7076  4.98742e+20
-39.5903  4.84908e+20
-39.473  4.70046e+20
-39.3557  4.5597e+20
-39.2384  4.44726e+20
-39.1211  4.3827e+20
-39.0038  4.38251e+20
-38.8865  4.4566e+20
-38.7692  4.60683e+20
-38.6519  4.82499e+20
-38.5346  5.09384e+20
-38.4173  5.38732e+20
-38.3  5.67523e+20
-38.1827  5.92585e+20
-38.0654  6.11325e+20
-37.9481  6.21718e+20
-37.8308  6.23152e+20
-37.7135  6.15919e+20
-37.5962  6.01746e+20
-37.4789  5.82981e+20
-37.3615  5.6231e+20
-37.2442  5.4256e+20
-37.1269  5.25853e+20
-37.0096  5.1403e+20
-36.8923  5.07737e+20
-36.775  5.07114e+20
-36.6577  5.11655e+20
-36.5404  5.20483e+20
-36.4231  5.32482e+20
-36.3058  5.46324e+20
-36.1885  5.61069e+20
-36.0712  5.75695e+20
-35.9539  5.89425e+20
-35.8366  6.01828e+20
-35.7193  6.12631e+20
-35.602  6.22233e+20
-35.4847  6.30998e+20
-35.3674  6.3974e+20
-35.2501  6.49453e+20
-35.1328  6.60919e+20
-35.0154  6.74732e+20
-34.8981  6.90585e+20
-34.7808  7.07748e+20
-34.6635  7.24988e+20
-34.5462  7.40224e+20
-34.4289  7.5144e+20
-34.3116  7.56851e+20
-34.1943  7.54975e+20
-34.077  7.4498e+20
-33.9597  7.27257e+20
-33.8424  7.02666e+20
-33.7251  6.73053e+20
-33.6078  6.40337e+20
-33.4905  6.06844e+20
-33.3732  5.74768e+20
-33.2559  5.45897e+20
-33.1386  5.21861e+20
-33.0213  5.03614e+20
-32.904  4.91756e+20
-32.7867  4.86425e+20
-32.6693  4.87408e+20
-32.552  4.9406e+20
-32.4347  5.05362e+20
-32.3174  5.2012e+20
-32.2001  5.37194e+20
-32.0828  5.5544e+20
-31.9655  5.74021e+20
-31.8482  5.92462e+20
-31.7309  6.10854e+20
-31.6136  6.29689e+20
-31.4963  6.49766e+20
-31.379  6.7202e+20
-31.2617  6.97553e+20
-31.1444  7.26962e+20
-31.0271  7.60673e+20
-30.9098  7.98839e+20
-30.7925  8.40769e+20
-30.6752  8.85654e+20
-30.5579  9.3245e+20
-30.4406  9.79742e+20
-30.3232  1.02616e+21
-30.2059  1.07025e+21
-30.0886  1.1108e+21
-29.9713  1.147e+21
-29.854  1.17826e+21
-29.7367  1.20436e+21
-29.6194  1.22575e+21
-29.5021  1.24312e+21
-29.3848  1.25744e+21
-29.2675  1.26986e+21
-29.1502  1.28131e+21
-29.0329  1.29251e+21
-28.9156  1.30377e+21
-28.7983  1.31483e+21
-28.681  1.32516e+21
-28.5637  1.33406e+21
-28.4464  1.34077e+21
-28.3291  1.3448e+21
-28.2118  1.34598e+21
-28.0944  1.34472e+21
-27.9771  1.34187e+21
-27.8598  1.33866e+21
-27.7425  1.33647e+21
-27.6252  1.33685e+21
-27.5079  1.34112e+21
-27.3906  1.35045e+21
-27.2733  1.3657e+21
-27.156  1.38722e+21
-27.0387  1.41536e+21
-26.9214  1.44984e+21
-26.8041  1.49025e+21
-26.6868  1.53592e+21
-26.5695  1.58597e+21
-26.4522  1.63945e+21
-26.3349  1.6954e+21
-26.2176  1.75284e+21
-26.1003  1.81074e+21
-25.983  1.8685e+21
-25.8657  1.92547e+21
-25.7483  1.98091e+21
-25.631  2.03434e+21
-25.5137  2.08488e+21
-25.3964  2.13193e+21
-25.2791  2.17436e+21
-25.1618  2.21129e+21
-25.0445  2.24169e+21
-24.9272  2.26492e+21
-24.8099  2.28047e+21
-24.6926  2.28856e+21
-24.5753  2.2896e+21
-24.458  2.28487e+21
-24.3407  2.27583e+21
-24.2234  2.26476e+21
-24.1061  2.25384e+21
-23.9888  2.24575e+21
-23.8715  2.24328e+21
-23.7542  2.24914e+21
-23.6369  2.26572e+21
-23.5196  2.29508e+21
-23.4023  2.33884e+21
-23.2849  2.39749e+21
-23.1676  2.47085e+21
-23.0503  2.55743e+21
-22.933  2.65505e+21
-22.8157  2.76043e+21
-22.6984  2.86997e+21
-22.5811  2.97964e+21
-22.4638  3.08589e+21
-22.3465  3.18547e+21
-22.2292  3.27616e+21
-22.1119  3.35671e+21
-21.9946  3.42718e+21
-21.8773  3.48865e+21
-21.76  3.54302e+21
-21.6427  3.59314e+21
-21.5254  3.64195e+21
-21.4081  3.69254e+21
-21.2908  3.74741e+21
-21.1735  3.80861e+21
-21.0561  3.87698e+21
-20.9388  3.95247e+21
-20.8215  4.0333e+21
-20.7042  4.11714e+21
-20.5869  4.20034e+21
-20.4696  4.2792e+21
-20.3523  4.34966e+21
-20.235  4.40866e+21
-20.1177  4.45345e+21
-20.0004  4.48344e+21
-19.8831  4.49917e+21
-19.7658  4.50289e+21
-19.6485  4.49803e+21
-19.5312  4.48955e+21
-19.4139  4.48187e+21
-19.2966  4.48031e+21
-19.1793  4.48903e+21
-19.062  4.51154e+21
-18.9447  4.54941e+21
-18.8274  4.60308e+21
-18.71  4.67191e+21
-18.5927  4.7534e+21
-18.4754  4.84428e+21
-18.3581  4.94084e+21
-18.2408  5.03906e+21
-18.1235  5.13548e+21
-18.0062  5.22715e+21
-17.8889  5.312e+21
-17.7716  5.38982e+21
-17.6543  5.46076e+21
-17.537  5.52701e+21
-17.4197  5.5911e+21
-17.3024  5.65679e+21
-17.1851  5.72785e+21
-17.0678  5.80746e+21
-16.9505  5.89903e+21
-16.8332  6.00468e+21
-16.7159  6.12519e+21
-16.5986  6.26001e+21
-16.4813  6.40754e+21
-16.364  6.56488e+21
-16.2466  6.72858e+21
-16.1293  6.89405e+21
-16.012  7.05665e+21
-15.8947  7.21206e+21
-15.7774  7.35665e+21
-15.6601  7.48737e+21
-15.5428  7.60272e+21
-15.4255  7.7019e+21
-15.3082  7.78633e+21
-15.1909  7.85884e+21
-15.0736  7.92217e+21
-14.9563  7.98076e+21
-14.839  8.03886e+21
-14.7217  8.1e+21
-14.6044  8.16714e+21
-14.4871  8.24179e+21
-14.3698  8.32404e+21
-14.2525  8.41248e+21
-14.1352  8.50408e+21
-14.0178  8.59647e+21
-13.9005  8.68556e+21
-13.7832  8.76846e+21
-13.6659  8.84329e+21
-13.5486  8.90907e+21
-13.4313  8.96668e+21
-13.314  9.01811e+21
-13.1967  9.06673e+21
-13.0794  9.11768e+21
-12.9621  9.17461e+21
-12.8448  9.24345e+21
-12.7275  9.32773e+21
-12.6102  9.43099e+21
-12.4929  9.55489e+21
-12.3756  9.6991e+21
-12.2583  9.86219e+21
-12.141  1.00406e+22
-12.0237  1.02288e+22
-11.9064  1.04202e+22
-11.7891  1.06077e+22
-11.6718  1.07839e+22
-11.5544  1.09428e+22
-11.4371  1.108e+22
-11.3198  1.11915e+22
-11.2025  1.12772e+22
-11.0852  1.13387e+22
-10.9679  1.13797e+22
-10.8506  1.14057e+22
-10.7333  1.14235e+22
-10.616  1.14402e+22
-10.4987  1.14642e+22
-10.3814  1.15005e+22
-10.2641  1.15552e+22
-10.1468  1.16313e+22
-10.0295  1.17306e+22
-9.91217  1.18514e+22
-9.79487  1.1991e+22
-9.67756  1.21442e+22
-9.56026  1.23042e+22
-9.44295  1.24633e+22
-9.32565  1.26146e+22
-9.20834  1.27502e+22
-9.09104  1.28646e+22
-8.97373  1.2954e+22
-8.85643  1.30162e+22
-8.73913  1.30522e+22
-8.62182  1.30643e+22
-8.50452  1.30577e+22
-8.38721  1.30388e+22
-8.26991  1.30134e+22
-8.1526  1.29896e+22
-8.03529  1.29726e+22
-7.91799  1.29682e+22
-7.80069  1.29797e+22
-7.68338  1.30089e+22
-7.56608  1.30566e+22
-7.44877  1.31212e+22
-7.33146  1.31999e+22
-7.21416  1.32894e+22
-7.09685  1.33857e+22
-6.97955  1.34843e+22
-6.86224  1.35819e+22
-6.74494  1.36767e+22
-6.62763  1.37653e+22
-6.51033  1.38478e+22
-6.39302  1.39242e+22
-6.27572  1.39957e+22
-6.15842  1.4064e+22
-6.04111  1.41314e+22
-5.92381  1.41997e+22
-5.8065  1.42721e+22
-5.68919  1.43495e+22
-5.57189  1.44334e+22
-5.45458  1.4524e+22
-5.33728  1.46214e+22
-5.21997  1.47234e+22
-5.10267  1.4828e+22
-4.98536  1.49319e+22
-4.86806  1.50313e+22
-4.75075  1.51222e+22
-4.63345  1.52013e+22
-4.51614  1.52652e+22
-4.39884  1.53118e+22
-4.28154  1.53413e+22
-4.16423  1.53534e+22
-4.04692  1.53505e+22
-3.92962  1.53357e+22
-3.81231  1.53136e+22
-3.69501  1.52881e+22
-3.5777  1.52636e+22
-3.4604  1.52445e+22
-3.34309  1.52336e+22
-3.22579  1.52332e+22
-3.10849  1.52441e+22
-2.99118  1.52661e+22
-2.87387  1.52987e+22
-2.75657  1.53401e+22
-2.63926  1.53883e+22
-2.52196  1.54414e+22
-2.40465  1.54974e+22
-2.28735  1.55548e+22
-2.17005  1.56126e+22
-2.05274  1.56714e+22
-1.93544  1.57302e+22
-1.81813  1.57903e+22
-1.70083  1.58525e+22
-1.58352  1.59175e+22
-1.46622  1.59863e+22
-1.34891  1.60594e+22
-1.2316  1.61367e+22
-1.1143  1.62179e+22
-0.996995  1.63016e+22
-0.87969  1.63868e+22
-0.762385  1.64703e+22
-0.64508  1.65504e+22
-0.527775  1.66235e+22
-0.41047  1.66867e+22
-0.293165  1.67369e+22
-0.17586  1.67717e+22
-0.058555  1.67894e+22
0.05875  1.67888e+22
0.176055  1.67699e+22
0.29336  1.67337e+22
0.410665  1.66826e+22
0.52797  1.66185e+22
0.645275  1.65443e+22
0.76258  1.64634e+22
0.879885  1.63788e+22
0.99719  1.6293e+22
1.1145  1.62084e+22
1.2318  1.61264e+22
1.3491  1.60487e+22
1.46641  1.5975e+22
1.58371  1.59056e+22
1.70102  1.58399e+22
1.81832  1.57772e+22
1.93563  1.57162e+22
2.05294  1.56566e+22
2.17024  1.55976e+22
2.28754  1.55388e+22
2.40485  1.54807e+22
2.52216  1.54238e+22
2.63946  1.53702e+22
2.75677  1.5321e+22
2.87407  1.52788e+22
2.99137  1.52451e+22
3.10868  1.52218e+22
3.22599  1.52096e+22
3.34329  1.5209e+22
3.4606  1.52186e+22
3.5779  1.52363e+22
3.69521  1.52588e+22
3.81251  1.52827e+22
3.92982  1.53029e+22
4.04712  1.53156e+22
4.16443  1.53168e+22
4.28173  1.53029e+22
4.39903  1.52721e+22
4.51634  1.52237e+22
4.63364  1.51589e+22
4.75095  1.50788e+22
4.86825  1.49871e+22
4.98556  1.48872e+22
5.10286  1.47831e+22
5.22017  1.46785e+22
5.33748  1.45765e+22
5.45478  1.44796e+22
5.57209  1.43891e+22
5.68939  1.43052e+22
5.8067  1.4228e+22
5.924  1.41557e+22
6.0413  1.40871e+22
6.15861  1.40195e+22
6.27591  1.39507e+22
6.39322  1.38788e+22
6.51052  1.3802e+22
6.62783  1.37185e+22
6.74514  1.36292e+22
6.86244  1.35342e+22
6.97975  1.34356e+22
7.09705  1.33364e+22
7.21436  1.32399e+22
7.33166  1.315e+22
7.44897  1.30709e+22
7.56627  1.30063e+22
7.68358  1.29582e+22
7.80088  1.29285e+22
7.91819  1.29165e+22
8.03549  1.29205e+22
8.1528  1.2937e+22
8.2701  1.296e+22
8.38741  1.29839e+22
8.50471  1.30018e+22
8.62202  1.30067e+22
8.73932  1.29927e+22
8.85662  1.29554e+22
8.97393  1.28917e+22
9.09123  1.28008e+22
9.20854  1.26851e+22
9.32584  1.25488e+22
9.44315  1.23968e+22
9.56045  1.2237e+22
9.67776  1.20769e+22
9.79506  1.19238e+22
9.91237  1.17846e+22
10.0297  1.16642e+22
10.147  1.15658e+22
10.2643  1.14903e+22
10.3816  1.1436e+22
10.4989  1.14001e+22
10.6162  1.13768e+22
10.7335  1.13599e+22
10.8508  1.13418e+22
10.9681  1.13154e+22
11.0854  1.12741e+22
11.2027  1.12122e+22
11.32  1.11256e+22
11.4373  1.10133e+22
11.5546  1.08757e+22
11.6719  1.07161e+22
11.7893  1.05397e+22
11.9066  1.03522e+22
12.0239  1.01608e+22
12.1412  9.97319e+21
12.2585  9.79549e+21
12.3758  9.63291e+21
12.4931  9.48929e+21
12.6104  9.3661e+21
12.7277  9.26361e+21
12.845  9.18015e+21
12.9623  9.1117e+21
13.0796  9.05493e+21
13.1969  9.00445e+21
13.3142  8.95558e+21
13.4315  8.90377e+21
13.5488  8.8459e+21
13.6661  8.77968e+21
13.7834  8.70412e+21
13.9007  8.62052e+21
14.018  8.5311e+21
14.1354  8.43814e+21
14.2527  8.34569e+21
14.37  8.25705e+21
14.4873  8.17425e+21
14.6046  8.09927e+21
14.7219  8.0317e+21
14.8392  7.97032e+21
14.9565  7.91212e+21
15.0738  7.85309e+21
15.1911  7.78973e+21
15.3084  7.71725e+21
15.4257  7.63264e+21
15.543  7.53339e+21
15.6603  7.41844e+21
15.7776  7.28836e+21
15.8949  7.1445e+21
16.0122  6.98977e+21
16.1295  6.82798e+21
16.2468  6.66362e+21
16.3641  6.50112e+21
16.4815  6.34503e+21
16.5988  6.19874e+21
16.7161  6.06492e+21
16.8334  5.94586e+21
16.9507  5.84133e+21
17.068  5.75072e+21
17.1853  5.67189e+21
17.3026  5.60165e+21
17.4199  5.5367e+21
17.5372  5.47324e+21
17.6545  5.40734e+21
17.7718  5.33704e+21
17.8891  5.25977e+21
18.0064  5.17544e+21
18.1237  5.08428e+21
18.241  4.98843e+21
18.3583  4.89075e+21
18.4756  4.79478e+21
18.5929  4.70455e+21
18.7102  4.62382e+21
18.8275  4.55552e+21
18.9449  4.50227e+21
19.0622  4.46492e+21
19.1795  4.44273e+21
19.2968  4.4341e+21
19.4141  4.43558e+21
19.5314  4.44315e+21
19.6487  4.45153e+21
19.766  4.45583e+21
19.8833  4.4518e+21
20.0006  4.43558e+21
20.1179  4.40515e+21
20.2352  4.35994e+21
20.3525  4.30098e+21
20.4698  4.23058e+21
20.5871  4.15199e+21
20.7044  4.06913e+21
20.8217  3.98579e+21
20.939  3.90548e+21
21.0563  3.8307e+21
21.1736  3.76294e+21
21.291  3.70246e+21
21.4083  3.64795e+21
21.5256  3.59803e+21
21.6429  3.54962e+21
21.7602  3.49999e+21
21.8775  3.44588e+21
21.9948  3.3848e+21
22.1121  3.31468e+21
22.2294  3.2346e+21
22.3467  3.14428e+21
22.464  3.04544e+21
22.5813  2.93994e+21
22.6986  2.83123e+21
22.8159  2.7227e+21
22.9332  2.6184e+21
23.0505  2.52198e+21
23.1678  2.43657e+21
23.2851  2.36443e+21
23.4024  2.30683e+21
23.5198  2.26406e+21
23.6371  2.23555e+21
23.7544  2.21976e+21
23.8717  2.21451e+21
23.989  2.2174e+21
24.1063  2.22582e+21
24.2236  2.23701e+21
24.3409  2.24824e+21
24.4582  2.25733e+21
24.5755  2.26211e+21
24.6928  2.26106e+21
24.8101  2.25294e+21
24.9274  2.23738e+21
25.0447  2.2142e+21
25.162  2.18391e+21
25.2793  2.1472e+21
25.3966  2.10504e+21
25.5139  2.0583e+21
25.6312  2.00802e+21
25.7485  1.955e+21
25.8658  1.89995e+21
25.9832  1.84358e+21
26.1005  1.78626e+21
26.2178  1.72884e+21
26.3351  1.67203e+21
26.4524  1.6167e+21
26.5697  1.56379e+21
26.687  1.5144e+21
26.8043  1.46936e+21
26.9216  1.42955e+21
27.0389  1.39568e+21
27.1562  1.36821e+21
27.2735  1.34711e+21
27.3908  1.33243e+21
27.5081  1.32357e+21
27.6254  1.31966e+21
27.7427  1.31966e+21
27.86  1.32216e+21
27.9773  1.32569e+21
28.0946  1.32873e+21
28.212  1.33021e+21
28.3293  1.32925e+21
28.4466  1.32545e+21
28.5639  1.31905e+21
28.6812  1.31039e+21
28.7985  1.30039e+21
28.9158  1.28968e+21
29.0331  1.27877e+21
29.1504  1.26792e+21
29.2677  1.25678e+21
29.385  1.24468e+21
29.5023  1.23062e+21
29.6196  1.21347e+21
29.7369  1.19228e+21
29.8542  1.16634e+21
29.9715  1.13532e+21
30.0888  1.09936e+21
30.2061  1.05898e+21
30.3234  1.01517e+21
30.4407  9.69099e+20
30.558  9.22188e+20
30.6754  8.7581e+20
30.7927  8.31274e+20
30.91  7.89805e+20
31.0273  7.52202e+20
31.1446  7.18845e+20
31.2619  6.89877e+20
31.3792  6.64773e+20
31.4965  6.42793e+20
31.6138  6.23048e+20
31.7311  6.04478e+20
31.8484  5.86316e+20
31.9657  5.68036e+20
32.083  5.49707e+20
32.2003  5.31744e+20
32.3176  5.14909e+20
32.4349  5.00476e+20
32.5522  4.89496e+20
32.6695  4.83235e+20
32.7868  4.8265e+20
32.9042  4.88326e+20
33.0215  5.00554e+20
33.1388  5.19161e+20
33.2561  5.43537e+20
33.3734  5.72592e+20
33.4907  6.04821e+20
33.608  6.38453e+20
33.7253  6.71124e+20
33.8426  7.00639e+20
33.9599  7.25047e+20
34.0772  7.42526e+20
34.1945  7.52246e+20
34.3118  7.53885e+20
34.4291  7.48368e+20
34.5464  7.3701e+20
34.6637  7.21677e+20
34.781  7.04535e+20
34.8983  6.8735e+20
35.0156  6.71601e+20
35.1329  6.581e+20
35.2503  6.4675e+20
35.3676  6.37171e+20
35.4849  6.28378e+20
35.6022  6.19706e+20
35.7195  6.10174e+20
35.8368  5.99344e+20
35.9541  5.8699e+20
36.0714  5.73193e+20
36.1887  5.58639e+20
36.306  5.44023e+20
36.4233  5.30154e+20
36.5406  5.18343e+20
36.6579  5.09735e+20
36.7752  5.05446e+20
36.8925  5.06281e+20
37.0098  5.12909e+20
37.1271  5.25048e+20
37.2444  5.41951e+20
37.3617  5.61853e+20
37.479  5.82575e+20
37.5964  6.01381e+20
37.7137  6.15369e+20
37.831  6.22409e+20
37.9483  6.2066e+20
38.0656  6.10027e+20
38.1829  5.91108e+20
38.3002  5.65852e+20
38.4175  5.36992e+20
38.5348  5.07631e+20
38.6521  4.80887e+20
38.7694  4.59203e+20
38.8867  4.44344e+20
39.004  4.37129e+20
39.1213  4.37332e+20
39.2386  4.43942e+20
39.3559  4.55255e+20
39.4732  4.69368e+20
39.5905  4.84188e+20
39.7078  4.97915e+20
39.8251  5.08986e+20
39.9425  5.16172e+20
40.0598  5.19094e+20
40.1771  5.17267e+20
40.2944  5.11304e+20
40.4117  5.01913e+20
40.529  4.90205e+20
40.6463  4.77281e+20
40.7636  4.64475e+20
40.8809  4.52872e+20
40.9982  4.43107e+20
41.1155  4.35648e+20
41.2328  4.30498e+20
41.3501  4.27344e+20
41.4674  4.25472e+20
41.5847  4.2417e+20
41.702  4.22708e+20
41.8193  4.20161e+20
41.9366  4.16228e+20
42.0539  4.10412e+20
42.1712  4.02666e+20
42.2885  3.93285e+20
42.4059  3.82704e+20
42.5232  3.71736e+20
42.6405  3.61136e+20
42.7578  3.52057e+20
42.8751  3.4533e+20
42.9924  3.41627e+20
43.1097  3.41494e+20
43.227  3.44685e+20
43.3443  3.50582e+20
43.4616  3.58033e+20
43.5789  3.65505e+20
43.6962  3.71382e+20
43.8135  3.74074e+20
43.9308  3.72513e+20
44.0481  3.66122e+20
44.1654  3.55141e+20
44.2827  3.40401e+20
44.4  3.23353e+20
44.5173  3.05759e+20
44.6347  2.8961e+20
44.752  2.76672e+20
44.8693  2.68258e+20
44.9866  2.6519e+20
45.1039  2.67848e+20
45.2212  2.75882e+20
45.3385  2.88446e+20
45.4558  3.04455e+20
45.5731  3.22252e+20
45.6904  3.40179e+20
45.8077  3.56496e+20
45.925  3.69514e+20
46.0423  3.77844e+20
46.1596  3.80424e+20
46.2769  3.76803e+20
46.3942  3.67116e+20
46.5115  3.52085e+20
46.6288  3.32991e+20
46.7461  3.114e+20
46.8634  2.89014e+20
46.9808  2.67434e+20
47.0981  2.48059e+20
47.2154  2.3169e+20
47.3327  2.18775e+20
47.45  2.09121e+20
47.5673  2.02488e+20
47.6846  1.98232e+20
47.8019  1.95889e+20
47.9192  1.94989e+20
48.0365  1.95299e+20
48.1538  1.96827e+20
48.2711  1.99653e+20
48.3884  2.03997e+20
48.5057  2.10023e+20
48.623  2.17834e+20
48.7403  2.27388e+20
48.8576  2.38467e+20
48.9749  2.50657e+20
49.0922  2.63302e+20
49.2095  2.75705e+20
49.3269  2.87038e+20
49.4442  2.96434e+20
49.5615  3.03068e+20
49.6788  3.06274e+20
49.7961  3.05629e+20
49.9134  3.00942e+20
50.0307  2.92325e+20
50.148  2.80221e+20
50.2653  2.65171e+20
50.3826  2.48e+20
50.4999  2.29585e+20
50.6172  2.10807e+20
50.7345  1.92435e+20
50.8518  1.75323e+20
