#S 1 spectral density
#N 2
#UFWHM 26.5109
#L  abscissas [um]  spectral density
-58.5938  8.83569e+19
-58.4764  9.43961e+19
-58.3591  1.01417e+20
-58.2418  1.08885e+20
-58.1245  1.16347e+20
-58.0072  1.23498e+20
-57.8899  1.30164e+20
-57.7726  1.36293e+20
-57.6553  1.41874e+20
-57.538  1.46905e+20
-57.4207  1.51275e+20
-57.3034  1.54807e+20
-57.1861  1.57353e+20
-57.0688  1.58814e+20
-56.9515  1.59291e+20
-56.8342  1.59e+20
-56.7169  1.58377e+20
-56.5996  1.57748e+20
-56.4823  1.57463e+20
-56.365  1.57563e+20
-56.2477  1.57861e+20
-56.1303  1.57878e+20
-56.013  1.57127e+20
-55.8957  1.55017e+20
-55.7784  1.5127e+20
-55.6611  1.45775e+20
-55.5438  1.38849e+20
-55.4265  1.31086e+20
-55.3092  1.23189e+20
-55.1919  1.15809e+20
-55.0746  1.09553e+20
-54.9573  1.04708e+20
-54.84  1.01419e+20
-54.7227  9.95921e+19
-54.6054  9.91546e+19
-54.4881  1.00067e+20
-54.3708  1.02388e+20
-54.2535  1.06179e+20
-54.1362  1.11489e+20
-54.0189  1.18398e+20
-53.9016  1.26689e+20
-53.7842  1.359e+20
-53.6669  1.45487e+20
-53.5496  1.54732e+20
-53.4323  1.62971e+20
-53.315  1.69651e+20
-53.1977  1.74424e+20
-53.0804  1.7725e+20
-52.9631  1.78242e+20
-52.8458  1.77601e+20
-52.7285  1.75633e+20
-52.6112  1.72545e+20
-52.4939  1.68518e+20
-52.3766  1.63629e+20
-52.2593  1.57998e+20
-52.142  1.51836e+20
-52.0247  1.45375e+20
-51.9074  1.39055e+20
-51.7901  1.3327e+20
-51.6728  1.28523e+20
-51.5555  1.25184e+20
-51.4381  1.23626e+20
-51.3208  1.23996e+20
-51.2035  1.26386e+20
-51.0862  1.30813e+20
-50.9689  1.37309e+20
-50.8516  1.45902e+20
-50.7343  1.56551e+20
-50.617  1.69224e+20
-50.4997  1.83803e+20
-50.3824  1.99927e+20
-50.2651  2.17176e+20
-50.1478  2.34749e+20
-50.0305  2.51925e+20
-49.9132  2.67726e+20
-49.7959  2.81377e+20
-49.6786  2.92146e+20
-49.5613  2.99607e+20
-49.444  3.03582e+20
-49.3267  3.0413e+20
-49.2094  3.01599e+20
-49.092  2.96464e+20
-48.9747  2.89371e+20
-48.8574  2.80972e+20
-48.7401  2.71941e+20
-48.6228  2.62865e+20
-48.5055  2.54271e+20
-48.3882  2.46487e+20
-48.2709  2.398e+20
-48.1536  2.34405e+20
-48.0363  2.30381e+20
-47.919  2.27855e+20
-47.8017  2.26949e+20
-47.6844  2.2785e+20
-47.5671  2.30694e+20
-47.4498  2.35538e+20
-47.3325  2.42407e+20
-47.2152  2.50879e+20
-47.0979  2.60412e+20
-46.9806  2.69933e+20
-46.8633  2.78194e+20
-46.7459  2.83927e+20
-46.6286  2.85796e+20
-46.5113  2.82971e+20
-46.394  2.74943e+20
-46.2767  2.61963e+20
-46.1594  2.44853e+20
-46.0421  2.24932e+20
-45.9248  2.03903e+20
-45.8075  1.83548e+20
-45.6902  1.65519e+20
-45.5729  1.51165e+20
-45.4556  1.41401e+20
-45.3383  1.36716e+20
-45.221  1.37164e+20
-45.1037  1.42517e+20
-44.9864  1.52166e+20
-44.8691  1.65421e+20
-44.7518  1.81367e+20
-44.6345  1.98988e+20
-44.5172  2.17057e+20
-44.3998  2.34299e+20
-44.2825  2.49509e+20
-44.1652  2.61585e+20
-44.0479  2.69585e+20
-43.9306  2.73122e+20
-43.8133  2.722e+20
-43.696  2.67231e+20
-43.5787  2.59213e+20
-43.4614  2.49384e+20
-43.3441  2.39067e+20
-43.2268  2.2958e+20
-43.1095  2.21939e+20
-42.9922  2.1694e+20
-42.8749  2.14952e+20
-42.7576  2.15941e+20
-42.6403  2.19712e+20
-42.523  2.2571e+20
-42.4057  2.33384e+20
-42.2884  2.42119e+20
-42.171  2.51299e+20
-42.0537  2.60489e+20
-41.9364  2.69311e+20
-41.8191  2.77703e+20
-41.7018  2.85756e+20
-41.5845  2.93749e+20
-41.4672  3.02203e+20
-41.3499  3.11618e+20
-41.2326  3.22561e+20
-41.1153  3.35387e+20
-40.998  3.50169e+20
-40.8807  3.66547e+20
-40.7634  3.83887e+20
-40.6461  4.01146e+20
-40.5288  4.17167e+20
-40.4115  4.30658e+20
-40.2942  4.40432e+20
-40.1769  4.45849e+20
-40.0596  4.46649e+20
-39.9423  4.43062e+20
-39.825  4.35745e+20
-39.7076  4.25891e+20
-39.5903  4.14907e+20
-39.473  4.04462e+20
-39.3557  3.95895e+20
-39.2384  3.90584e+20
-39.1211  3.89483e+20
-39.0038  3.92879e+20
-38.8865  4.00577e+20
-38.7692  4.11733e+20
-38.6519  4.24718e+20
-38.5346  4.3762e+20
-38.4173  4.48109e+20
-38.3  4.54151e+20
-38.1827  4.539e+20
-38.0654  4.46404e+20
-37.9481  4.31614e+20
-37.8308  4.10427e+20
-37.7135  3.84683e+20
-37.5962  3.56907e+20
-37.4789  3.29784e+20
-37.3615  3.05721e+20
-37.2442  2.86704e+20
-37.1269  2.73832e+20
-37.0096  2.67508e+20
-36.8923  2.67128e+20
-36.775  2.71723e+20
-36.6577  2.79933e+20
-36.5404  2.90569e+20
-36.4231  3.0251e+20
-36.3058  3.1487e+20
-36.1885  3.27318e+20
-36.0712  3.39727e+20
-35.9539  3.52198e+20
-35.8366  3.65096e+20
-35.7193  3.78778e+20
-35.602  3.93941e+20
-35.4847  4.11287e+20
-35.3674  4.31595e+20
-35.2501  4.55622e+20
-35.1328  4.83782e+20
-35.0154  5.1618e+20
-34.8981  5.51974e+20
-34.7808  5.89918e+20
-34.6635  6.2798e+20
-34.5462  6.63458e+20
-34.4289  6.93788e+20
-34.3116  7.16373e+20
-34.1943  7.29276e+20
-34.077  7.31263e+20
-33.9597  7.22318e+20
-33.8424  7.03339e+20
-33.7251  6.76247e+20
-33.6078  6.43391e+20
-33.4905  6.07655e+20
-33.3732  5.71938e+20
-33.2559  5.38913e+20
-33.1386  5.10864e+20
-33.0213  4.89454e+20
-32.904  4.75819e+20
-32.7867  4.70309e+20
-32.6693  4.72586e+20
-32.552  4.81724e+20
-32.4347  4.95999e+20
-32.3174  5.13627e+20
-32.2001  5.32473e+20
-32.0828  5.50588e+20
-31.9655  5.66432e+20
-31.8482  5.79017e+20
-31.7309  5.87992e+20
-31.6136  5.93752e+20
-31.4963  5.97131e+20
-31.379  5.99344e+20
-31.2617  6.01781e+20
-31.1444  6.05526e+20
-31.0271  6.11419e+20
-30.9098  6.20214e+20
-30.7925  6.31671e+20
-30.6752  6.45606e+20
-30.5579  6.61578e+20
-30.4406  6.78943e+20
-30.3232  6.97072e+20
-30.2059  7.15193e+20
-30.0886  7.32839e+20
-29.9713  7.49837e+20
-29.854  7.65823e+20
-29.7367  7.80811e+20
-29.6194  7.95083e+20
-29.5021  8.08923e+20
-29.3848  8.22649e+20
-29.2675  8.36651e+20
-29.1502  8.511e+20
-29.0329  8.66025e+20
-28.9156  8.81085e+20
-28.7983  8.9576e+20
-28.681  9.09421e+20
-28.5637  9.21444e+20
-28.4464  9.3136e+20
-28.3291  9.38986e+20
-28.2118  9.4439e+20
-28.0944  9.4812e+20
-27.9771  9.50968e+20
-27.8598  9.53806e+20
-27.7425  9.5749e+20
-27.6252  9.62644e+20
-27.5079  9.698e+20
-27.3906  9.79084e+20
-27.2733  9.906e+20
-27.156  1.00393e+21
-27.0387  1.01895e+21
-26.9214  1.03534e+21
-26.8041  1.05298e+21
-26.6868  1.07175e+21
-26.5695  1.09176e+21
-26.4522  1.1132e+21
-26.3349  1.13664e+21
-26.2176  1.16258e+21
-26.1003  1.19163e+21
-25.983  1.22455e+21
-25.8657  1.26185e+21
-25.7483  1.30377e+21
-25.631  1.35024e+21
-25.5137  1.40055e+21
-25.3964  1.4536e+21
-25.2791  1.50749e+21
-25.1618  1.56024e+21
-25.0445  1.6093e+21
-24.9272  1.65252e+21
-24.8099  1.688e+21
-24.6926  1.71465e+21
-24.5753  1.73197e+21
-24.458  1.74071e+21
-24.3407  1.7423e+21
-24.2234  1.73941e+21
-24.1061  1.73505e+21
-23.9888  1.7329e+21
-23.8715  1.73674e+21
-23.7542  1.75026e+21
-23.6369  1.77635e+21
-23.5196  1.81729e+21
-23.4023  1.87402e+21
-23.2849  1.94618e+21
-23.1676  2.03201e+21
-23.0503  2.12836e+21
-22.933  2.23128e+21
-22.8157  2.33605e+21
-22.6984  2.43799e+21
-22.5811  2.53272e+21
-22.4638  2.61704e+21
-22.3465  2.68905e+21
-22.2292  2.74819e+21
-22.1119  2.79545e+21
-21.9946  2.83333e+21
-21.8773  2.86496e+21
-21.76  2.89414e+21
-21.6427  2.92454e+21
-21.5254  2.95946e+21
-21.4081  3.00157e+21
-21.2908  3.05227e+21
-21.1735  3.1122e+21
-21.0561  3.18069e+21
-20.9388  3.25626e+21
-20.8215  3.3363e+21
-20.7042  3.4183e+21
-20.5869  3.49894e+21
-20.4696  3.57559e+21
-20.3523  3.64584e+21
-20.235  3.70815e+21
-20.1177  3.76145e+21
-20.0004  3.80622e+21
-19.8831  3.84335e+21
-19.7658  3.87476e+21
-19.6485  3.90227e+21
-19.5312  3.92858e+21
-19.4139  3.95543e+21
-19.2966  3.9847e+21
-19.1793  4.01747e+21
-19.062  4.05445e+21
-18.9447  4.09535e+21
-18.8274  4.13966e+21
-18.71  4.1871e+21
-18.5927  4.23686e+21
-18.4754  4.28854e+21
-18.3581  4.34214e+21
-18.2408  4.3983e+21
-18.1235  4.45801e+21
-18.0062  4.52279e+21
-17.8889  4.59428e+21
-17.7716  4.6748e+21
-17.6543  4.76599e+21
-17.537  4.8694e+21
-17.4197  4.98587e+21
-17.3024  5.11578e+21
-17.1851  5.2581e+21
-17.0678  5.41082e+21
-16.9505  5.5713e+21
-16.8332  5.73622e+21
-16.7159  5.90147e+21
-16.5986  6.06283e+21
-16.4813  6.21693e+21
-16.364  6.36072e+21
-16.2466  6.49271e+21
-16.1293  6.6119e+21
-16.012  6.71915e+21
-15.8947  6.81626e+21
-15.7774  6.90618e+21
-15.6601  6.99242e+21
-15.5428  7.07883e+21
-15.4255  7.16869e+21
-15.3082  7.26524e+21
-15.1909  7.37125e+21
-15.0736  7.48727e+21
-14.9563  7.61364e+21
-14.839  7.74919e+21
-14.7217  7.89109e+21
-14.6044  8.03582e+21
-14.4871  8.17949e+21
-14.3698  8.31745e+21
-14.2525  8.44525e+21
-14.1352  8.55876e+21
-14.0178  8.65625e+21
-13.9005  8.73581e+21
-13.7832  8.79785e+21
-13.6659  8.84424e+21
-13.5486  8.87794e+21
-13.4313  8.90279e+21
-13.314  8.92276e+21
-13.1967  8.94194e+21
-13.0794  8.96443e+21
-12.9621  8.99183e+21
-12.8448  9.02668e+21
-12.7275  9.06858e+21
-12.6102  9.11751e+21
-12.4929  9.17201e+21
-12.3756  9.23004e+21
-12.2583  9.28996e+21
-12.141  9.35002e+21
-12.0237  9.40855e+21
-11.9064  9.46459e+21
-11.7891  9.51821e+21
-11.6718  9.57022e+21
-11.5544  9.6228e+21
-11.4371  9.67916e+21
-11.3198  9.74233e+21
-11.2025  9.81674e+21
-11.0852  9.90673e+21
-10.9679  1.0016e+22
-10.8506  1.01476e+22
-10.7333  1.03034e+22
-10.616  1.04837e+22
-10.4987  1.06886e+22
-10.3814  1.09146e+22
-10.2641  1.11589e+22
-10.1468  1.1417e+22
-10.0295  1.16842e+22
-9.91217  1.19546e+22
-9.79487  1.22236e+22
-9.67756  1.24859e+22
-9.56026  1.27368e+22
-9.44295  1.29722e+22
-9.32565  1.31897e+22
-9.20834  1.33862e+22
-9.09104  1.35602e+22
-8.97373  1.37115e+22
-8.85643  1.38396e+22
-8.73913  1.39454e+22
-8.62182  1.403e+22
-8.50452  1.40956e+22
-8.38721  1.41445e+22
-8.26991  1.41782e+22
-8.1526  1.42009e+22
-8.03529  1.42145e+22
-7.91799  1.42229e+22
-7.80069  1.42296e+22
-7.68338  1.42383e+22
-7.56608  1.42533e+22
-7.44877  1.42786e+22
-7.33146  1.43176e+22
-7.21416  1.43731e+22
-7.09685  1.44472e+22
-6.97955  1.45407e+22
-6.86224  1.46532e+22
-6.74494  1.47839e+22
-6.62763  1.4928e+22
-6.51033  1.50822e+22
-6.39302  1.5241e+22
-6.27572  1.53983e+22
-6.15842  1.55483e+22
-6.04111  1.56853e+22
-5.92381  1.58045e+22
-5.8065  1.59041e+22
-5.68919  1.59815e+22
-5.57189  1.60383e+22
-5.45458  1.60769e+22
-5.33728  1.61026e+22
-5.21997  1.61205e+22
-5.10267  1.61377e+22
-4.98536  1.61607e+22
-4.86806  1.61955e+22
-4.75075  1.62468e+22
-4.63345  1.63182e+22
-4.51614  1.64104e+22
-4.39884  1.65223e+22
-4.28154  1.66516e+22
-4.16423  1.67932e+22
-4.04692  1.69409e+22
-3.92962  1.70883e+22
-3.81231  1.72285e+22
-3.69501  1.73555e+22
-3.5777  1.74638e+22
-3.4604  1.75502e+22
-3.34309  1.76132e+22
-3.22579  1.76532e+22
-3.10849  1.76731e+22
-2.99118  1.76768e+22
-2.87387  1.76703e+22
-2.75657  1.76594e+22
-2.63926  1.76501e+22
-2.52196  1.7647e+22
-2.40465  1.76535e+22
-2.28735  1.76702e+22
-2.17005  1.76957e+22
-2.05274  1.77273e+22
-1.93544  1.77578e+22
-1.81813  1.77811e+22
-1.70083  1.77888e+22
-1.58352  1.77736e+22
-1.46622  1.77286e+22
-1.34891  1.76498e+22
-1.2316  1.75347e+22
-1.1143  1.73855e+22
-0.996995  1.72057e+22
-0.87969  1.70036e+22
-0.762385  1.67881e+22
-0.64508  1.65719e+22
-0.527775  1.6367e+22
-0.41047  1.61851e+22
-0.293165  1.6038e+22
-0.17586  1.59344e+22
-0.058555  1.58812e+22
0.05875  1.58814e+22
0.176055  1.59349e+22
0.29336  1.60384e+22
0.410665  1.61857e+22
0.52797  1.63672e+22
0.645275  1.65718e+22
0.76258  1.67874e+22
0.879885  1.70018e+22
0.99719  1.72028e+22
1.1145  1.73811e+22
1.2318  1.75289e+22
1.3491  1.76422e+22
1.46641  1.77193e+22
1.58371  1.77627e+22
1.70102  1.77762e+22
1.81832  1.77668e+22
1.93563  1.77417e+22
2.05294  1.77094e+22
2.17024  1.76769e+22
2.28754  1.76499e+22
2.40485  1.76319e+22
2.52216  1.76242e+22
2.63946  1.76261e+22
2.75677  1.7634e+22
2.87407  1.76435e+22
2.99137  1.76485e+22
3.10868  1.76431e+22
3.22599  1.76216e+22
3.34329  1.75803e+22
3.4606  1.75161e+22
3.5779  1.74284e+22
3.69521  1.73185e+22
3.81251  1.71909e+22
3.92982  1.70493e+22
4.04712  1.6901e+22
4.16443  1.67527e+22
4.28173  1.66106e+22
4.39903  1.64807e+22
4.51634  1.6368e+22
4.63364  1.62755e+22
4.75095  1.62034e+22
4.86825  1.6151e+22
4.98556  1.61153e+22
5.10286  1.60911e+22
5.22017  1.60726e+22
5.33748  1.60532e+22
5.45478  1.60262e+22
5.57209  1.59861e+22
5.68939  1.59275e+22
5.8067  1.58484e+22
5.924  1.57478e+22
6.0413  1.5627e+22
6.15861  1.54889e+22
6.27591  1.53381e+22
6.39322  1.51803e+22
6.51052  1.50215e+22
6.62783  1.48668e+22
6.74514  1.47224e+22
6.86244  1.45926e+22
6.97975  1.448e+22
7.09705  1.43868e+22
7.21436  1.4313e+22
7.33166  1.42577e+22
7.44897  1.42189e+22
7.56627  1.41937e+22
7.68358  1.41783e+22
7.80088  1.4169e+22
7.91819  1.41614e+22
8.03549  1.41523e+22
8.1528  1.41378e+22
8.2701  1.4114e+22
8.38741  1.40784e+22
8.50471  1.40283e+22
8.62202  1.39611e+22
8.73932  1.38744e+22
8.85662  1.37671e+22
8.97393  1.36376e+22
9.09123  1.34849e+22
9.20854  1.33096e+22
9.32584  1.31124e+22
9.44315  1.28941e+22
9.56045  1.26579e+22
9.67776  1.24069e+22
9.79506  1.21446e+22
9.91237  1.1876e+22
10.0297  1.1606e+22
10.147  1.13397e+22
10.2643  1.10826e+22
10.3816  1.08391e+22
10.4989  1.06141e+22
10.6162  1.04107e+22
10.7335  1.02312e+22
10.8508  1.00762e+22
10.9681  9.94529e+21
11.0854  9.83691e+21
11.2027  9.74754e+21
11.32  9.67327e+21
11.4373  9.61013e+21
11.5546  9.55404e+21
11.6719  9.5013e+21
11.7893  9.44935e+21
11.9066  9.39586e+21
12.0239  9.33965e+21
12.1412  9.28156e+21
12.2585  9.22191e+21
12.3758  9.16227e+21
12.4931  9.10456e+21
12.6104  9.05051e+21
12.7277  9.00215e+21
12.845  8.96091e+21
12.9623  8.92643e+21
13.0796  8.89926e+21
13.1969  8.87717e+21
13.3142  8.8578e+21
13.4315  8.83752e+21
13.5488  8.81244e+21
13.6661  8.77829e+21
13.7834  8.73108e+21
13.9007  8.66816e+21
14.018  8.58801e+21
14.1354  8.48973e+21
14.2527  8.37516e+21
14.37  8.247e+21
14.4873  8.10857e+21
14.6046  7.9646e+21
14.7219  7.81952e+21
14.8392  7.67776e+21
14.9565  7.54264e+21
15.0738  7.41635e+21
15.1911  7.30079e+21
15.3084  7.19531e+21
15.4257  7.09898e+21
15.543  7.00946e+21
15.6603  6.92362e+21
15.7776  6.83803e+21
15.8949  6.74855e+21
16.0122  6.65192e+21
16.1295  6.54516e+21
16.2468  6.42644e+21
16.3641  6.29521e+21
16.4815  6.15222e+21
16.5988  5.99906e+21
16.7161  5.83839e+21
16.8334  5.6746e+21
16.9507  5.51093e+21
17.068  5.35168e+21
17.1853  5.20025e+21
17.3026  5.05935e+21
17.4199  4.93084e+21
17.5372  4.81566e+21
17.6545  4.71325e+21
17.7718  4.62338e+21
17.8891  4.54385e+21
18.0064  4.47324e+21
18.1237  4.40925e+21
18.241  4.35019e+21
18.3583  4.29466e+21
18.4756  4.24145e+21
18.5929  4.19018e+21
18.7102  4.14084e+21
18.8275  4.09369e+21
18.9449  4.04945e+21
19.0622  4.0089e+21
19.1795  3.97214e+21
19.2968  3.93939e+21
19.4141  3.91014e+21
19.5314  3.88338e+21
19.6487  3.85717e+21
19.766  3.82951e+21
19.8833  3.79828e+21
20.0006  3.761e+21
20.1179  3.71627e+21
20.2352  3.66303e+21
20.3525  3.60102e+21
20.4698  3.5312e+21
20.5871  3.45504e+21
20.7044  3.37499e+21
20.8217  3.29379e+21
20.939  3.2145e+21
21.0563  3.1399e+21
21.1736  3.07232e+21
21.291  3.01338e+21
21.4083  2.96335e+21
21.5256  2.92216e+21
21.6429  2.88785e+21
21.7602  2.85808e+21
21.8775  2.82934e+21
21.9948  2.79805e+21
22.1121  2.76044e+21
22.2294  2.71327e+21
22.3467  2.65433e+21
22.464  2.58271e+21
22.5813  2.49867e+21
22.6986  2.40457e+21
22.8159  2.30337e+21
22.9332  2.19949e+21
23.0505  2.09755e+21
23.1678  2.00236e+21
23.2851  1.91781e+21
23.4024  1.84685e+21
23.5198  1.79136e+21
23.6371  1.75159e+21
23.7544  1.72648e+21
23.8717  1.71381e+21
23.989  1.71059e+21
24.1063  1.71322e+21
24.2236  1.71794e+21
24.3409  1.72105e+21
24.4582  1.71954e+21
24.5755  1.71087e+21
24.6928  1.69361e+21
24.8101  1.66707e+21
24.9274  1.63169e+21
25.0447  1.58868e+21
25.162  1.53998e+21
25.2793  1.48781e+21
25.3966  1.43444e+21
25.5139  1.38208e+21
25.6312  1.3324e+21
25.7485  1.28663e+21
25.8658  1.24541e+21
25.9832  1.20879e+21
26.1005  1.17652e+21
26.2178  1.14806e+21
26.3351  1.12269e+21
26.4524  1.09972e+21
26.5697  1.07866e+21
26.687  1.05908e+21
26.8043  1.04066e+21
26.9216  1.02339e+21
27.0389  1.00729e+21
27.1562  9.92606e+20
27.2735  9.79488e+20
27.3908  9.68355e+20
27.5081  9.59326e+20
27.6254  9.5243e+20
27.7427  9.47579e+20
27.86  9.44189e+20
27.9773  9.41634e+20
28.0946  9.39023e+20
28.212  9.35517e+20
28.3293  9.30359e+20
28.4466  9.22988e+20
28.5639  9.13347e+20
28.6812  9.0152e+20
28.7985  8.88144e+20
28.9158  8.73777e+20
29.0331  8.58974e+20
29.1504  8.44334e+20
29.2677  8.30147e+20
29.385  8.16399e+20
29.5023  8.02906e+20
29.6196  7.89266e+20
29.7369  7.75184e+20
29.8542  7.60358e+20
29.9715  7.44556e+20
30.0888  7.27783e+20
30.2061  7.10194e+20
30.3234  6.92269e+20
30.4407  6.74455e+20
30.558  6.57334e+20
30.6754  6.4163e+20
30.7927  6.27894e+20
30.91  6.16751e+20
31.0273  6.08365e+20
31.1446  6.02602e+20
31.2619  5.99103e+20
31.3792  5.96817e+20
31.4965  5.94685e+20
31.6138  5.91414e+20
31.7311  5.85618e+20
31.8484  5.76578e+20
31.9657  5.63971e+20
32.083  5.48113e+20
32.2003  5.29999e+20
32.3176  5.11215e+20
32.4349  4.9377e+20
32.5522  4.79657e+20
32.6695  4.70783e+20
32.7868  4.68796e+20
32.9042  4.74617e+20
33.0215  4.88522e+20
33.1388  5.1024e+20
33.2561  5.38478e+20
33.3734  5.71693e+20
33.4907  6.0747e+20
33.608  6.43196e+20
33.7253  6.75947e+20
33.8426  7.02813e+20
33.9599  7.21525e+20
34.0772  7.30103e+20
34.1945  7.27726e+20
34.3118  7.14501e+20
34.4291  6.91665e+20
34.5464  6.61197e+20
34.6637  6.25497e+20
34.781  5.87483e+20
34.8983  5.49535e+20
35.0156  5.13804e+20
35.1329  4.81673e+20
35.2503  4.53624e+20
35.3676  4.29848e+20
35.4849  4.09585e+20
35.6022  3.92359e+20
35.7195  3.77307e+20
35.8368  3.63742e+20
35.9541  3.5093e+20
36.0714  3.38484e+20
36.1887  3.2615e+20
36.306  3.13742e+20
36.4233  3.01333e+20
36.5406  2.8947e+20
36.6579  2.78963e+20
36.7752  2.70823e+20
36.8925  2.66348e+20
37.0098  2.66949e+20
37.1271  2.7349e+20
37.2444  2.86575e+20
37.3617  3.05791e+20
37.479  3.29981e+20
37.5964  3.57209e+20
37.7137  3.84936e+20
37.831  4.10584e+20
37.9483  4.3154e+20
38.0656  4.46135e+20
38.1829  4.53392e+20
38.3002  4.53344e+20
38.4175  4.47168e+20
38.5348  4.36486e+20
38.6521  4.2354e+20
38.7694  4.10522e+20
38.8867  3.99396e+20
39.004  3.91766e+20
39.1213  3.88389e+20
39.2386  3.89592e+20
39.3559  3.94906e+20
39.4732  4.03448e+20
39.5905  4.13926e+20
39.7078  4.24815e+20
39.8251  4.34514e+20
39.9425  4.41632e+20
40.0598  4.45172e+20
40.1771  4.44213e+20
40.2944  4.38604e+20
40.4117  4.28667e+20
40.529  4.15172e+20
40.6463  3.99087e+20
40.7636  3.81837e+20
40.8809  3.64507e+20
40.9982  3.48119e+20
41.1155  3.33418e+20
41.2328  3.20651e+20
41.3501  3.09762e+20
41.4674  3.00353e+20
41.5847  2.91926e+20
41.702  2.83942e+20
41.8193  2.75879e+20
41.9366  2.67535e+20
42.0539  2.5876e+20
42.1712  2.49638e+20
42.2885  2.40493e+20
42.4059  2.31886e+20
42.5232  2.24285e+20
42.6405  2.18411e+20
42.7578  2.1474e+20
42.8751  2.1385e+20
42.9924  2.15928e+20
43.1097  2.21008e+20
43.227  2.28693e+20
43.3443  2.38203e+20
43.4616  2.48501e+20
43.5789  2.58269e+20
43.6962  2.66192e+20
43.8135  2.7099e+20
43.9308  2.71777e+20
44.0481  2.68109e+20
44.1654  2.59986e+20
44.2827  2.47887e+20
44.4  2.32635e+20
44.5173  2.15365e+20
44.6347  1.97356e+20
44.752  1.79858e+20
44.8693  1.6404e+20
44.9866  1.50897e+20
45.1039  1.41393e+20
45.2212  1.3623e+20
45.3385  1.35921e+20
45.4558  1.40773e+20
45.5731  1.50646e+20
45.6904  1.65086e+20
45.8077  1.83172e+20
45.925  2.03531e+20
46.0423  2.24485e+20
46.1596  2.44295e+20
46.2769  2.61245e+20
46.3942  2.73998e+20
46.5115  2.81808e+20
46.6288  2.84468e+20
46.7461  2.82455e+20
46.8634  2.76633e+20
46.9808  2.68281e+20
47.0981  2.58789e+20
47.2154  2.49307e+20
47.3327  2.40934e+20
47.45  2.34122e+20
47.5673  2.29353e+20
47.6846  2.26586e+20
47.8019  2.25784e+20
47.9192  2.26762e+20
48.0365  2.29327e+20
48.1538  2.33431e+20
48.2711  2.38887e+20
48.3884  2.45634e+20
48.5057  2.53462e+20
48.623  2.62097e+20
48.7403  2.71189e+20
48.8576  2.80196e+20
48.9749  2.88587e+20
49.0922  2.95659e+20
49.2095  3.0068e+20
49.3269  3.03129e+20
49.4442  3.02454e+20
49.5615  2.98396e+20
49.6788  2.90821e+20
49.7961  2.79946e+20
49.9134  2.66203e+20
50.0307  2.50351e+20
50.148  2.33203e+20
50.2653  2.15598e+20
50.3826  1.98405e+20
50.4999  1.82316e+20
50.6172  1.67828e+20
50.7345  1.55212e+20
50.8518  1.44642e+20
