#S 1 spectral density
#N 2
#UFWHM 29.0916
#L  abscissas [um]  spectral density
-58.5938  2.04519e+20
-58.4764  2.06016e+20
-58.3591  2.06104e+20
-58.2418  2.04711e+20
-58.1245  2.01991e+20
-58.0072  1.98231e+20
-57.8899  1.93834e+20
-57.7726  1.89209e+20
-57.6553  1.84663e+20
-57.538  1.803e+20
-57.4207  1.76055e+20
-57.3034  1.7174e+20
-57.1861  1.67173e+20
-57.0688  1.62201e+20
-56.9515  1.57069e+20
-56.8342  1.52232e+20
-56.7169  1.48429e+20
-56.5996  1.46458e+20
-56.4823  1.47036e+20
-56.365  1.5053e+20
-56.2477  1.56865e+20
-56.1303  1.65585e+20
-56.013  1.7571e+20
-55.8957  1.86174e+20
-55.7784  1.95894e+20
-55.6611  2.04001e+20
-55.5438  2.1003e+20
-55.4265  2.13848e+20
-55.3092  2.15796e+20
-55.1919  2.16367e+20
-55.0746  2.16291e+20
-54.9573  2.16172e+20
-54.84  2.16478e+20
-54.7227  2.17724e+20
-54.6054  2.20008e+20
-54.4881  2.23411e+20
-54.3708  2.27763e+20
-54.2535  2.32862e+20
-54.1362  2.38225e+20
-54.0189  2.43299e+20
-53.9016  2.47411e+20
-53.7842  2.49829e+20
-53.6669  2.49913e+20
-53.5496  2.47311e+20
-53.4323  2.41891e+20
-53.315  2.3396e+20
-53.1977  2.24086e+20
-53.0804  2.13092e+20
-52.9631  2.01844e+20
-52.8458  1.9109e+20
-52.7285  1.8129e+20
-52.6112  1.72651e+20
-52.4939  1.65014e+20
-52.3766  1.58158e+20
-52.2593  1.5174e+20
-52.142  1.45604e+20
-52.0247  1.39873e+20
-51.9074  1.34881e+20
-51.7901  1.3126e+20
-51.6728  1.29704e+20
-51.5555  1.30865e+20
-51.4381  1.35368e+20
-51.3208  1.43365e+20
-51.2035  1.54915e+20
-51.0862  1.6963e+20
-50.9689  1.87074e+20
-50.8516  2.06548e+20
-50.7343  2.27275e+20
-50.617  2.48436e+20
-50.4997  2.6934e+20
-50.3824  2.89051e+20
-50.2651  3.06897e+20
-50.1478  3.22013e+20
-50.0305  3.33814e+20
-49.9132  3.41707e+20
-49.7959  3.45399e+20
-49.6786  3.44782e+20
-49.5613  3.39986e+20
-49.444  3.31488e+20
-49.3267  3.1983e+20
-49.2094  3.05792e+20
-49.092  2.90172e+20
-48.9747  2.73853e+20
-48.8574  2.57593e+20
-48.7401  2.42016e+20
-48.6228  2.27729e+20
-48.5055  2.15136e+20
-48.3882  2.04444e+20
-48.2709  1.95817e+20
-48.1536  1.89369e+20
-48.0363  1.85126e+20
-47.919  1.83231e+20
-47.8017  1.83878e+20
-47.6844  1.87461e+20
-47.5671  1.9438e+20
-47.4498  2.05031e+20
-47.3325  2.19801e+20
-47.2152  2.38565e+20
-47.0979  2.60988e+20
-46.9806  2.8609e+20
-46.8633  3.12421e+20
-46.7459  3.38141e+20
-46.6286  3.61182e+20
-46.5113  3.79684e+20
-46.394  3.92056e+20
-46.2767  3.9736e+20
-46.1594  3.95411e+20
-46.0421  3.86816e+20
-45.9248  3.72978e+20
-45.8075  3.55781e+20
-45.6902  3.37467e+20
-45.5729  3.20288e+20
-45.4556  3.06288e+20
-45.3383  2.97175e+20
-45.221  2.94013e+20
-45.1037  2.97275e+20
-44.9864  3.06653e+20
-44.8691  3.21303e+20
-44.7518  3.39814e+20
-44.6345  3.6036e+20
-44.5172  3.80728e+20
-44.3998  3.98876e+20
-44.2825  4.12915e+20
-44.1652  4.21639e+20
-44.0479  4.24296e+20
-43.9306  4.21159e+20
-43.8133  4.13221e+20
-43.696  4.01979e+20
-43.5787  3.89535e+20
-43.4614  3.77991e+20
-43.3441  3.69097e+20
-43.2268  3.64181e+20
-43.1095  3.63799e+20
-42.9922  3.6787e+20
-42.8749  3.75601e+20
-42.7576  3.85739e+20
-42.6403  3.96876e+20
-42.523  4.07631e+20
-42.4057  4.16853e+20
-42.2884  4.23955e+20
-42.171  4.28742e+20
-42.0537  4.31275e+20
-41.9364  4.32258e+20
-41.8191  4.32408e+20
-41.7018  4.32801e+20
-41.5845  4.34217e+20
-41.4672  4.37425e+20
-41.3499  4.42953e+20
-41.2326  4.50998e+20
-41.1153  4.61399e+20
-40.998  4.736e+20
-40.8807  4.86611e+20
-40.7634  4.99459e+20
-40.6461  5.10771e+20
-40.5288  5.19522e+20
-40.4115  5.24472e+20
-40.2942  5.25009e+20
-40.1769  5.2084e+20
-40.0596  5.12297e+20
-39.9423  5.00002e+20
-39.825  4.85012e+20
-39.7076  4.68816e+20
-39.5903  4.52883e+20
-39.473  4.38986e+20
-39.3557  4.2868e+20
-39.2384  4.23381e+20
-39.1211  4.24164e+20
-39.0038  4.31682e+20
-38.8865  4.45875e+20
-38.7692  4.66027e+20
-38.6519  4.90686e+20
-38.5346  5.17806e+20
-38.4173  5.44889e+20
-38.3  5.69359e+20
-38.1827  5.88864e+20
-38.0654  6.01828e+20
-37.9481  6.07354e+20
-37.8308  6.05895e+20
-37.7135  5.98603e+20
-37.5962  5.87739e+20
-37.4789  5.75758e+20
-37.3615  5.65037e+20
-37.2442  5.57666e+20
-37.1269  5.54683e+20
-37.0096  5.56645e+20
-36.8923  5.62861e+20
-36.775  5.72245e+20
-36.6577  5.83305e+20
-36.5404  5.94579e+20
-36.4231  6.04786e+20
-36.3058  6.12915e+20
-36.1885  6.18765e+20
-36.0712  6.22323e+20
-35.9539  6.24054e+20
-35.8366  6.24736e+20
-35.7193  6.2522e+20
-35.602  6.2676e+20
-35.4847  6.302e+20
-35.3674  6.3643e+20
-35.2501  6.46177e+20
-35.1328  6.59608e+20
-35.0154  6.76466e+20
-34.8981  6.95549e+20
-34.7808  7.15248e+20
-34.6635  7.33638e+20
-34.5462  7.48193e+20
-34.4289  7.56779e+20
-34.3116  7.57794e+20
-34.1943  7.50245e+20
-34.077  7.33992e+20
-33.9597  7.10193e+20
-33.8424  6.80522e+20
-33.7251  6.47488e+20
-33.6078  6.1349e+20
-33.4905  5.81074e+20
-33.3732  5.52383e+20
-33.2559  5.28891e+20
-33.1386  5.11691e+20
-33.0213  5.01069e+20
-32.904  4.96883e+20
-32.7867  4.98572e+20
-32.6693  5.05338e+20
-32.552  5.1612e+20
-32.4347  5.29712e+20
-32.3174  5.44934e+20
-32.2001  5.60869e+20
-32.0828  5.76753e+20
-31.9655  5.9222e+20
-31.8482  6.07288e+20
-31.7309  6.22505e+20
-31.6136  6.38711e+20
-31.4963  6.56915e+20
-31.379  6.78112e+20
-31.2617  7.03288e+20
-31.1444  7.32824e+20
-31.0271  7.66843e+20
-30.9098  8.05162e+20
-30.7925  8.46827e+20
-30.6752  8.90837e+20
-30.5579  9.36095e+20
-30.4406  9.81288e+20
-30.3232  1.0253e+21
-30.2059  1.06702e+21
-30.0886  1.10571e+21
-29.9713  1.14097e+21
-29.854  1.17263e+21
-29.7367  1.20073e+21
-29.6194  1.2258e+21
-29.5021  1.24847e+21
-29.3848  1.26941e+21
-29.2675  1.28931e+21
-29.1502  1.30857e+21
-29.0329  1.32729e+21
-28.9156  1.34526e+21
-28.7983  1.36173e+21
-28.681  1.37593e+21
-28.5637  1.38707e+21
-28.4464  1.39455e+21
-28.3291  1.39817e+21
-28.2118  1.39821e+21
-28.0944  1.39557e+21
-27.9771  1.39153e+21
-27.8598  1.38764e+21
-27.7425  1.38542e+21
-27.6252  1.38638e+21
-27.5079  1.39153e+21
-27.3906  1.40164e+21
-27.2733  1.41704e+21
-27.156  1.43757e+21
-27.0387  1.46321e+21
-26.9214  1.49346e+21
-26.8041  1.52802e+21
-26.6868  1.5666e+21
-26.5695  1.60903e+21
-26.4522  1.65526e+21
-26.3349  1.70538e+21
-26.2176  1.75949e+21
-26.1003  1.81745e+21
-25.983  1.87934e+21
-25.8657  1.94477e+21
-25.7483  2.01289e+21
-25.631  2.0826e+21
-25.5137  2.152e+21
-25.3964  2.21917e+21
-25.2791  2.2815e+21
-25.1618  2.3366e+21
-25.0445  2.38201e+21
-24.9272  2.41604e+21
-24.8099  2.43752e+21
-24.6926  2.44644e+21
-24.5753  2.44356e+21
-24.458  2.43091e+21
-24.3407  2.4111e+21
-24.2234  2.38777e+21
-24.1061  2.36453e+21
-23.9888  2.34542e+21
-23.8715  2.33432e+21
-23.7542  2.3347e+21
-23.6369  2.34924e+21
-23.5196  2.37981e+21
-23.4023  2.42745e+21
-23.2849  2.49169e+21
-23.1676  2.57112e+21
-23.0503  2.66298e+21
-22.933  2.76382e+21
-22.8157  2.86929e+21
-22.6984  2.97507e+21
-22.5811  3.07681e+21
-22.4638  3.17105e+21
-22.3465  3.2551e+21
-22.2292  3.32766e+21
-22.1119  3.38868e+21
-21.9946  3.4396e+21
-21.8773  3.48286e+21
-21.76  3.52164e+21
-21.6427  3.55981e+21
-21.5254  3.60104e+21
-21.4081  3.64871e+21
-21.2908  3.70523e+21
-21.1735  3.77224e+21
-21.0561  3.84979e+21
-20.9388  3.93696e+21
-20.8215  4.03091e+21
-20.7042  4.12839e+21
-20.5869  4.22489e+21
-20.4696  4.31608e+21
-20.3523  4.39753e+21
-20.235  4.46612e+21
-20.1177  4.51918e+21
-20.0004  4.55645e+21
-19.8831  4.57881e+21
-19.7658  4.58885e+21
-19.6485  4.59026e+21
-19.5312  4.58805e+21
-19.4139  4.58648e+21
-19.2966  4.59051e+21
-19.1793  4.60373e+21
-19.062  4.62903e+21
-18.9447  4.6673e+21
-18.8274  4.71842e+21
-18.71  4.78143e+21
-18.5927  4.85378e+21
-18.4754  4.93255e+21
-18.3581  5.01475e+21
-18.2408  5.0974e+21
-18.1235  5.17839e+21
-18.0062  5.25626e+21
-17.8889  5.3304e+21
-17.7716  5.40196e+21
-17.6543  5.47205e+21
-17.537  5.54344e+21
-17.4197  5.61866e+21
-17.3024  5.7009e+21
-17.1851  5.79276e+21
-17.0678  5.89582e+21
-16.9505  6.01155e+21
-16.8332  6.13994e+21
-16.7159  6.27973e+21
-16.5986  6.42849e+21
-16.4813  6.5833e+21
-16.364  6.74042e+21
-16.2466  6.89633e+21
-16.1293  7.04702e+21
-16.012  7.18918e+21
-15.8947  7.32026e+21
-15.7774  7.43885e+21
-15.6601  7.54429e+21
-15.5428  7.6374e+21
-15.4255  7.7194e+21
-15.3082  7.79325e+21
-15.1909  7.86274e+21
-15.0736  7.93073e+21
-14.9563  8.00117e+21
-14.839  8.07707e+21
-14.7217  8.1602e+21
-14.6044  8.25146e+21
-14.4871  8.35009e+21
-14.3698  8.45408e+21
-14.2525  8.56012e+21
-14.1352  8.66387e+21
-14.0178  8.76218e+21
-13.9005  8.85082e+21
-13.7832  8.92736e+21
-13.6659  8.99099e+21
-13.5486  9.04201e+21
-13.4313  9.08296e+21
-13.314  9.11733e+21
-13.1967  9.14989e+21
-13.0794  9.1868e+21
-12.9621  9.23227e+21
-12.8448  9.29231e+21
-12.7275  9.37001e+21
-12.6102  9.4681e+21
-12.4929  9.58711e+21
-12.3756  9.72547e+21
-12.2583  9.88069e+21
-12.141  1.00482e+22
-12.0237  1.0222e+22
-11.9064  1.03952e+22
-11.7891  1.05613e+22
-11.6718  1.07137e+22
-11.5544  1.08479e+22
-11.4371  1.09607e+22
-11.3198  1.10501e+22
-11.2025  1.11175e+22
-11.0852  1.1166e+22
-10.9679  1.12002e+22
-10.8506  1.12264e+22
-10.7333  1.12512e+22
-10.616  1.12812e+22
-10.4987  1.1324e+22
-10.3814  1.13833e+22
-10.2641  1.14633e+22
-10.1468  1.15655e+22
-10.0295  1.16897e+22
-9.91217  1.18329e+22
-9.79487  1.19912e+22
-9.67756  1.21582e+22
-9.56026  1.23269e+22
-9.44295  1.24891e+22
-9.32565  1.26382e+22
-9.20834  1.27667e+22
-9.09104  1.28695e+22
-8.97373  1.29435e+22
-8.85643  1.2987e+22
-8.73913  1.30014e+22
-8.62182  1.29896e+22
-8.50452  1.2957e+22
-8.38721  1.29104e+22
-8.26991  1.28559e+22
-8.1526  1.2802e+22
-8.03529  1.27548e+22
-7.91799  1.27208e+22
-7.80069  1.27047e+22
-7.68338  1.27096e+22
-7.56608  1.27378e+22
-7.44877  1.27898e+22
-7.33146  1.28639e+22
-7.21416  1.29585e+22
-7.09685  1.30703e+22
-6.97955  1.31953e+22
-6.86224  1.33296e+22
-6.74494  1.34704e+22
-6.62763  1.36123e+22
-6.51033  1.37528e+22
-6.39302  1.38888e+22
-6.27572  1.4018e+22
-6.15842  1.41384e+22
-6.04111  1.42493e+22
-5.92381  1.43495e+22
-5.8065  1.44403e+22
-5.68919  1.45213e+22
-5.57189  1.45943e+22
-5.45458  1.46602e+22
-5.33728  1.47213e+22
-5.21997  1.47781e+22
-5.10267  1.4832e+22
-4.98536  1.48834e+22
-4.86806  1.49319e+22
-4.75075  1.49767e+22
-4.63345  1.50171e+22
-4.51614  1.50513e+22
-4.39884  1.50779e+22
-4.28154  1.50967e+22
-4.16423  1.51063e+22
-4.04692  1.51071e+22
-3.92962  1.50998e+22
-3.81231  1.50864e+22
-3.69501  1.50684e+22
-3.5777  1.50482e+22
-3.4604  1.50288e+22
-3.34309  1.50127e+22
-3.22579  1.50024e+22
-3.10849  1.49999e+22
-2.99118  1.50072e+22
-2.87387  1.50262e+22
-2.75657  1.50576e+22
-2.63926  1.51021e+22
-2.52196  1.516e+22
-2.40465  1.52303e+22
-2.28735  1.53121e+22
-2.17005  1.54037e+22
-2.05274  1.55039e+22
-1.93544  1.56088e+22
-1.81813  1.57162e+22
-1.70083  1.5823e+22
-1.58352  1.5926e+22
-1.46622  1.60221e+22
-1.34891  1.61093e+22
-1.2316  1.61852e+22
-1.1143  1.62491e+22
-0.996995  1.63003e+22
-0.87969  1.63398e+22
-0.762385  1.63678e+22
-0.64508  1.63872e+22
-0.527775  1.6399e+22
-0.41047  1.64056e+22
-0.293165  1.64084e+22
-0.17586  1.64094e+22
-0.058555  1.64095e+22
0.05875  1.64091e+22
0.176055  1.64083e+22
0.29336  1.64064e+22
0.410665  1.64028e+22
0.52797  1.63956e+22
0.645275  1.63828e+22
0.76258  1.63627e+22
0.879885  1.63335e+22
0.99719  1.62932e+22
1.1145  1.62409e+22
1.2318  1.6176e+22
1.3491  1.60992e+22
1.46641  1.60113e+22
1.58371  1.59142e+22
1.70102  1.58103e+22
1.81832  1.57029e+22
1.93563  1.55944e+22
2.05294  1.54887e+22
2.17024  1.53883e+22
2.28754  1.52958e+22
2.40485  1.52133e+22
2.52216  1.51421e+22
2.63946  1.50839e+22
2.75677  1.50384e+22
2.87407  1.50063e+22
2.99137  1.49862e+22
3.10868  1.49777e+22
3.22599  1.49789e+22
3.34329  1.49883e+22
3.4606  1.50032e+22
3.5779  1.50212e+22
3.69521  1.50396e+22
3.81251  1.50561e+22
3.92982  1.50679e+22
4.04712  1.50734e+22
4.16443  1.50711e+22
4.28173  1.50601e+22
4.39903  1.50402e+22
4.51634  1.50121e+22
4.63364  1.49771e+22
4.75095  1.49358e+22
4.86825  1.48901e+22
4.98556  1.4841e+22
5.10286  1.47892e+22
5.22017  1.47349e+22
5.33748  1.46778e+22
5.45478  1.46166e+22
5.57209  1.45503e+22
5.68939  1.44769e+22
5.8067  1.43955e+22
5.924  1.43044e+22
6.0413  1.42036e+22
6.15861  1.40922e+22
6.27591  1.39712e+22
6.39322  1.38417e+22
6.51052  1.37055e+22
6.62783  1.35642e+22
6.74514  1.34219e+22
6.86244  1.32814e+22
6.97975  1.31465e+22
7.09705  1.30215e+22
7.21436  1.29099e+22
7.33166  1.28154e+22
7.44897  1.27411e+22
7.56627  1.26896e+22
7.68358  1.26612e+22
7.80088  1.2656e+22
7.91819  1.26717e+22
8.03549  1.27053e+22
8.1528  1.27519e+22
8.2701  1.28049e+22
8.38741  1.28578e+22
8.50471  1.29032e+22
8.62202  1.29339e+22
8.73932  1.29436e+22
8.85662  1.29276e+22
8.97393  1.28823e+22
9.09123  1.28066e+22
9.20854  1.27023e+22
9.32584  1.25729e+22
9.44315  1.2423e+22
9.56045  1.226e+22
9.67776  1.20913e+22
9.79506  1.19243e+22
9.91237  1.17665e+22
10.0297  1.16238e+22
10.147  1.15005e+22
10.2643  1.13993e+22
10.3816  1.13199e+22
10.4989  1.12613e+22
10.6162  1.12193e+22
10.7335  1.11893e+22
10.8508  1.11643e+22
10.9681  1.11379e+22
11.0854  1.11035e+22
11.2027  1.10546e+22
11.32  1.09862e+22
11.4373  1.08959e+22
11.5546  1.07825e+22
11.6719  1.06475e+22
11.7893  1.04947e+22
11.9066  1.03283e+22
12.0239  1.01549e+22
12.1412  9.98157e+21
12.2585  9.81464e+21
12.3758  9.65989e+21
12.4931  9.52207e+21
12.6104  9.40379e+21
12.7277  9.30656e+21
12.845  9.22976e+21
12.9623  9.17022e+21
13.0796  9.12497e+21
13.1969  9.08859e+21
13.3142  9.05577e+21
13.4315  9.02097e+21
13.5488  8.97969e+21
13.6661  8.92804e+21
13.7834  8.86353e+21
13.9007  8.78602e+21
14.018  8.69683e+21
14.1354  8.59773e+21
14.2527  8.49294e+21
14.37  8.38652e+21
14.4873  8.28189e+21
14.6046  8.18289e+21
14.7219  8.09126e+21
14.8392  8.00794e+21
14.9565  7.93211e+21
15.0738  7.86138e+21
15.1911  7.79351e+21
15.3084  7.72424e+21
15.4257  7.65032e+21
15.543  7.56834e+21
15.6603  7.47566e+21
15.7776  7.37085e+21
15.8949  7.25293e+21
16.0122  7.12242e+21
16.1295  6.98095e+21
16.2468  6.8312e+21
16.3641  6.67633e+21
16.4815  6.52034e+21
16.5988  6.3667e+21
16.7161  6.21888e+21
16.8334  6.08059e+21
16.9507  5.95341e+21
17.068  5.83878e+21
17.1853  5.73666e+21
17.3026  5.64583e+21
17.4199  5.56455e+21
17.5372  5.49019e+21
17.6545  5.41934e+21
17.7718  5.35002e+21
17.8891  5.27913e+21
18.0064  5.20554e+21
18.1237  5.12817e+21
18.241  5.04768e+21
18.3583  4.96546e+21
18.4756  4.8837e+21
18.5929  4.8054e+21
18.7102  4.73361e+21
18.8275  4.67094e+21
18.9449  4.62004e+21
19.0622  4.58212e+21
19.1795  4.55699e+21
19.2968  4.54374e+21
19.4141  4.53953e+21
19.5314  4.5409e+21
19.6487  4.54296e+21
19.766  4.54096e+21
19.8833  4.53056e+21
20.0006  4.50769e+21
20.1179  4.46999e+21
20.2352  4.41651e+21
20.3525  4.34799e+21
20.4698  4.26663e+21
20.5871  4.17579e+21
20.7044  4.07976e+21
20.8217  3.98291e+21
20.939  3.88961e+21
21.0563  3.80332e+21
21.1736  3.72654e+21
21.291  3.66043e+21
21.4083  3.6044e+21
21.5256  3.55753e+21
21.6429  3.51678e+21
21.7602  3.47912e+21
21.8775  3.44055e+21
21.9948  3.39759e+21
22.1121  3.34688e+21
22.2294  3.28614e+21
22.3467  3.21374e+21
22.464  3.1302e+21
22.5813  3.03647e+21
22.6986  2.93549e+21
22.8159  2.83055e+21
22.9332  2.72604e+21
23.0505  2.62633e+21
23.1678  2.53564e+21
23.2851  2.45746e+21
23.4024  2.39436e+21
23.5198  2.34781e+21
23.6371  2.3182e+21
23.7544  2.30458e+21
23.8717  2.30491e+21
23.989  2.31648e+21
24.1063  2.33593e+21
24.2236  2.35941e+21
24.3409  2.38281e+21
24.4582  2.40255e+21
24.5755  2.41509e+21
24.6928  2.41779e+21
24.8101  2.40867e+21
24.9274  2.38704e+21
25.0447  2.35295e+21
25.162  2.3076e+21
25.2793  2.25274e+21
25.3966  2.19075e+21
25.5139  2.12399e+21
25.6312  2.05501e+21
25.7485  1.98591e+21
25.8658  1.91838e+21
25.9832  1.85375e+21
26.1005  1.79246e+21
26.2178  1.73513e+21
26.3351  1.68175e+21
26.4524  1.6323e+21
26.5697  1.58663e+21
26.687  1.54481e+21
26.8043  1.50678e+21
26.9216  1.47272e+21
27.0389  1.44297e+21
27.1562  1.41792e+21
27.2735  1.39772e+21
27.3908  1.38284e+21
27.5081  1.37318e+21
27.6254  1.36838e+21
27.7427  1.36781e+21
27.86  1.37036e+21
27.9773  1.37458e+21
28.0946  1.37884e+21
28.212  1.3817e+21
28.3293  1.38187e+21
28.4466  1.37846e+21
28.5639  1.37127e+21
28.6812  1.36034e+21
28.7985  1.34646e+21
28.9158  1.33031e+21
29.0331  1.3127e+21
29.1504  1.29433e+21
29.2677  1.27541e+21
29.385  1.25585e+21
29.5023  1.23521e+21
29.6196  1.21282e+21
29.7369  1.18798e+21
29.8542  1.16007e+21
29.9715  1.12868e+21
30.0888  1.09366e+21
30.2061  1.05514e+21
30.3234  1.01368e+21
30.4407  9.69986e+20
30.558  9.2516e+20
30.6754  8.80309e+20
30.7927  8.36647e+20
30.91  7.95453e+20
31.0273  7.57727e+20
31.1446  7.2412e+20
31.2619  6.95073e+20
31.3792  6.70395e+20
31.4965  6.49544e+20
31.6138  6.31717e+20
31.7311  6.15818e+20
31.8484  6.00854e+20
31.9657  5.85941e+20
32.083  5.70698e+20
32.2003  5.55048e+20
32.3176  5.39279e+20
32.4349  5.24295e+20
32.5522  5.10944e+20
32.6695  5.00475e+20
32.7868  4.94046e+20
32.9042  4.92661e+20
33.0215  4.97214e+20
33.1388  5.08214e+20
33.2561  5.25812e+20
33.3734  5.49558e+20
33.4907  5.78485e+20
33.608  6.11137e+20
33.7253  6.45177e+20
33.8426  6.78199e+20
33.9599  7.0774e+20
34.0772  7.31311e+20
34.1945  7.47296e+20
34.3118  7.54579e+20
34.4291  7.53408e+20
34.5464  7.44616e+20
34.6637  7.29906e+20
34.781  7.1157e+20
34.8983  6.91827e+20
35.0156  6.72861e+20
35.1329  6.56344e+20
35.2503  6.43116e+20
35.3676  6.33585e+20
35.4849  6.27418e+20
35.6022  6.24197e+20
35.7195  6.22835e+20
35.8368  6.22394e+20
35.9541  6.2181e+20
36.0714  6.20017e+20
36.1887  6.16481e+20
36.306  6.10694e+20
36.4233  6.02419e+20
36.5406  5.92257e+20
36.6579  5.8107e+20
36.7752  5.70143e+20
36.8925  5.60883e+20
37.0098  5.54933e+20
37.1271  5.53277e+20
37.2444  5.56478e+20
37.3617  5.64071e+20
37.479  5.74946e+20
37.5964  5.8708e+20
37.7137  5.9789e+20
37.831  6.051e+20
37.9483  6.06338e+20
38.0656  6.00628e+20
38.1829  5.87511e+20
38.3002  5.67814e+20
38.4175  5.43235e+20
38.5348  5.16092e+20
38.6521  4.89045e+20
38.7694  4.64454e+20
38.8867  4.44415e+20
39.004  4.30388e+20
39.1213  4.23061e+20
39.2386  4.22451e+20
39.3559  4.27876e+20
39.4732  4.38287e+20
39.5905  4.52211e+20
39.7078  4.6812e+20
39.8251  4.84357e+20
39.9425  4.99208e+20
40.0598  5.11548e+20
40.1771  5.1992e+20
40.2944  5.23914e+20
40.4117  5.2325e+20
40.529  5.18238e+20
40.6463  5.09439e+20
40.7636  4.98012e+20
40.8809  4.85199e+20
40.9982  4.72125e+20
41.1155  4.59973e+20
41.2328  4.49623e+20
41.3501  4.41671e+20
41.4674  4.36182e+20
41.5847  4.33027e+20
41.702  4.31754e+20
41.8193  4.31385e+20
41.9366  4.31285e+20
42.0539  4.30334e+20
42.1712  4.27749e+20
42.2885  4.23026e+20
42.4059  4.15876e+20
42.5232  4.06635e+20
42.6405  3.95827e+20
42.7578  3.84761e+20
42.8751  3.74679e+20
42.9924  3.66957e+20
43.1097  3.63e+20
43.227  3.6345e+20
43.3443  3.68452e+20
43.4616  3.77385e+20
43.5789  3.88928e+20
43.6962  4.01296e+20
43.8135  4.12342e+20
43.9308  4.20151e+20
44.0481  4.23062e+20
44.1654  4.20199e+20
44.2827  4.11349e+20
44.4  3.97146e+20
44.5173  3.78878e+20
44.6347  3.58481e+20
44.752  3.38074e+20
44.8693  3.19674e+20
44.9866  3.05113e+20
45.1039  2.95926e+20
45.2212  2.92893e+20
45.3385  2.96185e+20
45.4558  3.05476e+20
45.5731  3.19519e+20
45.6904  3.3669e+20
45.8077  3.54946e+20
45.925  3.72002e+20
46.0423  3.85669e+20
46.1596  3.9399e+20
46.2769  3.9567e+20
46.3942  3.9011e+20
46.5115  3.77504e+20
46.6288  3.58863e+20
46.7461  3.35735e+20
46.8634  3.10022e+20
46.9808  2.83718e+20
47.0981  2.58751e+20
47.2154  2.36481e+20
47.3327  2.17894e+20
47.45  2.03293e+20
47.5673  1.92795e+20
47.6846  1.86011e+20
47.8019  1.82582e+20
47.9192  1.82027e+20
48.0365  1.8401e+20
48.1538  1.8834e+20
48.2711  1.94869e+20
48.3884  2.03554e+20
48.5057  2.1429e+20
48.623  2.26943e+20
48.7403  2.4125e+20
48.8576  2.56828e+20
48.9749  2.73115e+20
49.0922  2.89384e+20
49.2095  3.04895e+20
49.3269  3.18841e+20
49.4442  3.30393e+20
49.5615  3.38783e+20
49.6788  3.43404e+20
49.7961  3.43893e+20
49.9134  3.40075e+20
50.0307  3.32046e+20
50.148  3.20199e+20
50.2653  3.04988e+20
50.3826  2.87134e+20
50.4999  2.67397e+20
50.6172  2.46583e+20
50.7345  2.25417e+20
50.8518  2.04785e+20
