#S 1 spectral density
#N 2
#UFWHM 35.4261
#L  abscissas [um]  spectral density
-58.5938  3.34787e+20
-58.4764  3.43966e+20
-58.3591  3.51202e+20
-58.2418  3.55043e+20
-58.1245  3.54377e+20
-58.0072  3.48988e+20
-57.8899  3.39479e+20
-57.7726  3.2686e+20
-57.6553  3.1286e+20
-57.538  2.99215e+20
-57.4207  2.87583e+20
-57.3034  2.79364e+20
-57.1861  2.75535e+20
-57.0688  2.76664e+20
-56.9515  2.82896e+20
-56.8342  2.93976e+20
-56.7169  3.09251e+20
-56.5996  3.27836e+20
-56.4823  3.4833e+20
-56.365  3.69213e+20
-56.2477  3.88876e+20
-56.1303  4.05364e+20
-56.013  4.17272e+20
-55.8957  4.23423e+20
-55.7784  4.23522e+20
-55.6611  4.17702e+20
-55.5438  4.06956e+20
-55.4265  3.92823e+20
-55.3092  3.77156e+20
-55.1919  3.61893e+20
-55.0746  3.48633e+20
-54.9573  3.3856e+20
-54.84  3.32422e+20
-54.7227  3.3039e+20
-54.6054  3.3218e+20
-54.4881  3.37188e+20
-54.3708  3.44579e+20
-54.2535  3.53729e+20
-54.1362  3.64002e+20
-54.0189  3.74887e+20
-53.9016  3.85933e+20
-53.7842  3.97294e+20
-53.6669  4.08814e+20
-53.5496  4.21042e+20
-53.4323  4.34425e+20
-53.315  4.49485e+20
-53.1977  4.66741e+20
-53.0804  4.86302e+20
-52.9631  5.07982e+20
-52.8458  5.30954e+20
-52.7285  5.53908e+20
-52.6112  5.75043e+20
-52.4939  5.92436e+20
-52.3766  6.04261e+20
-52.2593  6.08988e+20
-52.142  6.05902e+20
-52.0247  5.94913e+20
-51.9074  5.76931e+20
-51.7901  5.5335e+20
-51.6728  5.26232e+20
-51.5555  4.97735e+20
-51.4381  4.69693e+20
-51.3208  4.43958e+20
-51.2035  4.21517e+20
-51.0862  4.03198e+20
-50.9689  3.88982e+20
-50.8516  3.78638e+20
-50.7343  3.71726e+20
-50.617  3.67438e+20
-50.4997  3.64993e+20
-50.3824  3.63579e+20
-50.2651  3.6238e+20
-50.1478  3.60958e+20
-50.0305  3.58692e+20
-49.9132  3.55638e+20
-49.7959  3.51757e+20
-49.6786  3.47419e+20
-49.5613  3.43271e+20
-49.444  3.40175e+20
-49.3267  3.38841e+20
-49.2094  3.40157e+20
-49.092  3.44872e+20
-48.9747  3.53289e+20
-48.8574  3.65536e+20
-48.7401  3.8137e+20
-48.6228  4.0017e+20
-48.5055  4.20924e+20
-48.3882  4.42507e+20
-48.2709  4.63405e+20
-48.1536  4.82188e+20
-48.0363  4.97549e+20
-47.919  5.08427e+20
-47.8017  5.14335e+20
-47.6844  5.15275e+20
-47.5671  5.11995e+20
-47.4498  5.05742e+20
-47.3325  4.98209e+20
-47.2152  4.91306e+20
-47.0979  4.86821e+20
-46.9806  4.86317e+20
-46.8633  4.90717e+20
-46.7459  5.00269e+20
-46.6286  5.14713e+20
-46.5113  5.3287e+20
-46.394  5.53415e+20
-46.2767  5.74498e+20
-46.1594  5.9446e+20
-46.0421  6.11699e+20
-45.9248  6.24919e+20
-45.8075  6.33149e+20
-45.6902  6.35888e+20
-45.5729  6.33043e+20
-45.4556  6.25199e+20
-45.3383  6.12923e+20
-45.221  5.97514e+20
-45.1037  5.80205e+20
-44.9864  5.62508e+20
-44.8691  5.4555e+20
-44.7518  5.30332e+20
-44.6345  5.1745e+20
-44.5172  5.0707e+20
-44.3998  4.98822e+20
-44.2825  4.92104e+20
-44.1652  4.86012e+20
-44.0479  4.79858e+20
-43.9306  4.72989e+20
-43.8133  4.65177e+20
-43.696  4.56762e+20
-43.5787  4.48183e+20
-43.4614  4.4016e+20
-43.3441  4.3358e+20
-43.2268  4.29153e+20
-43.1095  4.27336e+20
-42.9922  4.28267e+20
-42.8749  4.3188e+20
-42.7576  4.379e+20
-42.6403  4.45835e+20
-42.523  4.55357e+20
-42.4057  4.65977e+20
-42.2884  4.77421e+20
-42.171  4.89444e+20
-42.0537  5.01927e+20
-41.9364  5.14659e+20
-41.8191  5.27432e+20
-41.7018  5.4009e+20
-41.5845  5.5242e+20
-41.4672  5.64333e+20
-41.3499  5.75679e+20
-41.2326  5.86572e+20
-41.1153  5.96984e+20
-40.998  6.07053e+20
-40.8807  6.16823e+20
-40.7634  6.26387e+20
-40.6461  6.35723e+20
-40.5288  6.44761e+20
-40.4115  6.53307e+20
-40.2942  6.6135e+20
-40.1769  6.68551e+20
-40.0596  6.74606e+20
-39.9423  6.79406e+20
-39.825  6.82678e+20
-39.7076  6.84338e+20
-39.5903  6.84324e+20
-39.473  6.8277e+20
-39.3557  6.80256e+20
-39.2384  6.77312e+20
-39.1211  6.74838e+20
-39.0038  6.73913e+20
-38.8865  6.75353e+20
-38.7692  6.79759e+20
-38.6519  6.87366e+20
-38.5346  6.97837e+20
-38.4173  7.10268e+20
-38.3  7.23403e+20
-38.1827  7.35677e+20
-38.0654  7.4591e+20
-37.9481  7.53101e+20
-37.8308  7.57074e+20
-37.7135  7.58168e+20
-37.5962  7.5746e+20
-37.4789  7.56509e+20
-37.3615  7.57121e+20
-37.2442  7.60839e+20
-37.1269  7.68931e+20
-37.0096  7.82261e+20
-36.8923  8.01258e+20
-36.775  8.25786e+20
-36.6577  8.55334e+20
-36.5404  8.89324e+20
-36.4231  9.26904e+20
-36.3058  9.67044e+20
-36.1885  1.00869e+21
-36.0712  1.05044e+21
-35.9539  1.09108e+21
-35.8366  1.12905e+21
-35.7193  1.16303e+21
-35.602  1.19215e+21
-35.4847  1.21564e+21
-35.3674  1.23351e+21
-35.2501  1.24633e+21
-35.1328  1.25506e+21
-35.0154  1.26112e+21
-34.8981  1.26555e+21
-34.7808  1.26972e+21
-34.6635  1.27441e+21
-34.5462  1.27999e+21
-34.4289  1.28651e+21
-34.3116  1.29377e+21
-34.1943  1.30137e+21
-34.077  1.30896e+21
-33.9597  1.31624e+21
-33.8424  1.3232e+21
-33.7251  1.32987e+21
-33.6078  1.33658e+21
-33.4905  1.34356e+21
-33.3732  1.35141e+21
-33.2559  1.36078e+21
-33.1386  1.37253e+21
-33.0213  1.38759e+21
-32.904  1.40688e+21
-32.7867  1.43151e+21
-32.6693  1.46211e+21
-32.552  1.49904e+21
-32.4347  1.54194e+21
-32.3174  1.58999e+21
-32.2001  1.64179e+21
-32.0828  1.6953e+21
-31.9655  1.74845e+21
-31.8482  1.79903e+21
-31.7309  1.84532e+21
-31.6136  1.88573e+21
-31.4963  1.9196e+21
-31.379  1.9467e+21
-31.2617  1.96763e+21
-31.1444  1.98315e+21
-31.0271  1.99463e+21
-30.9098  2.00369e+21
-30.7925  2.01159e+21
-30.6752  2.01981e+21
-30.5579  2.0294e+21
-30.4406  2.04101e+21
-30.3232  2.05502e+21
-30.2059  2.07084e+21
-30.0886  2.08801e+21
-29.9713  2.10555e+21
-29.854  2.12243e+21
-29.7367  2.13776e+21
-29.6194  2.15104e+21
-29.5021  2.16214e+21
-29.3848  2.17149e+21
-29.2675  2.17996e+21
-29.1502  2.18862e+21
-29.0329  2.19881e+21
-28.9156  2.21165e+21
-28.7983  2.22806e+21
-28.681  2.24862e+21
-28.5637  2.2738e+21
-28.4464  2.30364e+21
-28.3291  2.33804e+21
-28.2118  2.37666e+21
-28.0944  2.41947e+21
-27.9771  2.46601e+21
-27.8598  2.516e+21
-27.7425  2.56882e+21
-27.6252  2.62378e+21
-27.5079  2.68012e+21
-27.3906  2.7369e+21
-27.2733  2.79335e+21
-27.156  2.84864e+21
-27.0387  2.90205e+21
-26.9214  2.95324e+21
-26.8041  3.00173e+21
-26.6868  3.04752e+21
-26.5695  3.09051e+21
-26.4522  3.13055e+21
-26.3349  3.16771e+21
-26.2176  3.20235e+21
-26.1003  3.23419e+21
-25.983  3.26348e+21
-25.8657  3.29067e+21
-25.7483  3.31612e+21
-25.631  3.34074e+21
-25.5137  3.36497e+21
-25.3964  3.3899e+21
-25.2791  3.41661e+21
-25.1618  3.44614e+21
-25.0445  3.47929e+21
-24.9272  3.51744e+21
-24.8099  3.56112e+21
-24.6926  3.61098e+21
-24.5753  3.6673e+21
-24.458  3.72944e+21
-24.3407  3.79655e+21
-24.2234  3.86692e+21
-24.1061  3.9382e+21
-23.9888  4.00787e+21
-23.8715  4.07337e+21
-23.7542  4.13233e+21
-23.6369  4.18272e+21
-23.5196  4.22339e+21
-23.4023  4.25451e+21
-23.2849  4.27685e+21
-23.1676  4.29242e+21
-23.0503  4.30384e+21
-22.933  4.31422e+21
-22.8157  4.32718e+21
-22.6984  4.34604e+21
-22.5811  4.37394e+21
-22.4638  4.41331e+21
-22.3465  4.46534e+21
-22.2292  4.53078e+21
-22.1119  4.60845e+21
-21.9946  4.69678e+21
-21.8773  4.79254e+21
-21.76  4.89186e+21
-21.6427  4.99089e+21
-21.5254  5.08581e+21
-21.4081  5.17257e+21
-21.2908  5.24855e+21
-21.1735  5.31219e+21
-21.0561  5.363e+21
-20.9388  5.40232e+21
-20.8215  5.43204e+21
-20.7042  5.45519e+21
-20.5869  5.47535e+21
-20.4696  5.49629e+21
-20.3523  5.52092e+21
-20.235  5.55243e+21
-20.1177  5.59216e+21
-20.0004  5.64093e+21
-19.8831  5.69882e+21
-19.7658  5.76399e+21
-19.6485  5.8341e+21
-19.5312  5.9062e+21
-19.4139  5.97672e+21
-19.2966  6.04221e+21
-19.1793  6.09957e+21
-19.062  6.14679e+21
-18.9447  6.18245e+21
-18.8274  6.20678e+21
-18.71  6.22192e+21
-18.5927  6.23075e+21
-18.4754  6.23757e+21
-18.3581  6.2475e+21
-18.2408  6.26529e+21
-18.1235  6.29627e+21
-18.0062  6.34425e+21
-17.8889  6.41191e+21
-17.7716  6.50059e+21
-17.6543  6.60902e+21
-17.537  6.73518e+21
-17.4197  6.87474e+21
-17.3024  7.02262e+21
-17.1851  7.17244e+21
-17.0678  7.31771e+21
-16.9505  7.4528e+21
-16.8332  7.57266e+21
-16.7159  7.67325e+21
-16.5986  7.75233e+21
-16.4813  7.80962e+21
-16.364  7.84625e+21
-16.2466  7.8655e+21
-16.1293  7.87166e+21
-16.012  7.86913e+21
-15.8947  7.86307e+21
-15.7774  7.8584e+21
-15.6601  7.85865e+21
-15.5428  7.86694e+21
-15.4255  7.88429e+21
-15.3082  7.91084e+21
-15.1909  7.94645e+21
-15.0736  7.98854e+21
-14.9563  8.03493e+21
-14.839  8.08304e+21
-14.7217  8.13048e+21
-14.6044  8.1749e+21
-14.4871  8.21481e+21
-14.3698  8.24964e+21
-14.2525  8.27942e+21
-14.1352  8.30467e+21
-14.0178  8.32813e+21
-13.9005  8.35176e+21
-13.7832  8.37857e+21
-13.6659  8.41213e+21
-13.5486  8.45438e+21
-13.4313  8.50803e+21
-13.314  8.57381e+21
-13.1967  8.65142e+21
-13.0794  8.73992e+21
-12.9621  8.83583e+21
-12.8448  8.93647e+21
-12.7275  9.03767e+21
-12.6102  9.13591e+21
-12.4929  9.22782e+21
-12.3756  9.31089e+21
-12.2583  9.38468e+21
-12.141  9.44924e+21
-12.0237  9.50635e+21
-11.9064  9.55827e+21
-11.7891  9.60813e+21
-11.6718  9.65963e+21
-11.5544  9.71624e+21
-11.4371  9.78154e+21
-11.3198  9.8566e+21
-11.2025  9.94269e+21
-11.0852  1.00396e+22
-10.9679  1.01451e+22
-10.8506  1.02562e+22
-10.7333  1.03683e+22
-10.616  1.04763e+22
-10.4987  1.05762e+22
-10.3814  1.06619e+22
-10.2641  1.07304e+22
-10.1468  1.07788e+22
-10.0295  1.08064e+22
-9.91217  1.08133e+22
-9.79487  1.08018e+22
-9.67756  1.07753e+22
-9.56026  1.07377e+22
-9.44295  1.06931e+22
-9.32565  1.06467e+22
-9.20834  1.0602e+22
-9.09104  1.05624e+22
-8.97373  1.05309e+22
-8.85643  1.05083e+22
-8.73913  1.04957e+22
-8.62182  1.04922e+22
-8.50452  1.04969e+22
-8.38721  1.05087e+22
-8.26991  1.05248e+22
-8.1526  1.05448e+22
-8.03529  1.0567e+22
-7.91799  1.05912e+22
-7.80069  1.0618e+22
-7.68338  1.06486e+22
-7.56608  1.06855e+22
-7.44877  1.07318e+22
-7.33146  1.07909e+22
-7.21416  1.08656e+22
-7.09685  1.09583e+22
-6.97955  1.10709e+22
-6.86224  1.12034e+22
-6.74494  1.13553e+22
-6.62763  1.15223e+22
-6.51033  1.17e+22
-6.39302  1.18821e+22
-6.27572  1.20611e+22
-6.15842  1.22289e+22
-6.04111  1.23776e+22
-5.92381  1.25001e+22
-5.8065  1.25914e+22
-5.68919  1.26469e+22
-5.57189  1.26663e+22
-5.45458  1.26508e+22
-5.33728  1.26043e+22
-5.21997  1.25325e+22
-5.10267  1.24427e+22
-4.98536  1.23426e+22
-4.86806  1.22403e+22
-4.75075  1.21425e+22
-4.63345  1.20555e+22
-4.51614  1.19831e+22
-4.39884  1.19274e+22
-4.28154  1.18893e+22
-4.16423  1.18671e+22
-4.04692  1.1858e+22
-3.92962  1.18583e+22
-3.81231  1.18641e+22
-3.69501  1.18715e+22
-3.5777  1.18766e+22
-3.4604  1.18778e+22
-3.34309  1.18736e+22
-3.22579  1.18646e+22
-3.10849  1.18525e+22
-2.99118  1.18407e+22
-2.87387  1.18334e+22
-2.75657  1.18351e+22
-2.63926  1.18506e+22
-2.52196  1.18836e+22
-2.40465  1.19364e+22
-2.28735  1.20103e+22
-2.17005  1.2104e+22
-2.05274  1.22154e+22
-1.93544  1.23383e+22
-1.81813  1.24674e+22
-1.70083  1.25949e+22
-1.58352  1.27135e+22
-1.46622  1.28158e+22
-1.34891  1.28961e+22
-1.2316  1.29501e+22
-1.1143  1.29763e+22
-0.996995  1.29743e+22
-0.87969  1.29477e+22
-0.762385  1.29009e+22
-0.64508  1.2841e+22
-0.527775  1.2775e+22
-0.41047  1.27107e+22
-0.293165  1.26552e+22
-0.17586  1.26146e+22
-0.058555  1.25933e+22
0.05875  1.25934e+22
0.176055  1.26148e+22
0.29336  1.26552e+22
0.410665  1.27106e+22
0.52797  1.27747e+22
0.645275  1.28404e+22
0.76258  1.28996e+22
0.879885  1.29455e+22
0.99719  1.29713e+22
1.1145  1.29719e+22
1.2318  1.2945e+22
1.3491  1.28899e+22
1.46641  1.28085e+22
1.58371  1.27049e+22
1.70102  1.25853e+22
1.81832  1.2457e+22
1.93563  1.2327e+22
2.05294  1.22032e+22
2.17024  1.20917e+22
2.28754  1.19972e+22
2.40485  1.19229e+22
2.52216  1.18694e+22
2.63946  1.18364e+22
2.75677  1.18204e+22
2.87407  1.18183e+22
2.99137  1.18251e+22
3.10868  1.18365e+22
3.22599  1.1848e+22
3.34329  1.18569e+22
3.4606  1.18609e+22
3.5779  1.18598e+22
3.69521  1.18543e+22
3.81251  1.1847e+22
3.92982  1.1841e+22
4.04712  1.18408e+22
4.16443  1.18499e+22
4.28173  1.18723e+22
4.39903  1.19104e+22
4.51634  1.19657e+22
4.63364  1.2038e+22
4.75095  1.21245e+22
4.86825  1.22213e+22
4.98556  1.23226e+22
5.10286  1.24214e+22
5.22017  1.25099e+22
5.33748  1.258e+22
5.45478  1.26246e+22
5.57209  1.26384e+22
5.68939  1.2617e+22
5.8067  1.25596e+22
5.924  1.24671e+22
6.0413  1.23433e+22
6.15861  1.21935e+22
6.27591  1.20249e+22
6.39322  1.18456e+22
6.51052  1.16635e+22
6.62783  1.14855e+22
6.74514  1.13187e+22
6.86244  1.11675e+22
6.97975  1.10351e+22
7.09705  1.09229e+22
7.21436  1.08303e+22
7.33166  1.0756e+22
7.44897  1.06972e+22
7.56627  1.06509e+22
7.68358  1.06137e+22
7.80088  1.05827e+22
7.91819  1.05555e+22
8.03549  1.05311e+22
8.1528  1.05086e+22
8.2701  1.04882e+22
8.38741  1.04714e+22
8.50471  1.04595e+22
8.62202  1.04541e+22
8.73932  1.04572e+22
8.85662  1.04695e+22
8.97393  1.04916e+22
9.09123  1.05228e+22
9.20854  1.05618e+22
9.32584  1.06063e+22
9.44315  1.06522e+22
9.56045  1.06961e+22
9.67776  1.07331e+22
9.79506  1.07591e+22
9.91237  1.07699e+22
10.0297  1.07621e+22
10.147  1.0734e+22
10.2643  1.06852e+22
10.3816  1.0616e+22
10.4989  1.05299e+22
10.6162  1.04301e+22
10.7335  1.03216e+22
10.8508  1.02095e+22
10.9681  1.00986e+22
11.0854  9.99352e+21
11.2027  9.89715e+21
11.32  9.81095e+21
11.4373  9.73611e+21
11.5546  9.67142e+21
11.6719  9.61473e+21
11.7893  9.56343e+21
11.9066  9.51328e+21
12.0239  9.46129e+21
12.1412  9.40432e+21
12.2585  9.33942e+21
12.3758  9.26513e+21
12.4931  9.18147e+21
12.6104  9.08923e+21
12.7277  8.99084e+21
12.845  8.88959e+21
12.9623  8.78849e+21
13.0796  8.69232e+21
13.1969  8.60394e+21
13.3142  8.52603e+21
13.4315  8.46005e+21
13.5488  8.40639e+21
13.6661  8.3638e+21
13.7834  8.33011e+21
13.9007  8.30281e+21
14.018  8.27918e+21
14.1354  8.25538e+21
14.2527  8.22961e+21
14.37  8.19964e+21
14.4873  8.1645e+21
14.6046  8.12428e+21
14.7219  8.07961e+21
14.8392  8.03224e+21
14.9565  7.98409e+21
15.0738  7.93738e+21
15.1911  7.89545e+21
15.3084  7.85985e+21
15.4257  7.83301e+21
15.543  7.81543e+21
15.6603  7.80708e+21
15.7776  7.80673e+21
15.8949  7.81145e+21
16.0122  7.8169e+21
16.1295  7.81903e+21
16.2468  7.81263e+21
16.3641  7.79289e+21
16.4815  7.75593e+21
16.5988  7.69833e+21
16.7161  7.61892e+21
16.8334  7.51857e+21
16.9507  7.39891e+21
17.068  7.26386e+21
17.1853  7.11889e+21
17.3026  6.96961e+21
17.4199  6.82252e+21
17.5372  6.68385e+21
17.6545  6.55823e+21
17.7718  6.4505e+21
17.8891  6.36265e+21
18.0064  6.29547e+21
18.1237  6.24776e+21
18.241  6.21707e+21
18.3583  6.19922e+21
18.4756  6.18919e+21
18.5929  6.18208e+21
18.7102  6.17309e+21
18.8275  6.15745e+21
18.9449  6.13261e+21
19.0622  6.09655e+21
19.1795  6.04901e+21
19.2968  5.9914e+21
19.4141  5.92579e+21
19.5314  5.85547e+21
19.6487  5.78349e+21
19.766  5.71345e+21
19.8833  5.64873e+21
20.0006  5.59109e+21
20.1179  5.54253e+21
20.2352  5.50289e+21
20.3525  5.47169e+21
20.4698  5.44728e+21
20.5871  5.42673e+21
20.7044  5.40653e+21
20.8217  5.38331e+21
20.939  5.35349e+21
21.0563  5.31429e+21
21.1736  5.26354e+21
21.291  5.20007e+21
21.4083  5.12412e+21
21.5256  5.03782e+21
21.6429  4.94354e+21
21.7602  4.84485e+21
21.8775  4.7461e+21
21.9948  4.65107e+21
22.1121  4.56359e+21
22.2294  4.48669e+21
22.3467  4.42195e+21
22.464  4.37052e+21
22.5813  4.33173e+21
22.6986  4.30434e+21
22.8159  4.28573e+21
22.9332  4.27296e+21
23.0505  4.26271e+21
23.1678  4.25134e+21
23.2851  4.23578e+21
23.4024  4.21347e+21
23.5198  4.18224e+21
23.6371  4.1415e+21
23.7544  4.09125e+21
23.8717  4.03238e+21
23.989  3.96708e+21
24.1063  3.89766e+21
24.2236  3.82685e+21
24.3409  3.75697e+21
24.4582  3.6903e+21
24.5755  3.62865e+21
24.6928  3.57276e+21
24.8101  3.52323e+21
24.9274  3.47972e+21
25.0447  3.44195e+21
25.162  3.40906e+21
25.2793  3.37985e+21
25.3966  3.35336e+21
25.5139  3.32843e+21
25.6312  3.30415e+21
25.7485  3.27971e+21
25.8658  3.2543e+21
25.9832  3.22725e+21
26.1005  3.19783e+21
26.2178  3.16616e+21
26.3351  3.13178e+21
26.4524  3.09463e+21
26.5697  3.05476e+21
26.687  3.01204e+21
26.8043  2.96653e+21
26.9216  2.91839e+21
27.0389  2.86755e+21
27.1562  2.81457e+21
27.2735  2.75975e+21
27.3908  2.70391e+21
27.5081  2.64767e+21
27.6254  2.5919e+21
27.7427  2.53763e+21
27.86  2.48546e+21
27.9773  2.4361e+21
28.0946  2.39018e+21
28.212  2.3479e+21
28.3293  2.3097e+21
28.4466  2.27589e+21
28.5639  2.24642e+21
28.6812  2.22159e+21
28.7985  2.20129e+21
28.9158  2.18514e+21
29.0331  2.17253e+21
29.1504  2.16244e+21
29.2677  2.15389e+21
29.385  2.1455e+21
29.5023  2.13608e+21
29.6196  2.12496e+21
29.7369  2.1117e+21
29.8542  2.09652e+21
29.9715  2.07972e+21
30.0888  2.06238e+21
30.2061  2.04536e+21
30.3234  2.02966e+21
30.4407  2.01597e+21
30.558  2.00458e+21
30.6754  1.99529e+21
30.7927  1.98716e+21
30.91  1.97942e+21
31.0273  1.97061e+21
31.1446  1.95918e+21
31.2619  1.94372e+21
31.3792  1.92295e+21
31.4965  1.89591e+21
31.6138  1.8622e+21
31.7311  1.82186e+21
31.8484  1.77594e+21
31.9657  1.72562e+21
32.083  1.6729e+21
32.2003  1.61984e+21
32.3176  1.56858e+21
32.4349  1.52113e+21
32.5522  1.47876e+21
32.6695  1.44244e+21
32.7868  1.4124e+21
32.9042  1.38824e+21
33.0215  1.36933e+21
33.1388  1.35471e+21
33.2561  1.34331e+21
33.3734  1.33423e+21
33.4907  1.32665e+21
33.608  1.31993e+21
33.7253  1.31356e+21
33.8426  1.30709e+21
33.9599  1.30042e+21
34.0772  1.29336e+21
34.1945  1.28606e+21
34.3118  1.27873e+21
34.4291  1.27175e+21
34.5464  1.26551e+21
34.6637  1.26015e+21
34.781  1.25572e+21
34.8983  1.2517e+21
35.0156  1.24734e+21
35.1329  1.24149e+21
35.2503  1.23281e+21
35.3676  1.22004e+21
35.4849  1.20209e+21
35.6022  1.17868e+21
35.7195  1.14975e+21
35.8368  1.11585e+21
35.9541  1.07811e+21
36.0714  1.03778e+21
36.1887  9.96323e+20
36.306  9.55163e+20
36.4233  9.15373e+20
36.5406  8.78285e+20
36.6579  8.44738e+20
36.7752  8.15622e+20
36.8925  7.91527e+20
37.0098  7.72901e+20
37.1271  7.59894e+20
37.2444  7.52035e+20
37.3617  7.4854e+20
37.479  7.4812e+20
37.5964  7.49061e+20
37.7137  7.49792e+20
37.831  7.48677e+20
37.9483  7.44764e+20
38.0656  7.37546e+20
38.1829  7.2737e+20
38.3002  7.15297e+20
38.4175  7.02445e+20
38.5348  6.90316e+20
38.6521  6.80227e+20
38.7694  6.72974e+20
38.8867  6.68986e+20
39.004  6.67887e+20
39.1213  6.6918e+20
39.2386  6.71811e+20
39.3559  6.749e+20
39.4732  6.77555e+20
39.5905  6.79044e+20
39.7078  6.79048e+20
39.8251  6.77411e+20
39.9425  6.74056e+20
40.0598  6.69163e+20
40.1771  6.62991e+20
40.2944  6.55827e+20
40.4117  6.478e+20
40.529  6.39265e+20
40.6463  6.30309e+20
40.7636  6.21002e+20
40.8809  6.11528e+20
40.9982  6.0192e+20
41.1155  5.91926e+20
41.2328  5.81648e+20
41.3501  5.70896e+20
41.4674  5.59672e+20
41.5847  5.47866e+20
41.702  5.3563e+20
41.8193  5.23084e+20
41.9366  5.10384e+20
42.0539  4.97733e+20
42.1712  4.85351e+20
42.2885  4.73363e+20
42.4059  4.62013e+20
42.5232  4.5151e+20
42.6405  4.42145e+20
42.7578  4.34331e+20
42.8751  4.2848e+20
42.9924  4.25135e+20
43.1097  4.24398e+20
43.227  4.26473e+20
43.3443  4.31155e+20
43.4616  4.3789e+20
43.5789  4.46068e+20
43.6962  4.54766e+20
43.8135  4.63308e+20
43.9308  4.71094e+20
44.0481  4.77989e+20
44.1654  4.84211e+20
44.2827  4.90244e+20
44.4  4.96971e+20
44.5173  5.05312e+20
44.6347  5.15724e+20
44.752  5.28638e+20
44.8693  5.43833e+20
44.9866  5.60854e+20
45.1039  5.78526e+20
45.2212  5.95812e+20
45.3385  6.11189e+20
45.4558  6.2324e+20
45.5731  6.31032e+20
45.6904  6.33753e+20
45.8077  6.30846e+20
45.925  6.22537e+20
46.0423  6.09261e+20
46.1596  5.9207e+20
46.2769  5.72067e+20
46.3942  5.51077e+20
46.5115  5.30698e+20
46.6288  5.12713e+20
46.7461  4.98453e+20
46.8634  4.89051e+20
46.9808  4.8492e+20
47.0981  4.85536e+20
47.2154  4.90142e+20
47.3327  4.97011e+20
47.45  5.04577e+20
47.5673  5.10778e+20
47.6846  5.13904e+20
47.8019  5.12784e+20
47.9192  5.06735e+20
48.0365  4.95757e+20
48.1538  4.80322e+20
48.2711  4.61458e+20
48.3884  4.40566e+20
48.5057  4.19075e+20
48.623  3.98452e+20
48.7403  3.79831e+20
48.8576  3.64134e+20
48.9749  3.52031e+20
49.0922  3.43746e+20
49.2095  3.3924e+20
49.3269  3.38006e+20
49.4442  3.39489e+20
49.5615  3.42602e+20
49.6788  3.46771e+20
49.7961  3.5108e+20
49.9134  3.54976e+20
50.0307  3.58039e+20
50.148  3.60202e+20
50.2653  3.61687e+20
50.3826  3.62835e+20
50.4999  3.64256e+20
50.6172  3.66737e+20
50.7345  3.71069e+20
50.8518  3.78068e+20
