#S 1 spectral density
#N 2
#UFWHM 22.7572
#L  abscissas [um]  spectral density
-58.5938  7.70479e+19
-58.4764  7.14476e+19
-58.3591  6.56062e+19
-58.2418  5.95707e+19
-58.1245  5.33576e+19
-58.0072  4.71098e+19
-57.8899  4.11103e+19
-57.7726  3.56442e+19
-57.6553  3.10472e+19
-57.538  2.75593e+19
-57.4207  2.53095e+19
-57.3034  2.43303e+19
-57.1861  2.45716e+19
-57.0688  2.59942e+19
-56.9515  2.85099e+19
-56.8342  3.20818e+19
-56.7169  3.66102e+19
-56.5996  4.19152e+19
-56.4823  4.76679e+19
-56.365  5.33312e+19
-56.2477  5.83198e+19
-56.1303  6.19823e+19
-56.013  6.38899e+19
-55.8957  6.38903e+19
-55.7784  6.23034e+19
-55.6611  5.9831e+19
-55.5438  5.74441e+19
-55.4265  5.62895e+19
-55.3092  5.72163e+19
-55.1919  6.0734e+19
-55.0746  6.67379e+19
-54.9573  7.4592e+19
-54.84  8.31477e+19
-54.7227  9.10877e+19
-54.6054  9.71143e+19
-54.4881  1.00273e+20
-54.3708  1.00103e+20
-54.2535  9.66396e+19
-54.1362  9.04214e+19
-54.0189  8.21942e+19
-53.9016  7.28925e+19
-53.7842  6.33622e+19
-53.6669  5.42399e+19
-53.5496  4.5986e+19
-53.4323  3.88884e+19
-53.315  3.31362e+19
-53.1977  2.88745e+19
-53.0804  2.62474e+19
-52.9631  2.54026e+19
-52.8458  2.64322e+19
-52.7285  2.93576e+19
-52.6112  3.40554e+19
-52.4939  4.03127e+19
-52.3766  4.77907e+19
-52.2593  5.61679e+19
-52.142  6.5121e+19
-52.0247  7.43935e+19
-51.9074  8.37941e+19
-51.7901  9.31295e+19
-51.6728  1.02248e+20
-51.5555  1.10859e+20
-51.4381  1.18559e+20
-51.3208  1.24988e+20
-51.2035  1.29625e+20
-51.0862  1.32216e+20
-50.9689  1.32519e+20
-50.8516  1.30608e+20
-50.7343  1.26861e+20
-50.617  1.21806e+20
-50.4997  1.16074e+20
-50.3824  1.10388e+20
-50.2651  1.0525e+20
-50.1478  1.01132e+20
-50.0305  9.81289e+19
-49.9132  9.62897e+19
-49.7959  9.54201e+19
-49.6786  9.53648e+19
-49.5613  9.59338e+19
-49.444  9.71154e+19
-49.3267  9.902e+19
-49.2094  1.01932e+20
-49.092  1.06236e+20
-48.9747  1.12377e+20
-48.8574  1.20663e+20
-48.7401  1.31295e+20
-48.6228  1.44124e+20
-48.5055  1.58663e+20
-48.3882  1.7416e+20
-48.2709  1.89461e+20
-48.1536  2.033e+20
-48.0363  2.14403e+20
-47.919  2.21751e+20
-47.8017  2.24656e+20
-47.6844  2.22949e+20
-47.5671  2.17007e+20
-47.4498  2.07734e+20
-47.3325  1.96212e+20
-47.2152  1.83827e+20
-47.0979  1.71751e+20
-46.9806  1.60878e+20
-46.8633  1.51854e+20
-46.7459  1.44985e+20
-46.6286  1.4026e+20
-46.5113  1.37618e+20
-46.394  1.36946e+20
-46.2767  1.38287e+20
-46.1594  1.4167e+20
-46.0421  1.47151e+20
-45.9248  1.54627e+20
-45.8075  1.63763e+20
-45.6902  1.73802e+20
-45.5729  1.83752e+20
-45.4556  1.92229e+20
-45.3383  1.97958e+20
-45.221  1.99755e+20
-45.1037  1.96961e+20
-44.9864  1.89502e+20
-44.8691  1.78038e+20
-44.7518  1.63801e+20
-44.6345  1.4853e+20
-44.5172  1.34257e+20
-44.3998  1.22926e+20
-44.2825  1.16212e+20
-44.1652  1.15385e+20
-44.0479  1.21199e+20
-43.9306  1.338e+20
-43.8133  1.52808e+20
-43.696  1.77351e+20
-43.5787  2.06192e+20
-43.4614  2.3777e+20
-43.3441  2.70404e+20
-43.2268  3.02283e+20
-43.1095  3.31735e+20
-42.9922  3.57266e+20
-42.8749  3.77842e+20
-42.7576  3.9278e+20
-42.6403  4.02088e+20
-42.523  4.06053e+20
-42.4057  4.05567e+20
-42.2884  4.01592e+20
-42.171  3.95119e+20
-42.0537  3.87113e+20
-41.9364  3.78146e+20
-41.8191  3.68608e+20
-41.7018  3.58448e+20
-41.5845  3.47586e+20
-41.4672  3.35853e+20
-41.3499  3.23268e+20
-41.2326  3.09903e+20
-41.1153  2.96285e+20
-40.998  2.8312e+20
-40.8807  2.71154e+20
-40.7634  2.61324e+20
-40.6461  2.54341e+20
-40.5288  2.50843e+20
-40.4115  2.512e+20
-40.2942  2.55315e+20
-40.1769  2.62935e+20
-40.0596  2.73499e+20
-39.9423  2.86166e+20
-39.825  2.9988e+20
-39.7076  3.13448e+20
-39.5903  3.25871e+20
-39.473  3.36197e+20
-39.3557  3.43543e+20
-39.2384  3.47638e+20
-39.1211  3.48471e+20
-39.0038  3.4637e+20
-38.8865  3.42002e+20
-38.7692  3.3637e+20
-38.6519  3.30198e+20
-38.5346  3.24425e+20
-38.4173  3.19398e+20
-38.3  3.15565e+20
-38.1827  3.12847e+20
-38.0654  3.11084e+20
-37.9481  3.10042e+20
-37.8308  3.09367e+20
-37.7135  3.08798e+20
-37.5962  3.0815e+20
-37.4789  3.07094e+20
-37.3615  3.05425e+20
-37.2442  3.02755e+20
-37.1269  2.98922e+20
-37.0096  2.93771e+20
-36.8923  2.87392e+20
-36.775  2.80332e+20
-36.6577  2.7336e+20
-36.5404  2.67768e+20
-36.4231  2.64976e+20
-36.3058  2.66224e+20
-36.1885  2.72563e+20
-36.0712  2.84394e+20
-35.9539  3.01455e+20
-35.8366  3.22713e+20
-35.7193  3.46574e+20
-35.602  3.7103e+20
-35.4847  3.94311e+20
-35.3674  4.149e+20
-35.2501  4.31869e+20
-35.1328  4.44928e+20
-35.0154  4.54497e+20
-34.8981  4.6147e+20
-34.7808  4.67193e+20
-34.6635  4.728e+20
-34.5462  4.79447e+20
-34.4289  4.88093e+20
-34.3116  4.99009e+20
-34.1943  5.12129e+20
-34.077  5.26902e+20
-33.9597  5.42192e+20
-33.8424  5.56664e+20
-33.7251  5.68562e+20
-33.6078  5.7608e+20
-33.4905  5.77525e+20
-33.3732  5.71531e+20
-33.2559  5.5746e+20
-33.1386  5.35284e+20
-33.0213  5.06006e+20
-32.904  4.71496e+20
-32.7867  4.34119e+20
-32.6693  3.96571e+20
-32.552  3.61617e+20
-32.4347  3.31394e+20
-32.3174  3.07795e+20
-32.2001  2.91517e+20
-32.0828  2.82749e+20
-31.9655  2.80898e+20
-31.8482  2.85052e+20
-31.7309  2.94067e+20
-31.6136  3.06689e+20
-31.4963  3.21829e+20
-31.379  3.38649e+20
-31.2617  3.56469e+20
-31.1444  3.74798e+20
-31.0271  3.93084e+20
-30.9098  4.11323e+20
-30.7925  4.29021e+20
-30.6752  4.46163e+20
-30.5579  4.62677e+20
-30.4406  4.78321e+20
-30.3232  4.93078e+20
-30.2059  5.06424e+20
-30.0886  5.1806e+20
-29.9713  5.27574e+20
-29.854  5.34362e+20
-29.7367  5.37892e+20
-29.6194  5.38089e+20
-29.5021  5.34952e+20
-29.3848  5.28788e+20
-29.2675  5.20414e+20
-29.1502  5.10752e+20
-29.0329  5.00978e+20
-28.9156  4.92123e+20
-28.7983  4.85097e+20
-28.681  4.80689e+20
-28.5637  4.7935e+20
-28.4464  4.81323e+20
-28.3291  4.86621e+20
-28.2118  4.95128e+20
-28.0944  5.0663e+20
-27.9771  5.20857e+20
-27.8598  5.37468e+20
-27.7425  5.55978e+20
-27.6252  5.75932e+20
-27.5079  5.96975e+20
-27.3906  6.18781e+20
-27.2733  6.41247e+20
-27.156  6.6418e+20
-27.0387  6.87866e+20
-26.9214  7.12468e+20
-26.8041  7.38325e+20
-26.6868  7.65596e+20
-26.5695  7.94349e+20
-26.4522  8.24355e+20
-26.3349  8.55177e+20
-26.2176  8.86357e+20
-26.1003  9.16777e+20
-25.983  9.45687e+20
-25.8657  9.7209e+20
-25.7483  9.95167e+20
-25.631  1.01436e+21
-25.5137  1.02911e+21
-25.3964  1.03934e+21
-25.2791  1.04521e+21
-25.1618  1.04728e+21
-25.0445  1.04619e+21
-24.9272  1.04315e+21
-24.8099  1.03924e+21
-24.6926  1.03576e+21
-24.5753  1.03376e+21
-24.458  1.03401e+21
-24.3407  1.03681e+21
-24.2234  1.04232e+21
-24.1061  1.05005e+21
-23.9888  1.05962e+21
-23.8715  1.07055e+21
-23.7542  1.08277e+21
-23.6369  1.09646e+21
-23.5196  1.11235e+21
-23.4023  1.13157e+21
-23.2849  1.1555e+21
-23.1676  1.18536e+21
-23.0503  1.22231e+21
-22.933  1.26668e+21
-22.8157  1.31836e+21
-22.6984  1.37637e+21
-22.5811  1.43905e+21
-22.4638  1.50414e+21
-22.3465  1.56924e+21
-22.2292  1.63178e+21
-22.1119  1.68945e+21
-21.9946  1.74051e+21
-21.8773  1.78376e+21
-21.76  1.81895e+21
-21.6427  1.84671e+21
-21.5254  1.86841e+21
-21.4081  1.88654e+21
-21.2908  1.90401e+21
-21.1735  1.92413e+21
-21.0561  1.95041e+21
-20.9388  1.98579e+21
-20.8215  2.03261e+21
-20.7042  2.09238e+21
-20.5869  2.16494e+21
-20.4696  2.24952e+21
-20.3523  2.34391e+21
-20.235  2.44519e+21
-20.1177  2.54967e+21
-20.0004  2.65423e+21
-19.8831  2.75564e+21
-19.7658  2.85162e+21
-19.6485  2.94054e+21
-19.5312  3.02238e+21
-19.4139  3.09738e+21
-19.2966  3.16725e+21
-19.1793  3.23403e+21
-19.062  3.30022e+21
-18.9447  3.36801e+21
-18.8274  3.43955e+21
-18.71  3.51649e+21
-18.5927  3.59933e+21
-18.4754  3.68796e+21
-18.3581  3.78123e+21
-18.2408  3.87737e+21
-18.1235  3.97376e+21
-18.0062  4.06767e+21
-17.8889  4.156e+21
-17.7716  4.23697e+21
-17.6543  4.30884e+21
-17.537  4.3712e+21
-17.4197  4.42498e+21
-17.3024  4.47227e+21
-17.1851  4.51633e+21
-17.0678  4.56074e+21
-16.9505  4.60974e+21
-16.8332  4.66727e+21
-16.7159  4.73663e+21
-16.5986  4.82004e+21
-16.4813  4.9188e+21
-16.364  5.0327e+21
-16.2466  5.16037e+21
-16.1293  5.29909e+21
-16.012  5.44606e+21
-15.8947  5.59763e+21
-15.7774  5.75062e+21
-15.6601  5.90235e+21
-15.5428  6.05085e+21
-15.4255  6.19504e+21
-15.3082  6.33537e+21
-15.1909  6.47324e+21
-15.0736  6.6104e+21
-14.9563  6.74933e+21
-14.839  6.8925e+21
-14.7217  7.04137e+21
-14.6044  7.19673e+21
-14.4871  7.35832e+21
-14.3698  7.52416e+21
-14.2525  7.69091e+21
-14.1352  7.85444e+21
-14.0178  8.01086e+21
-13.9005  8.1555e+21
-13.7832  8.28497e+21
-13.6659  8.39681e+21
-13.5486  8.49051e+21
-13.4313  8.56681e+21
-13.314  8.62824e+21
-13.1967  8.67837e+21
-13.0794  8.72258e+21
-12.9621  8.76525e+21
-12.8448  8.81233e+21
-12.7275  8.8676e+21
-12.6102  8.93527e+21
-12.4929  9.01738e+21
-12.3756  9.11424e+21
-12.2583  9.22556e+21
-12.141  9.34903e+21
-12.0237  9.48081e+21
-11.9064  9.61639e+21
-11.7891  9.75118e+21
-11.6718  9.8804e+21
-11.5544  1.00008e+22
-11.4371  1.01103e+22
-11.3198  1.02079e+22
-11.2025  1.02953e+22
-11.0852  1.03762e+22
-10.9679  1.04555e+22
-10.8506  1.05401e+22
-10.7333  1.06367e+22
-10.616  1.0753e+22
-10.4987  1.0896e+22
-10.3814  1.10704e+22
-10.2641  1.12802e+22
-10.1468  1.15265e+22
-10.0295  1.1808e+22
-9.91217  1.212e+22
-9.79487  1.24563e+22
-9.67756  1.28075e+22
-9.56026  1.31633e+22
-9.44295  1.35114e+22
-9.32565  1.38417e+22
-9.20834  1.41433e+22
-9.09104  1.44076e+22
-8.97373  1.46292e+22
-8.85643  1.48049e+22
-8.73913  1.49342e+22
-8.62182  1.50204e+22
-8.50452  1.50684e+22
-8.38721  1.5086e+22
-8.26991  1.50798e+22
-8.1526  1.50596e+22
-8.03529  1.50319e+22
-7.91799  1.50046e+22
-7.80069  1.49827e+22
-7.68338  1.49697e+22
-7.56608  1.49686e+22
-7.44877  1.49796e+22
-7.33146  1.50021e+22
-7.21416  1.50337e+22
-7.09685  1.50722e+22
-6.97955  1.51148e+22
-6.86224  1.51591e+22
-6.74494  1.52042e+22
-6.62763  1.52475e+22
-6.51033  1.52901e+22
-6.39302  1.53326e+22
-6.27572  1.53769e+22
-6.15842  1.54257e+22
-6.04111  1.5482e+22
-5.92381  1.55485e+22
-5.8065  1.56293e+22
-5.68919  1.57263e+22
-5.57189  1.58422e+22
-5.45458  1.59783e+22
-5.33728  1.61356e+22
-5.21997  1.6313e+22
-5.10267  1.65096e+22
-4.98536  1.67224e+22
-4.86806  1.69478e+22
-4.75075  1.71815e+22
-4.63345  1.74192e+22
-4.51614  1.76554e+22
-4.39884  1.78854e+22
-4.28154  1.81058e+22
-4.16423  1.83126e+22
-4.04692  1.85033e+22
-3.92962  1.86766e+22
-3.81231  1.88323e+22
-3.69501  1.89709e+22
-3.5777  1.90934e+22
-3.4604  1.92021e+22
-3.34309  1.92991e+22
-3.22579  1.93867e+22
-3.10849  1.94676e+22
-2.99118  1.95438e+22
-2.87387  1.96176e+22
-2.75657  1.96902e+22
-2.63926  1.97626e+22
-2.52196  1.98348e+22
-2.40465  1.99062e+22
-2.28735  1.99749e+22
-2.17005  2.00393e+22
-2.05274  2.00972e+22
-1.93544  2.01445e+22
-1.81813  2.01793e+22
-1.70083  2.01984e+22
-1.58352  2.01996e+22
-1.46622  2.01815e+22
-1.34891  2.01441e+22
-1.2316  2.00875e+22
-1.1143  2.00147e+22
-0.996995  1.99283e+22
-0.87969  1.98333e+22
-0.762385  1.97334e+22
-0.64508  1.96355e+22
-0.527775  1.95442e+22
-0.41047  1.94644e+22
-0.293165  1.94003e+22
-0.17586  1.93554e+22
-0.058555  1.93323e+22
0.05875  1.9332e+22
0.176055  1.93543e+22
0.29336  1.93981e+22
0.410665  1.94615e+22
0.52797  1.95403e+22
0.645275  1.96308e+22
0.76258  1.97277e+22
0.879885  1.98262e+22
0.99719  1.99201e+22
1.1145  2.00051e+22
1.2318  2.00766e+22
1.3491  2.01318e+22
1.46641  2.01679e+22
1.58371  2.01842e+22
1.70102  2.01816e+22
1.81832  2.01609e+22
1.93563  2.01244e+22
2.05294  2.00751e+22
2.17024  2.00161e+22
2.28754  1.99501e+22
2.40485  1.98797e+22
2.52216  1.98067e+22
2.63946  1.9733e+22
2.75677  1.96586e+22
2.87407  1.95842e+22
2.99137  1.95082e+22
3.10868  1.94298e+22
3.22599  1.93466e+22
3.34329  1.92568e+22
3.4606  1.91577e+22
3.5779  1.90467e+22
3.69521  1.89215e+22
3.81251  1.8781e+22
3.92982  1.86227e+22
4.04712  1.84471e+22
4.16443  1.82545e+22
4.28173  1.80459e+22
4.39903  1.78241e+22
4.51634  1.75925e+22
4.63364  1.73557e+22
4.75095  1.71172e+22
4.86825  1.68829e+22
4.98556  1.66571e+22
5.10286  1.64443e+22
5.22017  1.62477e+22
5.33748  1.60702e+22
5.45478  1.59132e+22
5.57209  1.57776e+22
5.68939  1.56615e+22
5.8067  1.55646e+22
5.924  1.54839e+22
6.0413  1.54172e+22
6.15861  1.53607e+22
6.27591  1.53115e+22
6.39322  1.52669e+22
6.51052  1.52239e+22
6.62783  1.51807e+22
6.74514  1.51367e+22
6.86244  1.50919e+22
6.97975  1.50469e+22
7.09705  1.5004e+22
7.21436  1.49654e+22
7.33166  1.49335e+22
7.44897  1.49112e+22
7.56627  1.49002e+22
7.68358  1.4901e+22
7.80088  1.49134e+22
7.91819  1.49347e+22
8.03549  1.49617e+22
8.1528  1.49886e+22
8.2701  1.50077e+22
8.38741  1.5012e+22
8.50471  1.49931e+22
8.62202  1.49431e+22
8.73932  1.48547e+22
8.85662  1.47234e+22
8.97393  1.45461e+22
9.09123  1.43226e+22
9.20854  1.40569e+22
9.32584  1.37547e+22
9.44315  1.34236e+22
9.56045  1.30749e+22
9.67776  1.27198e+22
9.79506  1.23691e+22
9.91237  1.20339e+22
10.0297  1.1723e+22
10.147  1.1443e+22
10.2643  1.11982e+22
10.3816  1.09895e+22
10.4989  1.08164e+22
10.6162  1.06745e+22
10.7335  1.05588e+22
10.8508  1.04625e+22
10.9681  1.0378e+22
11.0854  1.02987e+22
11.2027  1.02177e+22
11.32  1.01298e+22
11.4373  1.00316e+22
11.5546  9.92189e+21
11.6719  9.80089e+21
11.7893  9.67147e+21
11.9066  9.53678e+21
12.0239  9.40105e+21
12.1412  9.26984e+21
12.2585  9.14711e+21
12.3758  9.03639e+21
12.4931  8.94013e+21
12.6104  8.85888e+21
12.7277  8.79222e+21
12.845  8.73775e+21
12.9623  8.69137e+21
13.0796  8.64922e+21
13.1969  8.60549e+21
13.3142  8.55566e+21
13.4315  8.49436e+21
13.5488  8.41814e+21
13.6661  8.32449e+21
13.7834  8.21241e+21
13.9007  8.08287e+21
14.018  7.93831e+21
14.1354  7.78191e+21
14.2527  7.61828e+21
14.37  7.45196e+21
14.4873  7.28641e+21
14.6046  7.12528e+21
14.7219  6.97021e+21
14.8392  6.82193e+21
14.9565  6.67939e+21
15.0738  6.54089e+21
15.1911  6.40446e+21
15.3084  6.26722e+21
15.4257  6.12738e+21
15.543  5.98384e+21
15.6603  5.83619e+21
15.7776  5.68553e+21
15.8949  5.53347e+21
16.0122  5.38302e+21
16.1295  5.23716e+21
16.2468  5.09949e+21
16.3641  4.97308e+21
16.4815  4.86039e+21
16.5988  4.76277e+21
16.7161  4.68003e+21
16.8334  4.61171e+21
16.9507  4.55486e+21
17.068  4.50648e+21
17.1853  4.4625e+21
17.3026  4.41896e+21
17.4199  4.37197e+21
17.5372  4.31849e+21
17.6545  4.25637e+21
17.7718  4.18506e+21
17.8891  4.10463e+21
18.0064  4.01689e+21
18.1237  3.92389e+21
18.241  3.82837e+21
18.3583  3.73324e+21
18.4756  3.64094e+21
18.5929  3.5533e+21
18.7102  3.47141e+21
18.8275  3.39551e+21
18.9449  3.32479e+21
19.0622  3.25785e+21
19.1795  3.19241e+21
19.2968  3.12621e+21
19.4141  3.05689e+21
19.5314  2.98247e+21
19.6487  2.9013e+21
19.766  2.81296e+21
19.8833  2.71775e+21
20.0006  2.61711e+21
20.1179  2.51343e+21
20.2352  2.40988e+21
20.3525  2.30983e+21
20.4698  2.21672e+21
20.5871  2.13342e+21
20.7044  2.06204e+21
20.8217  2.00354e+21
20.939  1.95782e+21
21.0563  1.9234e+21
21.1736  1.89797e+21
21.291  1.87851e+21
21.4083  1.86159e+21
21.5256  1.84397e+21
21.6429  1.82251e+21
21.7602  1.79514e+21
21.8775  1.76021e+21
21.9948  1.71727e+21
22.1121  1.66664e+21
22.2294  1.60934e+21
22.3467  1.54736e+21
22.464  1.48296e+21
22.5813  1.41852e+21
22.6986  1.35672e+21
22.8159  1.29957e+21
22.9332  1.24871e+21
23.0505  1.20514e+21
23.1678  1.16906e+21
23.2851  1.13992e+21
23.4024  1.11668e+21
23.5198  1.09801e+21
23.6371  1.08269e+21
23.7544  1.06944e+21
23.8717  1.05768e+21
23.989  1.04716e+21
24.1063  1.03804e+21
24.2236  1.0307e+21
24.3409  1.02565e+21
24.4582  1.02324e+21
24.5755  1.02343e+21
24.6928  1.02582e+21
24.8101  1.02966e+21
24.9274  1.03381e+21
25.0447  1.0371e+21
25.162  1.03842e+21
25.2793  1.03665e+21
25.3966  1.03093e+21
25.5139  1.02082e+21
25.6312  1.0062e+21
25.7485  9.87219e+20
25.8658  9.64303e+20
25.9832  9.38075e+20
26.1005  9.09381e+20
26.2178  8.79213e+20
26.3351  8.48427e+20
26.4524  8.17754e+20
26.5697  7.88047e+20
26.687  7.5959e+20
26.8043  7.3257e+20
26.9216  7.07083e+20
27.0389  6.82681e+20
27.1562  6.59262e+20
27.2735  6.36502e+20
27.3908  6.14351e+20
27.5081  5.92722e+20
27.6254  5.71893e+20
27.7427  5.5218e+20
27.86  5.33908e+20
27.9773  5.17543e+20
28.0946  5.03555e+20
28.212  4.92258e+20
28.3293  4.83982e+20
28.4466  4.78926e+20
28.5639  4.7719e+20
28.6812  4.78728e+20
28.7985  4.83356e+20
28.9158  4.90553e+20
29.0331  4.99554e+20
29.1504  5.09431e+20
29.2677  5.19181e+20
29.385  5.27577e+20
29.5023  5.33742e+20
29.6196  5.36848e+20
29.7369  5.36639e+20
29.8542  5.33068e+20
29.9715  5.26264e+20
30.0888  5.16813e+20
30.2061  5.05062e+20
30.3234  4.91667e+20
30.4407  4.77043e+20
30.558  4.61339e+20
30.6754  4.4496e+20
30.7927  4.27707e+20
30.91  4.10005e+20
31.0273  3.91894e+20
31.1446  3.73542e+20
31.2619  3.55304e+20
31.3792  3.37475e+20
31.4965  3.2071e+20
31.6138  3.05626e+20
31.7311  2.9307e+20
31.8484  2.84184e+20
31.9657  2.8019e+20
32.083  2.82221e+20
32.2003  2.91198e+20
32.3176  3.077e+20
32.4349  3.31536e+20
32.5522  3.61872e+20
32.6695  3.96937e+20
32.7868  4.34442e+20
32.9042  4.71769e+20
33.0215  5.06065e+20
33.1388  5.3512e+20
33.2561  5.56955e+20
33.3734  5.70773e+20
33.4907  5.76459e+20
33.608  5.74755e+20
33.7253  5.67103e+20
33.8426  5.55037e+20
33.9599  5.40562e+20
34.0772  5.25184e+20
34.1945  5.10452e+20
34.3118  4.97407e+20
34.4291  4.86574e+20
34.5464  4.78043e+20
34.6637  4.71324e+20
34.781  4.65755e+20
34.8983  4.60079e+20
35.0156  4.53034e+20
35.1329  4.43366e+20
35.2503  4.3018e+20
35.3676  4.13184e+20
35.4849  3.92461e+20
35.6022  3.69085e+20
35.7195  3.44587e+20
35.8368  3.20855e+20
35.9541  2.99674e+20
36.0714  2.82786e+20
36.1887  2.71081e+20
36.306  2.64845e+20
36.4233  2.63694e+20
36.5406  2.66593e+20
36.6579  2.72213e+20
36.7752  2.79166e+20
36.8925  2.862e+20
37.0098  2.92543e+20
37.1271  2.97637e+20
37.2444  3.0148e+20
37.3617  3.0414e+20
37.479  3.05829e+20
37.5964  3.06875e+20
37.7137  3.07576e+20
37.831  3.08134e+20
37.9483  3.0881e+20
38.0656  3.09844e+20
38.1829  3.11607e+20
38.3002  3.14322e+20
38.4175  3.18178e+20
38.5348  3.23197e+20
38.6521  3.28989e+20
38.7694  3.35137e+20
38.8867  3.40785e+20
39.004  3.4509e+20
39.1213  3.4713e+20
39.2386  3.46233e+20
39.3559  3.42077e+20
39.4732  3.34651e+20
39.5905  3.24372e+20
39.7078  3.11948e+20
39.8251  2.98317e+20
39.9425  2.84645e+20
40.0598  2.72068e+20
40.1771  2.61613e+20
40.2944  2.54056e+20
40.4117  2.50014e+20
40.529  2.49793e+20
40.6463  2.53364e+20
40.7636  2.60429e+20
40.8809  2.70301e+20
40.9982  2.82253e+20
41.1155  2.95496e+20
41.2328  3.09121e+20
41.3501  3.22406e+20
41.4674  3.34999e+20
41.5847  3.46722e+20
41.702  3.57516e+20
41.8193  3.67647e+20
41.9366  3.77189e+20
42.0539  3.86123e+20
42.1712  3.94068e+20
42.2885  4.00429e+20
42.4059  4.04321e+20
42.5232  4.04631e+20
42.6405  4.005e+20
42.7578  3.90996e+20
42.8751  3.75875e+20
42.9924  3.55154e+20
43.1097  3.2949e+20
43.227  3.00014e+20
43.3443  2.68156e+20
43.4616  2.35639e+20
43.5789  2.04217e+20
43.6962  1.75579e+20
43.8135  1.51269e+20
43.9308  1.32513e+20
44.0481  1.20161e+20
44.1654  1.14563e+20
44.2827  1.15581e+20
44.4  1.2243e+20
44.5173  1.33852e+20
44.6347  1.48152e+20
44.752  1.63327e+20
44.8693  1.77457e+20
44.9866  1.88806e+20
45.1039  1.96093e+20
45.2212  1.9871e+20
45.3385  1.96804e+20
45.4558  1.9102e+20
45.5731  1.825e+20
45.6904  1.72622e+20
45.8077  1.62656e+20
45.925  1.53637e+20
46.0423  1.46281e+20
46.1596  1.40937e+20
46.2769  1.37678e+20
46.3942  1.36431e+20
46.5115  1.372e+20
46.6288  1.39917e+20
46.7461  1.44717e+20
46.8634  1.51682e+20
46.9808  1.6075e+20
47.0981  1.7168e+20
47.2154  1.83782e+20
47.3327  1.96174e+20
47.45  2.07587e+20
47.5673  2.16749e+20
47.6846  2.22575e+20
47.8019  2.24094e+20
47.9192  2.21045e+20
48.0365  2.13547e+20
48.1538  2.0232e+20
48.2711  1.88437e+20
48.3884  1.73125e+20
48.5057  1.57691e+20
48.623  1.43167e+20
48.7403  1.30426e+20
48.8576  1.19879e+20
48.9749  1.11651e+20
49.0922  1.05588e+20
49.2095  1.01355e+20
49.3269  9.84626e+19
49.4442  9.65777e+19
49.5615  9.5414e+19
49.6788  9.48589e+19
49.7961  9.4936e+19
49.9134  9.58436e+19
50.0307  9.77432e+19
50.148  1.00754e+20
50.2653  1.04947e+20
50.3826  1.10093e+20
50.4999  1.15814e+20
50.6172  1.21519e+20
50.7345  1.26564e+20
50.8518  1.30254e+20
