#S 1 spectral density
#N 2
#UFWHM 22.8745
#L  abscissas [um]  spectral density
-58.5938  8.33693e+19
-58.4764  7.71991e+19
-58.3591  7.03551e+19
-58.2418  6.29902e+19
-58.1245  5.55366e+19
-58.0072  4.87015e+19
-57.8899  4.33221e+19
-57.7726  4.02064e+19
-57.6553  3.99275e+19
-57.538  4.27113e+19
-57.4207  4.83107e+19
-57.3034  5.60784e+19
-57.1861  6.51601e+19
-57.0688  7.46318e+19
-56.9515  8.37458e+19
-56.8342  9.20092e+19
-56.7169  9.92374e+19
-56.5996  1.05539e+20
-56.4823  1.11123e+20
-56.365  1.16126e+20
-56.2477  1.20615e+20
-56.1303  1.24289e+20
-56.013  1.26875e+20
-55.8957  1.27902e+20
-55.7784  1.27061e+20
-55.6611  1.24194e+20
-55.5438  1.194e+20
-55.4265  1.13174e+20
-55.3092  1.06003e+20
-55.1919  9.85425e+19
-55.0746  9.14123e+19
-54.9573  8.50437e+19
-54.84  7.98464e+19
-54.7227  7.59415e+19
-54.6054  7.35446e+19
-54.4881  7.27044e+19
-54.3708  7.35024e+19
-54.2535  7.59291e+19
-54.1362  7.9835e+19
-54.0189  8.49103e+19
-53.9016  9.06619e+19
-53.7842  9.64055e+19
-53.6669  1.0146e+20
-53.5496  1.0515e+20
-53.4323  1.07112e+20
-53.315  1.07267e+20
-53.1977  1.05893e+20
-53.0804  1.03644e+20
-52.9631  1.01262e+20
-52.8458  9.95263e+19
-52.7285  9.90723e+19
-52.6112  1.002e+20
-52.4939  1.02952e+20
-52.3766  1.07009e+20
-52.2593  1.11982e+20
-52.142  1.17437e+20
-52.0247  1.22958e+20
-51.9074  1.28388e+20
-51.7901  1.33615e+20
-51.6728  1.38756e+20
-51.5555  1.43845e+20
-51.4381  1.48917e+20
-51.3208  1.53911e+20
-51.2035  1.58576e+20
-51.0862  1.62694e+20
-50.9689  1.65964e+20
-50.8516  1.68187e+20
-50.7343  1.69342e+20
-50.617  1.69522e+20
-50.4997  1.69024e+20
-50.3824  1.68281e+20
-50.2651  1.67786e+20
-50.1478  1.6805e+20
-50.0305  1.69524e+20
-49.9132  1.72571e+20
-49.7959  1.77366e+20
-49.6786  1.84014e+20
-49.5613  1.92392e+20
-49.444  2.02254e+20
-49.3267  2.13275e+20
-49.2094  2.25065e+20
-49.092  2.37136e+20
-48.9747  2.49125e+20
-48.8574  2.60637e+20
-48.7401  2.71428e+20
-48.6228  2.81211e+20
-48.5055  2.89797e+20
-48.3882  2.96944e+20
-48.2709  3.0238e+20
-48.1536  3.05788e+20
-48.0363  3.06743e+20
-47.919  3.04998e+20
-47.8017  3.00299e+20
-47.6844  2.92639e+20
-47.5671  2.82187e+20
-47.4498  2.69354e+20
-47.3325  2.54762e+20
-47.2152  2.39098e+20
-47.0979  2.23076e+20
-46.9806  2.07202e+20
-46.8633  1.91927e+20
-46.7459  1.7764e+20
-46.6286  1.64536e+20
-46.5113  1.52874e+20
-46.394  1.42945e+20
-46.2767  1.35202e+20
-46.1594  1.30098e+20
-46.0421  1.28162e+20
-45.9248  1.29741e+20
-45.8075  1.35013e+20
-45.6902  1.43796e+20
-45.5729  1.55587e+20
-45.4556  1.69536e+20
-45.3383  1.84661e+20
-45.221  1.9983e+20
-45.1037  2.1411e+20
-44.9864  2.26641e+20
-44.8691  2.36968e+20
-44.7518  2.44807e+20
-44.6345  2.50197e+20
-44.5172  2.53341e+20
-44.3998  2.54555e+20
-44.2825  2.54354e+20
-44.1652  2.53325e+20
-44.0479  2.52164e+20
-43.9306  2.51728e+20
-43.8133  2.52876e+20
-43.696  2.56406e+20
-43.5787  2.63013e+20
-43.4614  2.73047e+20
-43.3441  2.86398e+20
-43.2268  3.02441e+20
-43.1095  3.20034e+20
-42.9922  3.37724e+20
-42.8749  3.53884e+20
-42.7576  3.66921e+20
-42.6403  3.75751e+20
-42.523  3.79606e+20
-42.4057  3.78607e+20
-42.2884  3.73348e+20
-42.171  3.64885e+20
-42.0537  3.54717e+20
-41.9364  3.44225e+20
-41.8191  3.34784e+20
-41.7018  3.27262e+20
-41.5845  3.22153e+20
-41.4672  3.19512e+20
-41.3499  3.18919e+20
-41.2326  3.19677e+20
-41.1153  3.21021e+20
-40.998  3.22193e+20
-40.8807  3.22557e+20
-40.7634  3.21868e+20
-40.6461  3.20215e+20
-40.5288  3.18117e+20
-40.4115  3.16374e+20
-40.2942  3.15876e+20
-40.1769  3.17695e+20
-40.0596  3.22628e+20
-39.9423  3.31091e+20
-39.825  3.42907e+20
-39.7076  3.57343e+20
-39.5903  3.73191e+20
-39.473  3.88917e+20
-39.3557  4.0257e+20
-39.2384  4.12584e+20
-39.1211  4.17723e+20
-39.0038  4.17073e+20
-38.8865  4.10495e+20
-38.7692  3.98509e+20
-38.6519  3.81819e+20
-38.5346  3.61785e+20
-38.4173  3.39567e+20
-38.3  3.16667e+20
-38.1827  2.94242e+20
-38.0654  2.7343e+20
-37.9481  2.5525e+20
-37.8308  2.40409e+20
-37.7135  2.29507e+20
-37.5962  2.22876e+20
-37.4789  2.20402e+20
-37.3615  2.21628e+20
-37.2442  2.25716e+20
-37.1269  2.31588e+20
-37.0096  2.38108e+20
-36.8923  2.4419e+20
-36.775  2.4917e+20
-36.6577  2.52782e+20
-36.5404  2.55524e+20
-36.4231  2.58259e+20
-36.3058  2.62079e+20
-36.1885  2.68255e+20
-36.0712  2.7779e+20
-35.9539  2.9125e+20
-35.8366  3.08679e+20
-35.7193  3.29407e+20
-35.602  3.52455e+20
-35.4847  3.76607e+20
-35.3674  4.00568e+20
-35.2501  4.23179e+20
-35.1328  4.43445e+20
-35.0154  4.60714e+20
-34.8981  4.74411e+20
-34.7808  4.84451e+20
-34.6635  4.90748e+20
-34.5462  4.93524e+20
-34.4289  4.9349e+20
-34.3116  4.91408e+20
-34.1943  4.88529e+20
-34.077  4.86176e+20
-33.9597  4.85695e+20
-33.8424  4.8832e+20
-33.7251  4.94727e+20
-33.6078  5.04932e+20
-33.4905  5.18258e+20
-33.3732  5.33339e+20
-33.2559  5.48333e+20
-33.1386  5.61179e+20
-33.0213  5.69957e+20
-32.904  5.73316e+20
-32.7867  5.70489e+20
-32.6693  5.6143e+20
-32.552  5.47071e+20
-32.4347  5.28603e+20
-32.3174  5.08127e+20
-32.2001  4.87535e+20
-32.0828  4.68977e+20
-31.9655  4.5429e+20
-31.8482  4.45041e+20
-31.7309  4.42265e+20
-31.6136  4.46417e+20
-31.4963  4.57313e+20
-31.379  4.74211e+20
-31.2617  4.95853e+20
-31.1444  5.20486e+20
-31.0271  5.4606e+20
-30.9098  5.70998e+20
-30.7925  5.933e+20
-30.6752  6.1188e+20
-30.5579  6.26098e+20
-30.4406  6.35845e+20
-30.3232  6.41626e+20
-30.2059  6.43972e+20
-30.0886  6.4387e+20
-29.9713  6.42377e+20
-29.854  6.40138e+20
-29.7367  6.37624e+20
-29.6194  6.35335e+20
-29.5021  6.33351e+20
-29.3848  6.31582e+20
-29.2675  6.29991e+20
-29.1502  6.28371e+20
-29.0329  6.26622e+20
-28.9156  6.24492e+20
-28.7983  6.21896e+20
-28.681  6.18938e+20
-28.5637  6.15813e+20
-28.4464  6.12995e+20
-28.3291  6.11193e+20
-28.2118  6.11255e+20
-28.0944  6.14206e+20
-27.9771  6.21019e+20
-27.8598  6.32525e+20
-27.7425  6.49156e+20
-27.6252  6.70978e+20
-27.5079  6.97833e+20
-27.3906  7.29053e+20
-27.2733  7.63933e+20
-27.156  8.01305e+20
-27.0387  8.40349e+20
-26.9214  8.80109e+20
-26.8041  9.19779e+20
-26.6868  9.58594e+20
-26.5695  9.95899e+20
-26.4522  1.03106e+21
-26.3349  1.06358e+21
-26.2176  1.09296e+21
-26.1003  1.11855e+21
-25.983  1.14008e+21
-25.8657  1.15711e+21
-25.7483  1.16952e+21
-25.631  1.17742e+21
-25.5137  1.18101e+21
-25.3964  1.18095e+21
-25.2791  1.17817e+21
-25.1618  1.17411e+21
-25.0445  1.17039e+21
-24.9272  1.16925e+21
-24.8099  1.17285e+21
-24.6926  1.18359e+21
-24.5753  1.20329e+21
-24.458  1.23338e+21
-24.3407  1.27413e+21
-24.2234  1.32513e+21
-24.1061  1.38449e+21
-23.9888  1.44964e+21
-23.8715  1.5172e+21
-23.7542  1.58364e+21
-23.6369  1.64536e+21
-23.5196  1.69948e+21
-23.4023  1.74397e+21
-23.2849  1.77796e+21
-23.1676  1.8018e+21
-23.0503  1.81714e+21
-22.933  1.82662e+21
-22.8157  1.83367e+21
-22.6984  1.8422e+21
-22.5811  1.85601e+21
-22.4638  1.87866e+21
-22.3465  1.91302e+21
-22.2292  1.9607e+21
-22.1119  2.02206e+21
-21.9946  2.09627e+21
-21.8773  2.18092e+21
-21.76  2.27268e+21
-21.6427  2.36744e+21
-21.5254  2.46076e+21
-21.4081  2.54873e+21
-21.2908  2.62796e+21
-21.1735  2.69635e+21
-21.0561  2.75318e+21
-20.9388  2.79894e+21
-20.8215  2.83539e+21
-20.7042  2.86561e+21
-20.5869  2.89259e+21
-20.4696  2.92021e+21
-20.3523  2.95184e+21
-20.235  2.99029e+21
-20.1177  3.03739e+21
-20.0004  3.09461e+21
-19.8831  3.16205e+21
-19.7658  3.23921e+21
-19.6485  3.32448e+21
-19.5312  3.41623e+21
-19.4139  3.5118e+21
-19.2966  3.60905e+21
-19.1793  3.70572e+21
-19.062  3.80006e+21
-18.9447  3.8906e+21
-18.8274  3.97674e+21
-18.71  4.05878e+21
-18.5927  4.13723e+21
-18.4754  4.21322e+21
-18.3581  4.28818e+21
-18.2408  4.36359e+21
-18.1235  4.44046e+21
-18.0062  4.51952e+21
-17.8889  4.60066e+21
-17.7716  4.68377e+21
-17.6543  4.76782e+21
-17.537  4.85157e+21
-17.4197  4.93379e+21
-17.3024  5.01353e+21
-17.1851  5.09021e+21
-17.0678  5.16372e+21
-16.9505  5.2349e+21
-16.8332  5.30551e+21
-16.7159  5.37777e+21
-16.5986  5.4544e+21
-16.4813  5.53869e+21
-16.364  5.63377e+21
-16.2466  5.74226e+21
-16.1293  5.86581e+21
-16.012  6.00513e+21
-15.8947  6.15929e+21
-15.7774  6.32634e+21
-15.6601  6.50286e+21
-15.5428  6.68442e+21
-15.4255  6.86565e+21
-15.3082  7.04178e+21
-15.1909  7.20865e+21
-15.0736  7.36227e+21
-14.9563  7.50065e+21
-14.839  7.62344e+21
-14.7217  7.73111e+21
-14.6044  7.82565e+21
-14.4871  7.91048e+21
-14.3698  7.98881e+21
-14.2525  8.06396e+21
-14.1352  8.1387e+21
-14.0178  8.21596e+21
-13.9005  8.29673e+21
-13.7832  8.38136e+21
-13.6659  8.4692e+21
-13.5486  8.5587e+21
-13.4313  8.64755e+21
-13.314  8.73293e+21
-13.1967  8.81195e+21
-13.0794  8.88289e+21
-12.9621  8.94317e+21
-12.8448  8.9929e+21
-12.7275  9.032e+21
-12.6102  9.06317e+21
-12.4929  9.08945e+21
-12.3756  9.11491e+21
-12.2583  9.14496e+21
-12.141  9.18486e+21
-12.0237  9.23913e+21
-11.9064  9.31151e+21
-11.7891  9.40472e+21
-11.6718  9.51978e+21
-11.5544  9.65635e+21
-11.4371  9.81281e+21
-11.3198  9.98549e+21
-11.2025  1.01706e+22
-11.0852  1.03634e+22
-10.9679  1.05592e+22
-10.8506  1.07533e+22
-10.7333  1.09417e+22
-10.616  1.11211e+22
-10.4987  1.12903e+22
-10.3814  1.14477e+22
-10.2641  1.15945e+22
-10.1468  1.17328e+22
-10.0295  1.18656e+22
-9.91217  1.19963e+22
-9.79487  1.21294e+22
-9.67756  1.22684e+22
-9.56026  1.24168e+22
-9.44295  1.25767e+22
-9.32565  1.27505e+22
-9.20834  1.29379e+22
-9.09104  1.31381e+22
-8.97373  1.33503e+22
-8.85643  1.35717e+22
-8.73913  1.37991e+22
-8.62182  1.4029e+22
-8.50452  1.42575e+22
-8.38721  1.4481e+22
-8.26991  1.46942e+22
-8.1526  1.48939e+22
-8.03529  1.5075e+22
-7.91799  1.52342e+22
-7.80069  1.53679e+22
-7.68338  1.54729e+22
-7.56608  1.55481e+22
-7.44877  1.55922e+22
-7.33146  1.56055e+22
-7.21416  1.55891e+22
-7.09685  1.55455e+22
-6.97955  1.54783e+22
-6.86224  1.53927e+22
-6.74494  1.52954e+22
-6.62763  1.51919e+22
-6.51033  1.50903e+22
-6.39302  1.4998e+22
-6.27572  1.49221e+22
-6.15842  1.48693e+22
-6.04111  1.48452e+22
-5.92381  1.48538e+22
-5.8065  1.48988e+22
-5.68919  1.49801e+22
-5.57189  1.50975e+22
-5.45458  1.52483e+22
-5.33728  1.5429e+22
-5.21997  1.56339e+22
-5.10267  1.58569e+22
-4.98536  1.60911e+22
-4.86806  1.63299e+22
-4.75075  1.65671e+22
-4.63345  1.67979e+22
-4.51614  1.70181e+22
-4.39884  1.72256e+22
-4.28154  1.74209e+22
-4.16423  1.76044e+22
-4.04692  1.77789e+22
-3.92962  1.79471e+22
-3.81231  1.81125e+22
-3.69501  1.82777e+22
-3.5777  1.84435e+22
-3.4604  1.86097e+22
-3.34309  1.87743e+22
-3.22579  1.89327e+22
-3.10849  1.90795e+22
-2.99118  1.92077e+22
-2.87387  1.93105e+22
-2.75657  1.9381e+22
-2.63926  1.94136e+22
-2.52196  1.94045e+22
-2.40465  1.93526e+22
-2.28735  1.92589e+22
-2.17005  1.91279e+22
-2.05274  1.89674e+22
-1.93544  1.87854e+22
-1.81813  1.85941e+22
-1.70083  1.84044e+22
-1.58352  1.82279e+22
-1.46622  1.80754e+22
-1.34891  1.79551e+22
-1.2316  1.78728e+22
-1.1143  1.78319e+22
-0.996995  1.7831e+22
-0.87969  1.7867e+22
-0.762385  1.7932e+22
-0.64508  1.8018e+22
-0.527775  1.81136e+22
-0.41047  1.82072e+22
-0.293165  1.82883e+22
-0.17586  1.83477e+22
-0.058555  1.83789e+22
0.05875  1.83781e+22
0.176055  1.83452e+22
0.29336  1.8284e+22
0.410665  1.82015e+22
0.52797  1.81064e+22
0.645275  1.80099e+22
0.76258  1.7923e+22
0.879885  1.78571e+22
0.99719  1.78206e+22
1.1145  1.78209e+22
1.2318  1.78614e+22
1.3491  1.79432e+22
1.46641  1.80628e+22
1.58371  1.82145e+22
1.70102  1.83899e+22
1.81832  1.85783e+22
1.93563  1.87682e+22
2.05294  1.89481e+22
2.17024  1.91072e+22
2.28754  1.9236e+22
2.40485  1.93275e+22
2.52216  1.93773e+22
2.63946  1.93843e+22
2.75677  1.93495e+22
2.87407  1.9277e+22
2.99137  1.9172e+22
3.10868  1.90417e+22
3.22599  1.8893e+22
3.34329  1.87331e+22
3.4606  1.85672e+22
3.5779  1.83994e+22
3.69521  1.82319e+22
3.81251  1.80657e+22
3.92982  1.78985e+22
4.04712  1.77287e+22
4.16443  1.75532e+22
4.28173  1.73682e+22
4.39903  1.71718e+22
4.51634  1.6963e+22
4.63364  1.67422e+22
4.75095  1.65108e+22
4.86825  1.6273e+22
4.98556  1.60339e+22
5.10286  1.57996e+22
5.22017  1.55769e+22
5.33748  1.53725e+22
5.45478  1.51924e+22
5.57209  1.50424e+22
5.68939  1.49255e+22
5.8067  1.4845e+22
5.924  1.48009e+22
6.0413  1.47927e+22
6.15861  1.4817e+22
6.27591  1.48697e+22
6.39322  1.49456e+22
6.51052  1.50375e+22
6.62783  1.51381e+22
6.74514  1.52403e+22
6.86244  1.53368e+22
6.97975  1.54205e+22
7.09705  1.54858e+22
7.21436  1.55276e+22
7.33166  1.55421e+22
7.44897  1.5527e+22
7.56627  1.5481e+22
7.68358  1.54039e+22
7.80088  1.52969e+22
7.91819  1.51616e+22
8.03549  1.50013e+22
8.1528  1.48194e+22
8.2701  1.4619e+22
8.38741  1.44048e+22
8.50471  1.41813e+22
8.62202  1.39524e+22
8.73932  1.37222e+22
8.85662  1.3495e+22
8.97393  1.32738e+22
9.09123  1.30617e+22
9.20854  1.28614e+22
9.32584  1.26743e+22
9.44315  1.25004e+22
9.56045  1.234e+22
9.67776  1.21914e+22
9.79506  1.20517e+22
9.91237  1.19181e+22
10.0297  1.17865e+22
10.147  1.16531e+22
10.2643  1.15142e+22
10.3816  1.13664e+22
10.4989  1.12085e+22
10.6162  1.10393e+22
10.7335  1.08595e+22
10.8508  1.06713e+22
10.9681  1.04775e+22
11.0854  1.02826e+22
11.2027  1.00908e+22
11.32  9.90682e+21
11.4373  9.73531e+21
11.5546  9.58044e+21
11.6719  9.44511e+21
11.7893  9.33147e+21
11.9066  9.23962e+21
12.0239  9.16804e+21
12.1412  9.11483e+21
12.2585  9.07564e+21
12.3758  9.04583e+21
12.4931  9.02027e+21
12.6104  8.99384e+21
12.7277  8.9625e+21
12.845  8.92302e+21
12.9623  8.87276e+21
13.0796  8.81206e+21
13.1969  8.74088e+21
13.3142  8.66155e+21
13.4315  8.57594e+21
13.5488  8.48719e+21
13.6661  8.39792e+21
13.7834  8.31025e+21
13.9007  8.22593e+21
14.018  8.14579e+21
14.1354  8.06888e+21
14.2527  7.99432e+21
14.37  7.91976e+21
14.4873  7.8417e+21
14.6046  7.75719e+21
14.7219  7.66255e+21
14.8392  7.55513e+21
14.9565  7.43262e+21
15.0738  7.2941e+21
15.1911  7.14076e+21
15.3084  6.97415e+21
15.4257  6.79809e+21
15.543  6.61717e+21
15.6603  6.43626e+21
15.7776  6.26066e+21
15.8949  6.09428e+21
16.0122  5.94093e+21
16.1295  5.80243e+21
16.2468  5.67965e+21
16.3641  5.57202e+21
16.4815  5.47777e+21
16.5988  5.39424e+21
16.7161  5.31796e+21
16.8334  5.24654e+21
16.9507  5.17649e+21
17.068  5.10586e+21
17.1853  5.03286e+21
17.3026  4.95684e+21
17.4199  4.87771e+21
17.5372  4.79615e+21
17.6545  4.71287e+21
17.7718  4.62966e+21
17.8891  4.5472e+21
18.0064  4.46672e+21
18.1237  4.38842e+21
18.241  4.31217e+21
18.3583  4.23743e+21
18.4756  4.163e+21
18.5929  4.0875e+21
18.7102  4.00965e+21
18.8275  3.92822e+21
18.9449  3.84263e+21
19.0622  3.75285e+21
19.1795  3.65929e+21
19.2968  3.56338e+21
19.4141  3.46698e+21
19.5314  3.37236e+21
19.6487  3.2817e+21
19.766  3.19735e+21
19.8833  3.12132e+21
20.0006  3.05471e+21
20.1179  2.99833e+21
20.2352  2.95191e+21
20.3525  2.91417e+21
20.4698  2.8832e+21
20.5871  2.85598e+21
20.7044  2.82924e+21
20.8217  2.79934e+21
20.939  2.76302e+21
21.0563  2.71746e+21
21.1736  2.66089e+21
21.291  2.59287e+21
21.4083  2.514e+21
21.5256  2.42672e+21
21.6429  2.33408e+21
21.7602  2.24034e+21
21.8775  2.14965e+21
21.9948  2.06616e+21
22.1121  1.99319e+21
22.2294  1.9329e+21
22.3467  1.88636e+21
22.464  1.85308e+21
22.5813  1.83118e+21
22.6986  1.8181e+21
22.8159  1.81015e+21
22.9332  1.80341e+21
23.0505  1.79409e+21
23.1678  1.77894e+21
23.2851  1.75519e+21
23.4024  1.72127e+21
23.5198  1.67694e+21
23.6371  1.62314e+21
23.7544  1.56182e+21
23.8717  1.49597e+21
23.989  1.42906e+21
24.1063  1.36478e+21
24.2236  1.30636e+21
24.3409  1.2564e+21
24.4582  1.21662e+21
24.5755  1.18754e+21
24.6928  1.16872e+21
24.8101  1.1588e+21
24.9274  1.15582e+21
25.0447  1.1575e+21
25.162  1.16166e+21
25.2793  1.16615e+21
25.3966  1.16914e+21
25.5139  1.1694e+21
25.6312  1.1659e+21
25.7485  1.15813e+21
25.8658  1.1458e+21
25.9832  1.12883e+21
26.1005  1.10745e+21
26.2178  1.08204e+21
26.3351  1.05291e+21
26.4524  1.0205e+21
26.5697  9.85581e+20
26.687  9.48574e+20
26.8043  9.10045e+20
26.9216  8.70807e+20
27.0389  8.3141e+20
27.1562  7.92797e+20
27.2735  7.55782e+20
27.3908  7.21437e+20
27.5081  6.90647e+20
27.6254  6.64234e+20
27.7427  6.42871e+20
27.86  6.26661e+20
27.9773  6.15558e+20
28.0946  6.09072e+20
28.212  6.06398e+20
28.3293  6.0657e+20
28.4466  6.08582e+20
28.5639  6.11559e+20
28.6812  6.14793e+20
28.7985  6.17905e+20
28.9158  6.20645e+20
29.0331  6.229e+20
29.1504  6.24814e+20
29.2677  6.26617e+20
29.385  6.28378e+20
29.5023  6.30342e+20
29.6196  6.32508e+20
29.7369  6.3501e+20
29.8542  6.37688e+20
29.9715  6.40113e+20
30.0888  6.41786e+20
30.2061  6.41831e+20
30.3234  6.39469e+20
30.4407  6.33805e+20
30.558  6.23984e+20
30.6754  6.09719e+20
30.7927  5.90985e+20
30.91  5.68674e+20
31.0273  5.43862e+20
31.1446  5.1822e+20
31.2619  4.93775e+20
31.3792  4.72279e+20
31.4965  4.55593e+20
31.6138  4.44972e+20
31.7311  4.41055e+20
31.8484  4.44082e+20
31.9657  4.53563e+20
32.083  4.68426e+20
32.2003  4.87084e+20
32.3176  5.07719e+20
32.4349  5.28203e+20
32.5522  5.46519e+20
32.6695  5.6072e+20
32.7868  5.69529e+20
32.9042  5.72172e+20
33.0215  5.68548e+20
33.1388  5.59638e+20
33.2561  5.46619e+20
33.3734  5.31642e+20
33.4907  5.16567e+20
33.608  5.03317e+20
33.7253  4.9327e+20
33.8426  4.86968e+20
33.9599  4.84502e+20
34.0772  4.85027e+20
34.1945  4.87418e+20
34.3118  4.90317e+20
34.4291  4.92386e+20
34.5464  4.92431e+20
34.6637  4.89473e+20
34.781  4.83151e+20
34.8983  4.73052e+20
35.0156  4.59255e+20
35.1329  4.41979e+20
35.2503  4.21646e+20
35.3676  3.99106e+20
35.4849  3.75084e+20
35.6022  3.50942e+20
35.7195  3.27961e+20
35.8368  3.07385e+20
35.9541  2.90094e+20
36.0714  2.76757e+20
36.1887  2.67349e+20
36.306  2.61243e+20
36.4233  2.57438e+20
36.5406  2.54738e+20
36.6579  2.52006e+20
36.7752  2.483e+20
36.8925  2.43251e+20
37.0098  2.37154e+20
37.1271  2.30589e+20
37.2444  2.24745e+20
37.3617  2.20705e+20
37.479  2.19529e+20
37.5964  2.22086e+20
37.7137  2.28798e+20
37.831  2.39765e+20
37.9483  2.5463e+20
38.0656  2.72862e+20
38.1829  2.93683e+20
38.3002  3.16096e+20
38.4175  3.3902e+20
38.5348  3.61165e+20
38.6521  3.81148e+20
38.7694  3.97707e+20
38.8867  4.09596e+20
39.004  4.16019e+20
39.1213  4.16484e+20
39.2386  4.11246e+20
39.3559  4.0107e+20
39.4732  3.87309e+20
39.5905  3.71619e+20
39.7078  3.55766e+20
39.8251  3.41283e+20
39.9425  3.29504e+20
40.0598  3.21164e+20
40.1771  3.16283e+20
40.2944  3.14468e+20
40.4117  3.14934e+20
40.529  3.16724e+20
40.6463  3.18763e+20
40.7636  3.20404e+20
40.8809  3.21027e+20
40.9982  3.20601e+20
41.1155  3.19473e+20
41.2328  3.18173e+20
41.3501  3.17441e+20
41.4674  3.18104e+20
41.5847  3.20852e+20
41.702  3.26018e+20
41.8193  3.33576e+20
41.9366  3.43084e+20
42.0539  3.53572e+20
42.1712  3.63692e+20
42.2885  3.72004e+20
42.4059  3.77168e+20
42.5232  3.77968e+20
42.6405  3.73956e+20
42.7578  3.64957e+20
42.8751  3.51807e+20
42.9924  3.35606e+20
43.1097  3.1791e+20
43.227  3.00389e+20
43.3443  2.84454e+20
43.4616  2.7126e+20
43.5789  2.61366e+20
43.6962  2.54889e+20
43.8135  2.51424e+20
43.9308  2.50361e+20
44.0481  2.50841e+20
44.1654  2.51981e+20
44.2827  2.53029e+20
44.4  2.53193e+20
44.5173  2.5192e+20
44.6347  2.48759e+20
44.752  2.43315e+20
44.8693  2.35451e+20
44.9866  2.25114e+20
45.1039  2.12571e+20
45.2212  1.9832e+20
45.3385  1.83194e+20
45.4558  1.68181e+20
45.5731  1.54308e+20
45.6904  1.42645e+20
45.8077  1.34017e+20
45.925  1.28883e+20
46.0423  1.27407e+20
46.1596  1.29458e+20
46.2769  1.34636e+20
46.3942  1.42433e+20
46.5115  1.52405e+20
46.6288  1.64088e+20
46.7461  1.77231e+20
46.8634  1.91549e+20
46.9808  2.06832e+20
47.0981  2.22753e+20
47.2154  2.38796e+20
47.3327  2.54495e+20
47.45  2.69018e+20
47.5673  2.81774e+20
47.6846  2.92189e+20
47.8019  2.99775e+20
47.9192  3.04395e+20
48.0365  3.06029e+20
48.1538  3.04979e+20
48.2711  3.01527e+20
48.3884  2.96023e+20
48.5057  2.88828e+20
48.623  2.80143e+20
48.7403  2.70285e+20
48.8576  2.59425e+20
48.9749  2.47857e+20
49.0922  2.35862e+20
49.2095  2.23752e+20
49.3269  2.11981e+20
49.4442  2.00932e+20
49.5615  1.91119e+20
49.6788  1.82819e+20
49.7961  1.76245e+20
49.9134  1.71497e+20
50.0307  1.68555e+20
50.148  1.67128e+20
50.2653  1.66914e+20
50.3826  1.67439e+20
50.4999  1.68206e+20
50.6172  1.68699e+20
50.7345  1.68516e+20
50.8518  1.67348e+20
