#S 1 spectral density
#N 2
#UFWHM 35.1915
#L  abscissas [um]  spectral density
-58.5938  3.13407e+20
-58.4764  3.14719e+20
-58.3591  3.1376e+20
-58.2418  3.10902e+20
-58.1245  3.068e+20
-58.0072  3.02658e+20
-57.8899  2.99848e+20
-57.7726  2.99759e+20
-57.6553  3.03638e+20
-57.538  3.12281e+20
-57.4207  3.25841e+20
-57.3034  3.43879e+20
-57.1861  3.65419e+20
-57.0688  3.89044e+20
-56.9515  4.13251e+20
-56.8342  4.3649e+20
-56.7169  4.57431e+20
-56.5996  4.75101e+20
-56.4823  4.88704e+20
-56.365  4.97897e+20
-56.2477  5.02711e+20
-56.1303  5.03136e+20
-56.013  4.99768e+20
-55.8957  4.93301e+20
-55.7784  4.84856e+20
-55.6611  4.75517e+20
-55.5438  4.66533e+20
-55.4265  4.59084e+20
-55.3092  4.53904e+20
-55.1919  4.51443e+20
-55.0746  4.51477e+20
-54.9573  4.5325e+20
-54.84  4.55898e+20
-54.7227  4.58132e+20
-54.6054  4.58981e+20
-54.4881  4.57554e+20
-54.3708  4.5349e+20
-54.2535  4.47023e+20
-54.1362  4.38735e+20
-54.0189  4.29467e+20
-53.9016  4.20175e+20
-53.7842  4.12084e+20
-53.6669  4.05786e+20
-53.5496  4.02146e+20
-53.4323  4.01506e+20
-53.315  4.03996e+20
-53.1977  4.09514e+20
-53.0804  4.17622e+20
-52.9631  4.27624e+20
-52.8458  4.38601e+20
-52.7285  4.4944e+20
-52.6112  4.59039e+20
-52.4939  4.66494e+20
-52.3766  4.7123e+20
-52.2593  4.73141e+20
-52.142  4.72754e+20
-52.0247  4.71035e+20
-51.9074  4.69454e+20
-51.7901  4.69499e+20
-51.6728  4.72677e+20
-51.5555  4.80115e+20
-51.4381  4.92058e+20
-51.3208  5.0847e+20
-51.2035  5.28287e+20
-51.0862  5.50307e+20
-50.9689  5.7261e+20
-50.8516  5.93465e+20
-50.7343  6.11342e+20
-50.617  6.24899e+20
-50.4997  6.33253e+20
-50.3824  6.36064e+20
-50.2651  6.3335e+20
-50.1478  6.25765e+20
-50.0305  6.13895e+20
-49.9132  5.99022e+20
-49.7959  5.82122e+20
-49.6786  5.64426e+20
-49.5613  5.4693e+20
-49.444  5.30522e+20
-49.3267  5.15688e+20
-49.2094  5.02676e+20
-49.092  4.91579e+20
-48.9747  4.81918e+20
-48.8574  4.73306e+20
-48.7401  4.65326e+20
-48.6228  4.57525e+20
-48.5055  4.497e+20
-48.3882  4.41995e+20
-48.2709  4.3457e+20
-48.1536  4.27935e+20
-48.0363  4.22849e+20
-47.919  4.2006e+20
-47.8017  4.20533e+20
-47.6844  4.25011e+20
-47.5671  4.3419e+20
-47.4498  4.48515e+20
-47.3325  4.67926e+20
-47.2152  4.92037e+20
-47.0979  5.19846e+20
-46.9806  5.49992e+20
-46.8633  5.80721e+20
-46.7459  6.10028e+20
-46.6286  6.36127e+20
-46.5113  6.57212e+20
-46.394  6.72258e+20
-46.2767  6.80636e+20
-46.1594  6.8254e+20
-46.0421  6.78686e+20
-45.9248  6.70371e+20
-45.8075  6.58989e+20
-45.6902  6.46136e+20
-45.5729  6.33159e+20
-45.4556  6.21455e+20
-45.3383  6.11615e+20
-45.221  6.04478e+20
-45.1037  6.00093e+20
-44.9864  5.9864e+20
-44.8691  5.99723e+20
-44.7518  6.02858e+20
-44.6345  6.07339e+20
-44.5172  6.12466e+20
-44.3998  6.1736e+20
-44.2825  6.21179e+20
-44.1652  6.23136e+20
-44.0479  6.23066e+20
-43.9306  6.20871e+20
-43.8133  6.16947e+20
-43.696  6.12354e+20
-43.5787  6.08022e+20
-43.4614  6.0504e+20
-43.3441  6.04586e+20
-43.2268  6.0727e+20
-43.1095  6.13402e+20
-42.9922  6.22666e+20
-42.8749  6.34408e+20
-42.7576  6.47681e+20
-42.6403  6.61187e+20
-42.523  6.73872e+20
-42.4057  6.84525e+20
-42.2884  6.92418e+20
-42.171  6.97071e+20
-42.0537  6.98457e+20
-41.9364  6.96828e+20
-41.8191  6.92693e+20
-41.7018  6.86889e+20
-41.5845  6.80511e+20
-41.4672  6.74698e+20
-41.3499  6.70539e+20
-41.2326  6.6915e+20
-41.1153  6.71223e+20
-40.998  6.77173e+20
-40.8807  6.86985e+20
-40.7634  7.00226e+20
-40.6461  7.16037e+20
-40.5288  7.33342e+20
-40.4115  7.50886e+20
-40.2942  7.6778e+20
-40.1769  7.8278e+20
-40.0596  7.95141e+20
-39.9423  8.04505e+20
-39.825  8.10822e+20
-39.7076  8.14329e+20
-39.5903  8.15456e+20
-39.473  8.14857e+20
-39.3557  8.13625e+20
-39.2384  8.12618e+20
-39.1211  8.1284e+20
-39.0038  8.15417e+20
-38.8865  8.20926e+20
-38.7692  8.29735e+20
-38.6519  8.41858e+20
-38.5346  8.56676e+20
-38.4173  8.73222e+20
-38.3  8.9022e+20
-38.1827  9.0623e+20
-38.0654  9.20144e+20
-37.9481  9.30996e+20
-37.8308  9.38629e+20
-37.7135  9.43057e+20
-37.5962  9.44853e+20
-37.4789  9.44954e+20
-37.3615  9.44303e+20
-37.2442  9.43506e+20
-37.1269  9.43077e+20
-37.0096  9.43059e+20
-36.8923  9.43542e+20
-36.775  9.44321e+20
-36.6577  9.45332e+20
-36.5404  9.4669e+20
-36.4231  9.48658e+20
-36.3058  9.51532e+20
-36.1885  9.55746e+20
-36.0712  9.61291e+20
-35.9539  9.68166e+20
-35.8366  9.75775e+20
-35.7193  9.83566e+20
-35.602  9.91068e+20
-35.4847  9.97377e+20
-35.3674  1.00224e+21
-35.2501  1.0057e+21
-35.1328  1.00809e+21
-35.0154  1.0101e+21
-34.8981  1.01231e+21
-34.7808  1.01534e+21
-34.6635  1.01977e+21
-34.5462  1.02578e+21
-34.4289  1.03342e+21
-34.3116  1.04271e+21
-34.1943  1.05355e+21
-34.077  1.06604e+21
-33.9597  1.0804e+21
-33.8424  1.09688e+21
-33.7251  1.11594e+21
-33.6078  1.13791e+21
-33.4905  1.16293e+21
-33.3732  1.19112e+21
-33.2559  1.22236e+21
-33.1386  1.25654e+21
-33.0213  1.29333e+21
-32.904  1.33221e+21
-32.7867  1.37301e+21
-32.6693  1.41518e+21
-32.552  1.45818e+21
-32.4347  1.50135e+21
-32.3174  1.54379e+21
-32.2001  1.58481e+21
-32.0828  1.62357e+21
-31.9655  1.6595e+21
-31.8482  1.6921e+21
-31.7309  1.72132e+21
-31.6136  1.7473e+21
-31.4963  1.7704e+21
-31.379  1.79096e+21
-31.2617  1.80955e+21
-31.1444  1.82622e+21
-31.0271  1.84117e+21
-30.9098  1.85455e+21
-30.7925  1.86597e+21
-30.6752  1.87525e+21
-30.5579  1.88226e+21
-30.4406  1.88694e+21
-30.3232  1.8896e+21
-30.2059  1.89046e+21
-30.0886  1.89014e+21
-29.9713  1.88953e+21
-29.854  1.88963e+21
-29.7367  1.89152e+21
-29.6194  1.89657e+21
-29.5021  1.90598e+21
-29.3848  1.92082e+21
-29.2675  1.94208e+21
-29.1502  1.96987e+21
-29.0329  2.00412e+21
-28.9156  2.04397e+21
-28.7983  2.08801e+21
-28.681  2.13447e+21
-28.5637  2.18156e+21
-28.4464  2.22757e+21
-28.3291  2.27119e+21
-28.2118  2.31151e+21
-28.0944  2.34893e+21
-27.9771  2.38386e+21
-27.8598  2.41773e+21
-27.7425  2.45206e+21
-27.6252  2.48849e+21
-27.5079  2.52868e+21
-27.3906  2.57387e+21
-27.2733  2.62494e+21
-27.156  2.68203e+21
-27.0387  2.74464e+21
-26.9214  2.81198e+21
-26.8041  2.88202e+21
-26.6868  2.95273e+21
-26.5695  3.02136e+21
-26.4522  3.08503e+21
-26.3349  3.14102e+21
-26.2176  3.1872e+21
-26.1003  3.22167e+21
-25.983  3.24363e+21
-25.8657  3.2533e+21
-25.7483  3.25196e+21
-25.631  3.24206e+21
-25.5137  3.2265e+21
-25.3964  3.20875e+21
-25.2791  3.1926e+21
-25.1618  3.18161e+21
-25.0445  3.1785e+21
-24.9272  3.18578e+21
-24.8099  3.20442e+21
-24.6926  3.23472e+21
-24.5753  3.27607e+21
-24.458  3.32634e+21
-24.3407  3.38298e+21
-24.2234  3.44285e+21
-24.1061  3.50238e+21
-23.9888  3.55842e+21
-23.8715  3.6083e+21
-23.7542  3.6503e+21
-23.6369  3.68354e+21
-23.5196  3.7083e+21
-23.4023  3.72661e+21
-23.2849  3.74068e+21
-23.1676  3.75382e+21
-23.0503  3.76951e+21
-22.933  3.79098e+21
-22.8157  3.82136e+21
-22.6984  3.86294e+21
-22.5811  3.91722e+21
-22.4638  3.98478e+21
-22.3465  4.06489e+21
-22.2292  4.15646e+21
-22.1119  4.25689e+21
-21.9946  4.36355e+21
-21.8773  4.47268e+21
-21.76  4.58066e+21
-21.6427  4.6842e+21
-21.5254  4.78046e+21
-21.4081  4.86692e+21
-21.2908  4.9423e+21
-21.1735  5.00635e+21
-21.0561  5.05974e+21
-20.9388  5.1044e+21
-20.8215  5.14251e+21
-20.7042  5.17672e+21
-20.5869  5.20964e+21
-20.4696  5.24401e+21
-20.3523  5.28118e+21
-20.235  5.32268e+21
-20.1177  5.36851e+21
-20.0004  5.41847e+21
-19.8831  5.47211e+21
-19.7658  5.52775e+21
-19.6485  5.58413e+21
-19.5312  5.64001e+21
-19.4139  5.69405e+21
-19.2966  5.74575e+21
-19.1793  5.79464e+21
-19.062  5.84145e+21
-18.9447  5.88675e+21
-18.8274  5.93178e+21
-18.71  5.97854e+21
-18.5927  6.02844e+21
-18.4754  6.08294e+21
-18.3581  6.14339e+21
-18.2408  6.20975e+21
-18.1235  6.28212e+21
-18.0062  6.3593e+21
-17.8889  6.43968e+21
-17.7716  6.52143e+21
-17.6543  6.60177e+21
-17.537  6.67894e+21
-17.4197  6.75099e+21
-17.3024  6.81695e+21
-17.1851  6.87617e+21
-17.0678  6.9288e+21
-16.9505  6.97653e+21
-16.8332  7.02123e+21
-16.7159  7.06522e+21
-16.5986  7.11113e+21
-16.4813  7.16155e+21
-16.364  7.21878e+21
-16.2466  7.28475e+21
-16.1293  7.36067e+21
-16.012  7.44601e+21
-15.8947  7.53961e+21
-15.7774  7.63964e+21
-15.6601  7.74252e+21
-15.5428  7.84483e+21
-15.4255  7.94213e+21
-15.3082  8.03051e+21
-15.1909  8.10739e+21
-15.0736  8.16971e+21
-14.9563  8.21681e+21
-14.839  8.24904e+21
-14.7217  8.2682e+21
-14.6044  8.27707e+21
-14.4871  8.27943e+21
-14.3698  8.28001e+21
-14.2525  8.28313e+21
-14.1352  8.2927e+21
-14.0178  8.31306e+21
-13.9005  8.34675e+21
-13.7832  8.39524e+21
-13.6659  8.4595e+21
-13.5486  8.538e+21
-13.4313  8.62892e+21
-13.314  8.72877e+21
-13.1967  8.83328e+21
-13.0794  8.9383e+21
-12.9621  9.03836e+21
-12.8448  9.13e+21
-12.7275  9.20984e+21
-12.6102  9.2763e+21
-12.4929  9.32903e+21
-12.3756  9.36903e+21
-12.2583  9.39967e+21
-12.141  9.42472e+21
-12.0237  9.44877e+21
-11.9064  9.47635e+21
-11.7891  9.51168e+21
-11.6718  9.55829e+21
-11.5544  9.61846e+21
-11.4371  9.69388e+21
-11.3198  9.78295e+21
-11.2025  9.88432e+21
-11.0852  9.99468e+21
-10.9679  1.01096e+22
-10.8506  1.02242e+22
-10.7333  1.0333e+22
-10.616  1.04304e+22
-10.4987  1.05127e+22
-10.3814  1.05754e+22
-10.2641  1.06169e+22
-10.1468  1.06365e+22
-10.0295  1.06357e+22
-9.91217  1.0617e+22
-9.79487  1.05851e+22
-9.67756  1.05454e+22
-9.56026  1.05039e+22
-9.44295  1.04664e+22
-9.32565  1.04395e+22
-9.20834  1.04279e+22
-9.09104  1.04358e+22
-8.97373  1.04666e+22
-8.85643  1.05211e+22
-8.73913  1.05994e+22
-8.62182  1.06997e+22
-8.50452  1.0819e+22
-8.38721  1.09533e+22
-8.26991  1.10966e+22
-8.1526  1.1244e+22
-8.03529  1.13892e+22
-7.91799  1.15265e+22
-7.80069  1.16509e+22
-7.68338  1.1758e+22
-7.56608  1.18453e+22
-7.44877  1.19111e+22
-7.33146  1.19554e+22
-7.21416  1.1979e+22
-7.09685  1.19842e+22
-6.97955  1.19742e+22
-6.86224  1.19527e+22
-6.74494  1.19251e+22
-6.62763  1.18941e+22
-6.51033  1.18648e+22
-6.39302  1.18403e+22
-6.27572  1.18232e+22
-6.15842  1.18154e+22
-6.04111  1.18176e+22
-5.92381  1.18297e+22
-5.8065  1.18515e+22
-5.68919  1.1881e+22
-5.57189  1.19169e+22
-5.45458  1.19574e+22
-5.33728  1.20012e+22
-5.21997  1.20464e+22
-5.10267  1.20921e+22
-4.98536  1.21371e+22
-4.86806  1.21811e+22
-4.75075  1.22234e+22
-4.63345  1.22647e+22
-4.51614  1.2305e+22
-4.39884  1.23452e+22
-4.28154  1.23866e+22
-4.16423  1.243e+22
-4.04692  1.24767e+22
-3.92962  1.25272e+22
-3.81231  1.25824e+22
-3.69501  1.2642e+22
-3.5777  1.2705e+22
-3.4604  1.27706e+22
-3.34309  1.28366e+22
-3.22579  1.29005e+22
-3.10849  1.29598e+22
-2.99118  1.30118e+22
-2.87387  1.30546e+22
-2.75657  1.30858e+22
-2.63926  1.31047e+22
-2.52196  1.31105e+22
-2.40465  1.31035e+22
-2.28735  1.30848e+22
-2.17005  1.30558e+22
-2.05274  1.30199e+22
-1.93544  1.29785e+22
-1.81813  1.29357e+22
-1.70083  1.28941e+22
-1.58352  1.28567e+22
-1.46622  1.28261e+22
-1.34891  1.28046e+22
-1.2316  1.27936e+22
-1.1143  1.27941e+22
-0.996995  1.28054e+22
-0.87969  1.28269e+22
-0.762385  1.28562e+22
-0.64508  1.2891e+22
-0.527775  1.29277e+22
-0.41047  1.29628e+22
-0.293165  1.29926e+22
-0.17586  1.30143e+22
-0.058555  1.30255e+22
0.05875  1.3025e+22
0.176055  1.30127e+22
0.29336  1.29898e+22
0.410665  1.2959e+22
0.52797  1.2923e+22
0.645275  1.28855e+22
0.76258  1.28498e+22
0.879885  1.28197e+22
0.99719  1.27976e+22
1.1145  1.27854e+22
1.2318  1.27846e+22
1.3491  1.27951e+22
1.46641  1.2816e+22
1.58371  1.28458e+22
1.70102  1.28824e+22
1.81832  1.29236e+22
1.93563  1.29656e+22
2.05294  1.3006e+22
2.17024  1.30416e+22
2.28754  1.30695e+22
2.40485  1.30875e+22
2.52216  1.30936e+22
2.63946  1.30872e+22
2.75677  1.30676e+22
2.87407  1.30356e+22
2.99137  1.29922e+22
3.10868  1.29396e+22
3.22599  1.28797e+22
3.34329  1.28156e+22
3.4606  1.27495e+22
3.5779  1.26839e+22
3.69521  1.26206e+22
3.81251  1.2561e+22
3.92982  1.25057e+22
4.04712  1.24551e+22
4.16443  1.24084e+22
4.28173  1.23649e+22
4.39903  1.23232e+22
4.51634  1.22827e+22
4.63364  1.22422e+22
4.75095  1.22006e+22
4.86825  1.21576e+22
4.98556  1.2113e+22
5.10286  1.20674e+22
5.22017  1.20212e+22
5.33748  1.19753e+22
5.45478  1.19308e+22
5.57209  1.18897e+22
5.68939  1.18531e+22
5.8067  1.18231e+22
5.924  1.18011e+22
6.0413  1.17884e+22
6.15861  1.17858e+22
6.27591  1.17932e+22
6.39322  1.18098e+22
6.51052  1.18341e+22
6.62783  1.18627e+22
6.74514  1.18928e+22
6.86244  1.19202e+22
6.97975  1.19404e+22
7.09705  1.19495e+22
7.21436  1.19431e+22
7.33166  1.19185e+22
7.44897  1.18733e+22
7.56627  1.18065e+22
7.68358  1.1718e+22
7.80088  1.16099e+22
7.91819  1.14849e+22
8.03549  1.13472e+22
8.1528  1.1202e+22
8.2701  1.10547e+22
8.38741  1.09114e+22
8.50471  1.07778e+22
8.62202  1.06588e+22
8.73932  1.05591e+22
8.85662  1.04815e+22
8.97393  1.04276e+22
9.09123  1.03973e+22
9.20854  1.03895e+22
9.32584  1.04014e+22
9.44315  1.04282e+22
9.56045  1.0465e+22
9.67776  1.05058e+22
9.79506  1.05445e+22
9.91237  1.05752e+22
10.0297  1.05923e+22
10.147  1.05918e+22
10.2643  1.05709e+22
10.3816  1.05278e+22
10.4989  1.04639e+22
10.6162  1.03808e+22
10.7335  1.02823e+22
10.8508  1.0173e+22
10.9681  1.00582e+22
11.0854  9.94339e+21
11.2027  9.83342e+21
11.32  9.73218e+21
11.4373  9.64352e+21
11.5546  9.56903e+21
11.6719  9.50909e+21
11.7893  9.46306e+21
11.9066  9.42781e+21
12.0239  9.40042e+21
12.1412  9.37654e+21
12.2585  9.35115e+21
12.3758  9.31995e+21
12.4931  9.27911e+21
12.6104  9.22577e+21
12.7277  9.15865e+21
12.845  9.07833e+21
12.9623  8.9859e+21
13.0796  8.88531e+21
13.1969  8.78032e+21
13.3142  8.67554e+21
13.4315  8.5757e+21
13.5488  8.48509e+21
13.6661  8.40699e+21
13.7834  8.34326e+21
13.9007  8.2951e+21
14.018  8.26234e+21
14.1354  8.24243e+21
14.2527  8.23318e+21
14.37  8.23049e+21
14.4873  8.23018e+21
14.6046  8.22787e+21
14.7219  8.21891e+21
14.8392  8.19988e+21
14.9565  8.16748e+21
15.0738  8.11997e+21
15.1911  8.0574e+21
15.3084  7.98035e+21
15.4257  7.89148e+21
15.543  7.79384e+21
15.6603  7.69141e+21
15.7776  7.58854e+21
15.8949  7.48868e+21
16.0122  7.39476e+21
16.1295  7.30945e+21
16.2468  7.23375e+21
16.3641  7.16767e+21
16.4815  7.11049e+21
16.5988  7.05994e+21
16.7161  7.01388e+21
16.8334  6.97001e+21
16.9507  6.92513e+21
17.068  6.87712e+21
17.1853  6.82415e+21
17.3026  6.76473e+21
17.4199  6.69875e+21
17.5372  6.62676e+21
17.6545  6.54932e+21
17.7718  6.46904e+21
17.8891  6.38755e+21
18.0064  6.30736e+21
18.1237  6.2303e+21
18.241  6.15836e+21
18.3583  6.09227e+21
18.4756  6.03228e+21
18.5929  5.97803e+21
18.7102  5.92875e+21
18.8275  5.88231e+21
18.9449  5.83766e+21
19.0622  5.79275e+21
19.1795  5.74633e+21
19.2968  5.69774e+21
19.4141  5.64648e+21
19.5314  5.59296e+21
19.6487  5.53751e+21
19.766  5.4814e+21
19.8833  5.42624e+21
20.0006  5.3729e+21
20.1179  5.32309e+21
20.2352  5.27729e+21
20.3525  5.23596e+21
20.4698  5.19889e+21
20.5871  5.16472e+21
20.7044  5.13146e+21
20.8217  5.09697e+21
20.939  5.05861e+21
21.0563  5.01377e+21
21.1736  4.96017e+21
21.291  4.89604e+21
21.4083  4.82048e+21
21.5256  4.73435e+21
21.6429  4.63844e+21
21.7602  4.53522e+21
21.8775  4.42782e+21
21.9948  4.3194e+21
22.1121  4.21376e+21
22.2294  4.1144e+21
22.3467  4.02371e+21
22.464  3.94457e+21
22.5813  3.87795e+21
22.6986  3.82454e+21
22.8159  3.78366e+21
22.9332  3.75388e+21
23.0505  3.73283e+21
23.1678  3.71746e+21
23.2851  3.70446e+21
23.4024  3.69053e+21
23.5198  3.67218e+21
23.6371  3.64725e+21
23.7544  3.614e+21
23.8717  3.57197e+21
23.989  3.52206e+21
24.1063  3.46611e+21
24.2236  3.4069e+21
24.3409  3.3474e+21
24.4582  3.29112e+21
24.5755  3.24142e+21
24.6928  3.20056e+21
24.8101  3.17065e+21
24.9274  3.15229e+21
25.0447  3.14546e+21
25.162  3.14887e+21
25.2793  3.16018e+21
25.3966  3.17631e+21
25.5139  3.19391e+21
25.6312  3.20928e+21
25.7485  3.219e+21
25.8658  3.22007e+21
25.9832  3.21019e+21
26.1005  3.18798e+21
26.2178  3.15355e+21
26.3351  3.10746e+21
26.4524  3.05146e+21
26.5697  2.98806e+21
26.687  2.91989e+21
26.8043  2.84973e+21
26.9216  2.78038e+21
27.0389  2.71372e+21
27.1562  2.65178e+21
27.2735  2.59538e+21
27.3908  2.54504e+21
27.5081  2.5005e+21
27.6254  2.46084e+21
27.7427  2.42492e+21
27.86  2.39101e+21
27.9773  2.35751e+21
28.0946  2.32288e+21
28.212  2.28574e+21
28.3293  2.24552e+21
28.4466  2.20225e+21
28.5639  2.15649e+21
28.6812  2.10973e+21
28.7985  2.0636e+21
28.9158  2.02001e+21
29.0331  1.98066e+21
29.1504  1.94687e+21
29.2677  1.91961e+21
29.385  1.89889e+21
29.5023  1.88446e+21
29.6196  1.87541e+21
29.7369  1.87073e+21
29.8542  1.86923e+21
29.9715  1.86947e+21
30.0888  1.87035e+21
30.2061  1.87083e+21
30.3234  1.87009e+21
30.4407  1.86764e+21
30.558  1.8631e+21
30.6754  1.85621e+21
30.7927  1.84698e+21
30.91  1.83571e+21
31.0273  1.82254e+21
31.1446  1.8075e+21
31.2619  1.7909e+21
31.3792  1.77246e+21
31.4965  1.75195e+21
31.6138  1.729e+21
31.7311  1.7031e+21
31.8484  1.67406e+21
31.9657  1.64159e+21
32.083  1.60596e+21
32.2003  1.56749e+21
32.3176  1.5268e+21
32.4349  1.48482e+21
32.5522  1.44211e+21
32.6695  1.39959e+21
32.7868  1.35798e+21
32.9042  1.31767e+21
33.0215  1.27923e+21
33.1388  1.243e+21
33.2561  1.2093e+21
33.3734  1.17844e+21
33.4907  1.15063e+21
33.608  1.12599e+21
33.7253  1.1044e+21
33.8426  1.08557e+21
33.9599  1.06936e+21
34.0772  1.05525e+21
34.1945  1.04302e+21
34.3118  1.03236e+21
34.4291  1.02337e+21
34.5464  1.01603e+21
34.6637  1.01027e+21
34.781  1.00615e+21
34.8983  1.00329e+21
35.0156  1.00128e+21
35.1329  9.99526e+20
35.2503  9.97256e+20
35.3676  9.93844e+20
35.4849  9.88943e+20
35.6022  9.82678e+20
35.7195  9.75299e+20
35.8368  9.67357e+20
35.9541  9.59725e+20
36.0714  9.5283e+20
36.1887  9.47284e+20
36.306  9.43204e+20
36.4233  9.40269e+20
36.5406  9.38405e+20
36.6579  9.37116e+20
36.7752  9.36246e+20
36.8925  9.35615e+20
37.0098  9.35336e+20
37.1271  9.35611e+20
37.2444  9.36274e+20
37.3617  9.37295e+20
37.479  9.38287e+20
37.5964  9.38295e+20
37.7137  9.36617e+20
37.831  9.32308e+20
37.9483  9.24805e+20
38.0656  9.13889e+20
38.1829  8.99987e+20
38.3002  8.84084e+20
38.4175  8.67174e+20
38.5348  8.50678e+20
38.6521  8.36054e+20
38.7694  8.24098e+20
38.8867  8.15501e+20
39.004  8.10157e+20
39.1213  8.07911e+20
39.2386  8.07834e+20
39.3559  8.09025e+20
39.4732  8.105e+20
39.5905  8.11082e+20
39.7078  8.10044e+20
39.8251  8.06735e+20
39.9425  8.00463e+20
40.0598  7.91049e+20
40.1771  7.78622e+20
40.2944  7.63729e+20
40.4117  7.46915e+20
40.529  7.29349e+20
40.6463  7.12138e+20
40.7636  6.96314e+20
40.8809  6.83181e+20
40.9982  6.73561e+20
41.1155  6.6765e+20
41.2328  6.65708e+20
41.3501  6.67208e+20
41.4674  6.71485e+20
41.5847  6.77329e+20
41.702  6.83776e+20
41.8193  6.89583e+20
41.9366  6.93672e+20
42.0539  6.9525e+20
42.1712  6.93845e+20
42.2885  6.89084e+20
42.4059  6.81126e+20
42.5232  6.70464e+20
42.6405  6.57809e+20
42.7578  6.44321e+20
42.8751  6.31112e+20
42.9924  6.19527e+20
43.1097  6.10392e+20
43.227  6.04455e+20
43.3443  6.02019e+20
43.4616  6.0264e+20
43.5789  6.05745e+20
43.6962  6.10213e+20
43.8135  6.15011e+20
43.9308  6.18933e+20
44.0481  6.21217e+20
44.1654  6.21405e+20
44.2827  6.19339e+20
44.4  6.15591e+20
44.5173  6.10876e+20
44.6347  6.05785e+20
44.752  6.01321e+20
44.8693  5.98206e+20
44.9866  5.97275e+20
45.1039  5.9875e+20
45.2212  6.03179e+20
45.3385  6.10403e+20
45.4558  6.20064e+20
45.5731  6.31835e+20
45.6904  6.44724e+20
45.8077  6.5741e+20
45.925  6.68619e+20
46.0423  6.76748e+20
46.1596  6.80391e+20
46.2769  6.78213e+20
46.3942  6.69645e+20
46.5115  6.54412e+20
46.6288  6.33132e+20
46.7461  6.06913e+20
46.8634  5.77517e+20
46.9808  5.46884e+20
47.0981  5.16778e+20
47.2154  4.89136e+20
47.3327  4.65157e+20
47.45  4.45987e+20
47.5673  4.31911e+20
47.6846  4.22902e+20
47.8019  4.18596e+20
47.9192  4.18266e+20
48.0365  4.21202e+20
48.1538  4.26378e+20
48.2711  4.33031e+20
48.3884  4.40484e+20
48.5057  4.48217e+20
48.623  4.56057e+20
48.7403  4.63864e+20
48.8576  4.71844e+20
48.9749  4.80383e+20
49.0922  4.90019e+20
49.2095  5.01237e+20
49.3269  5.14203e+20
49.4442  5.29119e+20
49.5615  5.45445e+20
49.6788  5.62914e+20
49.7961  5.80533e+20
49.9134  5.97375e+20
50.0307  6.12165e+20
50.148  6.23788e+20
50.2653  6.31301e+20
50.3826  6.33818e+20
50.4999  6.30795e+20
50.6172  6.22245e+20
50.7345  6.08568e+20
50.8518  5.90577e+20
50.9691  5.6963e+20
