#S 1 spectral density
#N 2
#UFWHM 34.0185
#L  abscissas [um]  spectral density
-58.5938  2.84336e+20
-58.4764  2.89115e+20
-58.3591  2.91102e+20
-58.2418  2.89954e+20
-58.1245  2.85505e+20
-58.0072  2.78279e+20
-57.8899  2.69007e+20
-57.7726  2.5877e+20
-57.6553  2.48753e+20
-57.538  2.40164e+20
-57.4207  2.33953e+20
-57.3034  2.30771e+20
-57.1861  2.31044e+20
-57.0688  2.34906e+20
-56.9515  2.42284e+20
-56.8342  2.52942e+20
-56.7169  2.66506e+20
-56.5996  2.8244e+20
-56.4823  3.00083e+20
-56.365  3.18486e+20
-56.2477  3.3669e+20
-56.1303  3.53441e+20
-56.013  3.67614e+20
-55.8957  3.78359e+20
-55.7784  3.84921e+20
-55.6611  3.87131e+20
-55.5438  3.85164e+20
-55.4265  3.79576e+20
-55.3092  3.7121e+20
-55.1919  3.61058e+20
-55.0746  3.50138e+20
-54.9573  3.39353e+20
-54.84  3.29431e+20
-54.7227  3.21074e+20
-54.6054  3.14682e+20
-54.4881  3.10715e+20
-54.3708  3.09312e+20
-54.2535  3.10663e+20
-54.1362  3.14643e+20
-54.0189  3.20937e+20
-53.9016  3.28888e+20
-53.7842  3.3777e+20
-53.6669  3.46657e+20
-53.5496  3.54811e+20
-53.4323  3.6141e+20
-53.315  3.66157e+20
-53.1977  3.68844e+20
-53.0804  3.69621e+20
-52.9631  3.68856e+20
-52.8458  3.67092e+20
-52.7285  3.64795e+20
-52.6112  3.62382e+20
-52.4939  3.60217e+20
-52.3766  3.58626e+20
-52.2593  3.57845e+20
-52.142  3.58088e+20
-52.0247  3.59672e+20
-51.9074  3.62817e+20
-51.7901  3.677e+20
-51.6728  3.74161e+20
-51.5555  3.82093e+20
-51.4381  3.90852e+20
-51.3208  3.99619e+20
-51.2035  4.07659e+20
-51.0862  4.13868e+20
-50.9689  4.17604e+20
-50.8516  4.18265e+20
-50.7343  4.15678e+20
-50.617  4.09893e+20
-50.4997  4.01391e+20
-50.3824  3.90825e+20
-50.2651  3.79008e+20
-50.1478  3.66763e+20
-50.0305  3.55073e+20
-49.9132  3.44559e+20
-49.7959  3.36173e+20
-49.6786  3.30491e+20
-49.5613  3.28e+20
-49.444  3.28999e+20
-49.3267  3.33688e+20
-49.2094  3.41854e+20
-49.092  3.5306e+20
-48.9747  3.66742e+20
-48.8574  3.82097e+20
-48.7401  3.98097e+20
-48.6228  4.13894e+20
-48.5055  4.28368e+20
-48.3882  4.40635e+20
-48.2709  4.49972e+20
-48.1536  4.5592e+20
-48.0363  4.58166e+20
-47.919  4.56806e+20
-47.8017  4.52137e+20
-47.6844  4.44908e+20
-47.5671  4.35871e+20
-47.4498  4.2612e+20
-47.3325  4.16744e+20
-47.2152  4.08775e+20
-47.0979  4.0302e+20
-46.9806  3.99848e+20
-46.8633  3.99448e+20
-46.7459  4.01672e+20
-46.6286  4.05907e+20
-46.5113  4.11723e+20
-46.394  4.18135e+20
-46.2767  4.24818e+20
-46.1594  4.31171e+20
-46.0421  4.36816e+20
-45.9248  4.41532e+20
-45.8075  4.45171e+20
-45.6902  4.47643e+20
-45.5729  4.4897e+20
-45.4556  4.48957e+20
-45.3383  4.4785e+20
-45.221  4.45576e+20
-45.1037  4.42698e+20
-44.9864  4.39774e+20
-44.8691  4.37223e+20
-44.7518  4.35649e+20
-44.6345  4.35635e+20
-44.5172  4.37421e+20
-44.3998  4.40974e+20
-44.2825  4.46224e+20
-44.1652  4.52583e+20
-44.0479  4.59451e+20
-43.9306  4.66247e+20
-43.8133  4.72259e+20
-43.696  4.77099e+20
-43.5787  4.80375e+20
-43.4614  4.82008e+20
-43.3441  4.81902e+20
-43.2268  4.80175e+20
-43.1095  4.76948e+20
-42.9922  4.72435e+20
-42.8749  4.6679e+20
-42.7576  4.60504e+20
-42.6403  4.54116e+20
-42.523  4.48203e+20
-42.4057  4.43544e+20
-42.2884  4.40789e+20
-42.171  4.40367e+20
-42.0537  4.42915e+20
-41.9364  4.4831e+20
-41.8191  4.56488e+20
-41.7018  4.66645e+20
-41.5845  4.78262e+20
-41.4672  4.90427e+20
-41.3499  5.02079e+20
-41.2326  5.1234e+20
-41.1153  5.20411e+20
-40.998  5.25661e+20
-40.8807  5.2785e+20
-40.7634  5.26603e+20
-40.6461  5.22195e+20
-40.5288  5.14936e+20
-40.4115  5.05602e+20
-40.2942  4.95258e+20
-40.1769  4.8475e+20
-40.0596  4.75215e+20
-39.9423  4.67715e+20
-39.825  4.63184e+20
-39.7076  4.62176e+20
-39.5903  4.65155e+20
-39.473  4.71996e+20
-39.3557  4.82603e+20
-39.2384  4.96525e+20
-39.1211  5.13164e+20
-39.0038  5.31993e+20
-38.8865  5.52234e+20
-38.7692  5.73093e+20
-38.6519  5.93669e+20
-38.5346  6.12966e+20
-38.4173  6.29942e+20
-38.3  6.43539e+20
-38.1827  6.52944e+20
-38.0654  6.57705e+20
-37.9481  6.57823e+20
-37.8308  6.53734e+20
-37.7135  6.46417e+20
-37.5962  6.37195e+20
-37.4789  6.27343e+20
-37.3615  6.1848e+20
-37.2442  6.11672e+20
-37.1269  6.07732e+20
-37.0096  6.06963e+20
-36.8923  6.09473e+20
-36.775  6.15179e+20
-36.6577  6.2378e+20
-36.5404  6.35011e+20
-36.4231  6.487e+20
-36.3058  6.64641e+20
-36.1885  6.82579e+20
-36.0712  7.02103e+20
-35.9539  7.22579e+20
-35.8366  7.43314e+20
-35.7193  7.6344e+20
-35.602  7.82303e+20
-35.4847  7.99214e+20
-35.3674  8.13927e+20
-35.2501  8.26541e+20
-35.1328  8.37593e+20
-35.0154  8.47761e+20
-34.8981  8.57975e+20
-34.7808  8.68744e+20
-34.6635  8.80803e+20
-34.5462  8.94219e+20
-34.4289  9.09013e+20
-34.3116  9.25081e+20
-34.1943  9.41974e+20
-34.077  9.59225e+20
-33.9597  9.76587e+20
-33.8424  9.93531e+20
-33.7251  1.00974e+21
-33.6078  1.02467e+21
-33.4905  1.03814e+21
-33.3732  1.04961e+21
-33.2559  1.05893e+21
-33.1386  1.06585e+21
-33.0213  1.07054e+21
-32.904  1.07336e+21
-32.7867  1.07487e+21
-32.6693  1.07591e+21
-32.552  1.07743e+21
-32.4347  1.08022e+21
-32.3174  1.0852e+21
-32.2001  1.0928e+21
-32.0828  1.10355e+21
-31.9655  1.11774e+21
-31.8482  1.13536e+21
-31.7309  1.15637e+21
-31.6136  1.18064e+21
-31.4963  1.20771e+21
-31.379  1.23722e+21
-31.2617  1.26843e+21
-31.1444  1.30072e+21
-31.0271  1.33324e+21
-30.9098  1.36523e+21
-30.7925  1.39612e+21
-30.6752  1.42541e+21
-30.5579  1.45286e+21
-30.4406  1.47859e+21
-30.3232  1.50283e+21
-30.2059  1.52623e+21
-30.0886  1.54906e+21
-29.9713  1.57225e+21
-29.854  1.59623e+21
-29.7367  1.6218e+21
-29.6194  1.64959e+21
-29.5021  1.68011e+21
-29.3848  1.71369e+21
-29.2675  1.75079e+21
-29.1502  1.79107e+21
-29.0329  1.83434e+21
-28.9156  1.87966e+21
-28.7983  1.92631e+21
-28.681  1.97272e+21
-28.5637  2.01779e+21
-28.4464  2.06018e+21
-28.3291  2.09898e+21
-28.2118  2.13362e+21
-28.0944  2.16409e+21
-27.9771  2.19048e+21
-27.8598  2.21348e+21
-27.7425  2.23404e+21
-27.6252  2.25319e+21
-27.5079  2.27189e+21
-27.3906  2.29115e+21
-27.2733  2.31224e+21
-27.156  2.33607e+21
-27.0387  2.36338e+21
-26.9214  2.39518e+21
-26.8041  2.43178e+21
-26.6868  2.47357e+21
-26.5695  2.52036e+21
-26.4522  2.57168e+21
-26.3349  2.62684e+21
-26.2176  2.68448e+21
-26.1003  2.74354e+21
-25.983  2.80254e+21
-25.8657  2.86001e+21
-25.7483  2.91478e+21
-25.631  2.96576e+21
-25.5137  3.01255e+21
-25.3964  3.0541e+21
-25.2791  3.09062e+21
-25.1618  3.12209e+21
-25.0445  3.14913e+21
-24.9272  3.17238e+21
-24.8099  3.19281e+21
-24.6926  3.21142e+21
-24.5753  3.22976e+21
-24.458  3.24849e+21
-24.3407  3.26892e+21
-24.2234  3.29162e+21
-24.1061  3.31749e+21
-23.9888  3.34643e+21
-23.8715  3.37879e+21
-23.7542  3.41447e+21
-23.6369  3.45342e+21
-23.5196  3.49551e+21
-23.4023  3.54092e+21
-23.2849  3.58941e+21
-23.1676  3.64108e+21
-23.0503  3.69613e+21
-22.933  3.75457e+21
-22.8157  3.81619e+21
-22.6984  3.88091e+21
-22.5811  3.94886e+21
-22.4638  4.01995e+21
-22.3465  4.0936e+21
-22.2292  4.16998e+21
-22.1119  4.24822e+21
-21.9946  4.32776e+21
-21.8773  4.40752e+21
-21.76  4.48611e+21
-21.6427  4.56231e+21
-21.5254  4.63433e+21
-21.4081  4.701e+21
-21.2908  4.76098e+21
-21.1735  4.8135e+21
-21.0561  4.85838e+21
-20.9388  4.89602e+21
-20.8215  4.92792e+21
-20.7042  4.95502e+21
-20.5869  4.97969e+21
-20.4696  5.00435e+21
-20.3523  5.03157e+21
-20.235  5.06372e+21
-20.1177  5.10329e+21
-20.0004  5.15213e+21
-19.8831  5.21222e+21
-19.7658  5.28381e+21
-19.6485  5.36742e+21
-19.5312  5.46228e+21
-19.4139  5.56694e+21
-19.2966  5.67899e+21
-19.1793  5.79566e+21
-19.062  5.91371e+21
-18.9447  6.02976e+21
-18.8274  6.14044e+21
-18.71  6.24341e+21
-18.5927  6.33629e+21
-18.4754  6.41785e+21
-18.3581  6.48821e+21
-18.2408  6.54762e+21
-18.1235  6.5977e+21
-18.0062  6.64028e+21
-17.8889  6.6779e+21
-17.7716  6.71364e+21
-17.6543  6.74935e+21
-17.537  6.78803e+21
-17.4197  6.83098e+21
-17.3024  6.87939e+21
-17.1851  6.93338e+21
-17.0678  6.99209e+21
-16.9505  7.05449e+21
-16.8332  7.11841e+21
-16.7159  7.18168e+21
-16.5986  7.24163e+21
-16.4813  7.29635e+21
-16.364  7.34409e+21
-16.2466  7.38427e+21
-16.1293  7.41755e+21
-16.012  7.44446e+21
-15.8947  7.4676e+21
-15.7774  7.48998e+21
-15.6601  7.51496e+21
-15.5428  7.54619e+21
-15.4255  7.58704e+21
-15.3082  7.64044e+21
-15.1909  7.70943e+21
-15.0736  7.7943e+21
-14.9563  7.89569e+21
-14.839  8.01218e+21
-14.7217  8.14129e+21
-14.6044  8.27907e+21
-14.4871  8.42081e+21
-14.3698  8.5612e+21
-14.2525  8.69433e+21
-14.1352  8.81463e+21
-14.0178  8.91829e+21
-13.9005  9.00146e+21
-13.7832  9.06255e+21
-13.6659  9.10227e+21
-13.5486  9.12199e+21
-13.4313  9.12579e+21
-13.314  9.11834e+21
-13.1967  9.10529e+21
-13.0794  9.09317e+21
-12.9621  9.08696e+21
-12.8448  9.09265e+21
-12.7275  9.11391e+21
-12.6102  9.15356e+21
-12.4929  9.21271e+21
-12.3756  9.29051e+21
-12.2583  9.38551e+21
-12.141  9.49423e+21
-12.0237  9.61213e+21
-11.9064  9.73395e+21
-11.7891  9.8545e+21
-11.6718  9.96831e+21
-11.5544  1.00715e+22
-11.4371  1.01613e+22
-11.3198  1.02355e+22
-11.2025  1.02945e+22
-11.0852  1.03401e+22
-10.9679  1.03752e+22
-10.8506  1.04038e+22
-10.7333  1.04303e+22
-10.616  1.04592e+22
-10.4987  1.04955e+22
-10.3814  1.05419e+22
-10.2641  1.06011e+22
-10.1468  1.06742e+22
-10.0295  1.07608e+22
-9.91217  1.08591e+22
-9.79487  1.09662e+22
-9.67756  1.1078e+22
-9.56026  1.11901e+22
-9.44295  1.12972e+22
-9.32565  1.13956e+22
-9.20834  1.1481e+22
-9.09104  1.15507e+22
-8.97373  1.1604e+22
-8.85643  1.16406e+22
-8.73913  1.16626e+22
-8.62182  1.16732e+22
-8.50452  1.16761e+22
-8.38721  1.16763e+22
-8.26991  1.1678e+22
-8.1526  1.16858e+22
-8.03529  1.17027e+22
-7.91799  1.17313e+22
-7.80069  1.17722e+22
-7.68338  1.18248e+22
-7.56608  1.18878e+22
-7.44877  1.19583e+22
-7.33146  1.20325e+22
-7.21416  1.21069e+22
-7.09685  1.21774e+22
-6.97955  1.22407e+22
-6.86224  1.22946e+22
-6.74494  1.23377e+22
-6.62763  1.237e+22
-6.51033  1.23924e+22
-6.39302  1.24075e+22
-6.27572  1.24178e+22
-6.15842  1.24272e+22
-6.04111  1.24387e+22
-5.92381  1.24561e+22
-5.8065  1.24821e+22
-5.68919  1.25186e+22
-5.57189  1.25667e+22
-5.45458  1.26263e+22
-5.33728  1.26963e+22
-5.21997  1.27742e+22
-5.10267  1.28573e+22
-4.98536  1.29419e+22
-4.86806  1.30241e+22
-4.75075  1.30997e+22
-4.63345  1.31661e+22
-4.51614  1.32203e+22
-4.39884  1.3261e+22
-4.28154  1.32883e+22
-4.16423  1.33026e+22
-4.04692  1.33064e+22
-3.92962  1.33024e+22
-3.81231  1.32939e+22
-3.69501  1.32844e+22
-3.5777  1.32764e+22
-3.4604  1.32727e+22
-3.34309  1.32743e+22
-3.22579  1.32819e+22
-3.10849  1.32947e+22
-2.99118  1.33112e+22
-2.87387  1.33296e+22
-2.75657  1.33478e+22
-2.63926  1.33633e+22
-2.52196  1.33744e+22
-2.40465  1.33798e+22
-2.28735  1.3379e+22
-2.17005  1.33728e+22
-2.05274  1.33622e+22
-1.93544  1.33498e+22
-1.81813  1.33381e+22
-1.70083  1.33306e+22
-1.58352  1.33303e+22
-1.46622  1.33401e+22
-1.34891  1.33621e+22
-1.2316  1.3398e+22
-1.1143  1.34479e+22
-0.996995  1.35109e+22
-0.87969  1.35846e+22
-0.762385  1.36658e+22
-0.64508  1.37495e+22
-0.527775  1.38308e+22
-0.41047  1.39042e+22
-0.293165  1.39647e+22
-0.17586  1.40077e+22
-0.058555  1.40301e+22
0.05875  1.403e+22
0.176055  1.40077e+22
0.29336  1.39648e+22
0.410665  1.39046e+22
0.52797  1.38313e+22
0.645275  1.37504e+22
0.76258  1.36671e+22
0.879885  1.35868e+22
0.99719  1.35138e+22
1.1145  1.34518e+22
1.2318  1.34028e+22
1.3491  1.3368e+22
1.46641  1.33469e+22
1.58371  1.33383e+22
1.70102  1.33399e+22
1.81832  1.33486e+22
1.93563  1.33616e+22
2.05294  1.33752e+22
2.17024  1.33868e+22
2.28754  1.33942e+22
2.40485  1.3396e+22
2.52216  1.33917e+22
2.63946  1.33815e+22
2.75677  1.33669e+22
2.87407  1.33496e+22
2.99137  1.33318e+22
3.10868  1.33159e+22
3.22599  1.33036e+22
3.34329  1.32966e+22
3.4606  1.32954e+22
3.5779  1.32992e+22
3.69521  1.33074e+22
3.81251  1.33171e+22
3.92982  1.33257e+22
4.04712  1.33296e+22
4.16443  1.33258e+22
4.28173  1.33115e+22
4.39903  1.32845e+22
4.51634  1.3244e+22
4.63364  1.31903e+22
4.75095  1.31244e+22
4.86825  1.30494e+22
4.98556  1.29682e+22
5.10286  1.28846e+22
5.22017  1.28025e+22
5.33748  1.27255e+22
5.45478  1.26569e+22
5.57209  1.25985e+22
5.68939  1.25514e+22
5.8067  1.2516e+22
5.924  1.24908e+22
6.0413  1.24742e+22
6.15861  1.2463e+22
6.27591  1.24543e+22
6.39322  1.24445e+22
6.51052  1.24298e+22
6.62783  1.24077e+22
6.74514  1.23756e+22
6.86244  1.23326e+22
6.97975  1.2279e+22
7.09705  1.2216e+22
7.21436  1.2146e+22
7.33166  1.20721e+22
7.44897  1.19986e+22
7.56627  1.19289e+22
7.68358  1.18667e+22
7.80088  1.18147e+22
7.91819  1.17746e+22
8.03549  1.17469e+22
8.1528  1.17308e+22
8.2701  1.17235e+22
8.38741  1.17223e+22
8.50471  1.17226e+22
8.62202  1.17198e+22
8.73932  1.17094e+22
8.85662  1.16874e+22
8.97393  1.16509e+22
9.09123  1.15977e+22
9.20854  1.15279e+22
9.32584  1.1443e+22
9.44315  1.13449e+22
9.56045  1.1238e+22
9.67776  1.11266e+22
9.79506  1.10153e+22
9.91237  1.0909e+22
10.0297  1.08114e+22
10.147  1.07258e+22
10.2643  1.06535e+22
10.3816  1.05948e+22
10.4989  1.05491e+22
10.6162  1.05132e+22
10.7335  1.04844e+22
10.8508  1.04578e+22
10.9681  1.0429e+22
11.0854  1.03938e+22
11.2027  1.03479e+22
11.32  1.02881e+22
11.4373  1.02132e+22
11.5546  1.01231e+22
11.6719  1.00194e+22
11.7893  9.90534e+21
11.9066  9.78484e+21
12.0239  9.66317e+21
12.1412  9.54587e+21
12.2585  9.43783e+21
12.3758  9.34349e+21
12.4931  9.26632e+21
12.6104  9.20817e+21
12.7277  9.16967e+21
12.845  9.14953e+21
12.9623  9.14454e+21
13.0796  9.15122e+21
13.1969  9.1641e+21
13.3142  9.17714e+21
13.4315  9.18458e+21
13.5488  9.18066e+21
13.6661  9.16042e+21
13.7834  9.12012e+21
13.9007  9.05816e+21
14.018  8.97454e+21
14.1354  8.87014e+21
14.2527  8.74898e+21
14.37  8.61537e+21
14.4873  8.47464e+21
14.6046  8.3328e+21
14.7219  8.19487e+21
14.8392  8.06602e+21
14.9565  7.94989e+21
15.0738  7.8488e+21
15.1911  7.76435e+21
15.3084  7.6961e+21
15.4257  7.64294e+21
15.543  7.60248e+21
15.6603  7.57163e+21
15.7776  7.54704e+21
15.8949  7.52499e+21
16.0122  7.5017e+21
16.1295  7.47468e+21
16.2468  7.44154e+21
16.3641  7.40104e+21
16.4815  7.35331e+21
16.5988  7.29841e+21
16.7161  7.23836e+21
16.8334  7.17525e+21
16.9507  7.11142e+21
17.068  7.04906e+21
17.1853  6.99039e+21
17.3026  6.93652e+21
17.4199  6.88845e+21
17.5372  6.84577e+21
17.6545  6.80721e+21
17.7718  6.77142e+21
17.8891  6.73578e+21
18.0064  6.69774e+21
18.1237  6.65481e+21
18.241  6.60437e+21
18.3583  6.54442e+21
18.4756  6.47339e+21
18.5929  6.39092e+21
18.7102  6.2975e+21
18.8275  6.19385e+21
18.9449  6.08228e+21
19.0622  5.96567e+21
19.1795  5.84706e+21
19.2968  5.73005e+21
19.4141  5.61768e+21
19.5314  5.51288e+21
19.6487  5.41811e+21
19.766  5.33444e+21
19.8833  5.26295e+21
20.0006  5.20321e+21
20.1179  5.15445e+21
20.2352  5.11514e+21
20.3525  5.08302e+21
20.4698  5.05606e+21
20.5871  5.03145e+21
20.7044  5.00649e+21
20.8217  4.97915e+21
20.939  4.94724e+21
21.0563  4.909e+21
21.1736  4.86368e+21
21.291  4.81051e+21
21.4083  4.75001e+21
21.5256  4.68274e+21
21.6429  4.61005e+21
21.7602  4.53318e+21
21.8775  4.45388e+21
21.9948  4.37343e+21
22.1121  4.29337e+21
22.2294  4.21459e+21
22.3467  4.13777e+21
22.464  4.06346e+21
22.5813  3.99204e+21
22.6986  3.92354e+21
22.8159  3.85829e+21
22.9332  3.79633e+21
23.0505  3.73771e+21
23.1678  3.68228e+21
23.2851  3.63028e+21
23.4024  3.58163e+21
23.5198  3.53611e+21
23.6371  3.49375e+21
23.7544  3.45465e+21
23.8717  3.41888e+21
23.989  3.38644e+21
24.1063  3.35742e+21
24.2236  3.33151e+21
24.3409  3.30873e+21
24.4582  3.28819e+21
24.5755  3.26924e+21
24.6928  3.25089e+21
24.8101  3.232e+21
24.9274  3.21132e+21
25.0447  3.18768e+21
25.162  3.16031e+21
25.2793  3.1284e+21
25.3966  3.09122e+21
25.5139  3.04904e+21
25.6312  3.00196e+21
25.7485  2.95022e+21
25.8658  2.89492e+21
25.9832  2.83682e+21
26.1005  2.77742e+21
26.2178  2.71784e+21
26.3351  2.65972e+21
26.4524  2.6042e+21
26.5697  2.55252e+21
26.687  2.5054e+21
26.8043  2.46344e+21
26.9216  2.42661e+21
27.0389  2.39468e+21
27.1562  2.36701e+21
27.2735  2.34302e+21
27.3908  2.32164e+21
27.5081  2.30203e+21
27.6254  2.28311e+21
27.7427  2.26366e+21
27.86  2.24274e+21
27.9773  2.21927e+21
28.0946  2.19244e+21
28.212  2.16156e+21
28.3293  2.12634e+21
28.4466  2.08698e+21
28.5639  2.0441e+21
28.6812  1.99857e+21
28.7985  1.95171e+21
28.9158  1.90468e+21
29.0331  1.85892e+21
29.1504  1.81535e+21
29.2677  1.77466e+21
29.385  1.73735e+21
29.5023  1.70345e+21
29.6196  1.67266e+21
29.7369  1.64456e+21
29.8542  1.61868e+21
29.9715  1.59437e+21
30.0888  1.57079e+21
30.2061  1.54748e+21
30.3234  1.52382e+21
30.4407  1.49911e+21
30.558  1.47292e+21
30.6754  1.44501e+21
30.7927  1.41526e+21
30.91  1.38393e+21
31.0273  1.35149e+21
31.1446  1.31858e+21
31.2619  1.28594e+21
31.3792  1.25431e+21
31.4965  1.22458e+21
31.6138  1.19724e+21
31.7311  1.17282e+21
31.8484  1.15155e+21
31.9657  1.13377e+21
32.083  1.11944e+21
32.2003  1.10855e+21
32.3176  1.10086e+21
32.4349  1.09579e+21
32.5522  1.09285e+21
32.6695  1.09119e+21
32.7868  1.0899e+21
32.9042  1.08817e+21
33.0215  1.08506e+21
33.1388  1.08003e+21
33.2561  1.07276e+21
33.3734  1.0631e+21
33.4907  1.05127e+21
33.608  1.03748e+21
33.7253  1.0221e+21
33.8426  1.00561e+21
33.9599  9.88343e+20
34.0772  9.70725e+20
34.1945  9.53191e+20
34.3118  9.36062e+20
34.4291  9.19857e+20
34.5464  9.0482e+20
34.6637  8.91251e+20
34.781  8.79095e+20
34.8983  8.68108e+20
35.0156  8.57744e+20
35.1329  8.47411e+20
35.2503  8.36094e+20
35.3676  8.23158e+20
35.4849  8.08103e+20
35.6022  7.90896e+20
35.7195  7.71731e+20
35.8368  7.51262e+20
35.9541  7.30239e+20
36.0714  7.09406e+20
36.1887  6.89655e+20
36.306  6.7153e+20
36.4233  6.55397e+20
36.5406  6.41538e+20
36.6579  6.30171e+20
36.7752  6.21529e+20
36.8925  6.15816e+20
37.0098  6.13271e+20
37.1271  6.14068e+20
37.2444  6.18071e+20
37.3617  6.24921e+20
37.479  6.3377e+20
37.5964  6.43515e+20
37.7137  6.52687e+20
37.831  6.59783e+20
37.9483  6.6364e+20
38.0656  6.63186e+20
38.1829  6.58083e+20
38.3002  6.48351e+20
38.4175  6.34367e+20
38.5348  6.17085e+20
38.6521  5.9749e+20
38.7694  5.76615e+20
38.8867  5.55555e+20
39.004  5.35115e+20
39.1213  5.16214e+20
39.2386  4.99394e+20
39.3559  4.85446e+20
39.4732  4.74871e+20
39.5905  4.68015e+20
39.7078  4.65102e+20
39.8251  4.66196e+20
39.9425  4.70816e+20
40.0598  4.78257e+20
40.1771  4.87784e+20
40.2944  4.98318e+20
40.4117  5.08644e+20
40.529  5.17809e+20
40.6463  5.24893e+20
40.7636  5.29103e+20
40.8809  5.301e+20
40.9982  5.27873e+20
41.1155  5.22365e+20
41.2328  5.14127e+20
41.3501  5.03724e+20
41.4674  4.9204e+20
41.5847  4.79864e+20
41.702  4.68178e+20
41.8193  4.58002e+20
41.9366  4.49916e+20
42.0539  4.44576e+20
42.1712  4.42174e+20
42.2885  4.42526e+20
42.4059  4.45396e+20
42.5232  4.50047e+20
42.6405  4.55994e+20
42.7578  4.62249e+20
42.8751  4.68429e+20
42.9924  4.74035e+20
43.1097  4.7845e+20
43.227  4.81549e+20
43.3443  4.83141e+20
43.4616  4.83079e+20
43.5789  4.81395e+20
43.6962  4.77972e+20
43.8135  4.73086e+20
43.9308  4.66951e+20
44.0481  4.60137e+20
44.1654  4.53263e+20
44.2827  4.46915e+20
44.4  4.41726e+20
44.5173  4.38179e+20
44.6347  4.36496e+20
44.752  4.36469e+20
44.8693  4.38103e+20
44.9866  4.40711e+20
45.1039  4.4368e+20
45.2212  4.46461e+20
45.3385  4.48631e+20
45.4558  4.49755e+20
45.5731  4.49614e+20
45.6904  4.48323e+20
45.8077  4.45732e+20
45.925  4.42066e+20
46.0423  4.37277e+20
46.1596  4.3165e+20
46.2769  4.25286e+20
46.3942  4.18554e+20
46.5115  4.12132e+20
46.6288  4.06418e+20
46.7461  4.02237e+20
46.8634  4.00228e+20
46.9808  4.00619e+20
47.0981  4.03968e+20
47.2154  4.09824e+20
47.3327  4.17964e+20
47.45  4.27314e+20
47.5673  4.37035e+20
47.6846  4.46102e+20
47.8019  4.53309e+20
47.9192  4.57844e+20
48.0365  4.5909e+20
48.1538  4.56707e+20
48.2711  4.50708e+20
48.3884  4.41219e+20
48.5057  4.28845e+20
48.623  4.14305e+20
48.7403  3.98522e+20
48.8576  3.82497e+20
48.9749  3.67237e+20
49.0922  3.53617e+20
49.2095  3.42434e+20
49.3269  3.34431e+20
49.4442  3.2981e+20
49.5615  3.28972e+20
49.6788  3.31595e+20
49.7961  3.37423e+20
49.9134  3.45853e+20
50.0307  3.56356e+20
50.148  3.68198e+20
50.2653  3.80402e+20
50.3826  3.92218e+20
50.4999  4.02746e+20
50.6172  4.11222e+20
50.7345  4.16901e+20
50.8518  4.19409e+20
