#S 1 spectral density
#N 2
#UFWHM 43.4029
#L  abscissas [um]  spectral density
-58.5938  4.44338e+20
-58.4764  4.4186e+20
-58.3591  4.42175e+20
-58.2418  4.45229e+20
-58.1245  4.5109e+20
-58.0072  4.59525e+20
-57.8899  4.70258e+20
-57.7726  4.82913e+20
-57.6553  4.9685e+20
-57.538  5.11232e+20
-57.4207  5.25016e+20
-57.3034  5.37183e+20
-57.1861  5.4664e+20
-57.0688  5.52575e+20
-56.9515  5.54459e+20
-56.8342  5.52295e+20
-56.7169  5.4648e+20
-56.5996  5.37608e+20
-56.4823  5.26645e+20
-56.365  5.14662e+20
-56.2477  5.02308e+20
-56.1303  4.90385e+20
-56.013  4.79459e+20
-55.8957  4.69709e+20
-55.7784  4.61505e+20
-55.6611  4.54988e+20
-55.5438  4.50418e+20
-55.4265  4.47997e+20
-55.3092  4.47869e+20
-55.1919  4.50048e+20
-55.0746  4.5443e+20
-54.9573  4.60681e+20
-54.84  4.68484e+20
-54.7227  4.77283e+20
-54.6054  4.86834e+20
-54.4881  4.96716e+20
-54.3708  5.0676e+20
-54.2535  5.16852e+20
-54.1362  5.26934e+20
-54.0189  5.36809e+20
-53.9016  5.46223e+20
-53.7842  5.55033e+20
-53.6669  5.62851e+20
-53.5496  5.69277e+20
-53.4323  5.74333e+20
-53.315  5.77841e+20
-53.1977  5.8025e+20
-53.0804  5.81867e+20
-52.9631  5.83131e+20
-52.8458  5.8431e+20
-52.7285  5.85678e+20
-52.6112  5.87092e+20
-52.4939  5.88321e+20
-52.3766  5.88956e+20
-52.2593  5.88678e+20
-52.142  5.87136e+20
-52.0247  5.84207e+20
-51.9074  5.79919e+20
-51.7901  5.74499e+20
-51.6728  5.68384e+20
-51.5555  5.61891e+20
-51.4381  5.55334e+20
-51.3208  5.49226e+20
-51.2035  5.4359e+20
-51.0862  5.39086e+20
-50.9689  5.3578e+20
-50.8516  5.34109e+20
-50.7343  5.34646e+20
-50.617  5.37811e+20
-50.4997  5.43907e+20
-50.3824  5.53229e+20
-50.2651  5.65511e+20
-50.1478  5.80627e+20
-50.0305  5.9781e+20
-49.9132  6.16402e+20
-49.7959  6.3521e+20
-49.6786  6.53041e+20
-49.5613  6.69148e+20
-49.444  6.82546e+20
-49.3267  6.92397e+20
-49.2094  6.98229e+20
-49.092  6.99936e+20
-48.9747  6.97391e+20
-48.8574  6.9099e+20
-48.7401  6.81458e+20
-48.6228  6.69537e+20
-48.5055  6.56598e+20
-48.3882  6.43705e+20
-48.2709  6.32284e+20
-48.1536  6.23415e+20
-48.0363  6.18151e+20
-47.919  6.17209e+20
-47.8017  6.21114e+20
-47.6844  6.29773e+20
-47.5671  6.43211e+20
-47.4498  6.60581e+20
-47.3325  6.80952e+20
-47.2152  7.03083e+20
-47.0979  7.25346e+20
-46.9806  7.46134e+20
-46.8633  7.63855e+20
-46.7459  7.76785e+20
-46.6286  7.83797e+20
-46.5113  7.84182e+20
-46.394  7.78144e+20
-46.2767  7.66024e+20
-46.1594  7.49064e+20
-46.0421  7.29002e+20
-45.9248  7.0778e+20
-45.8075  6.87339e+20
-45.6902  6.69434e+20
-45.5729  6.55441e+20
-45.4556  6.46371e+20
-45.3383  6.42723e+20
-45.221  6.44537e+20
-45.1037  6.51479e+20
-44.9864  6.62766e+20
-44.8691  6.77851e+20
-44.7518  6.95746e+20
-44.6345  7.15408e+20
-44.5172  7.35764e+20
-44.3998  7.55751e+20
-44.2825  7.74342e+20
-44.1652  7.90865e+20
-44.0479  8.04734e+20
-43.9306  8.15841e+20
-43.8133  8.24605e+20
-43.696  8.31384e+20
-43.5787  8.37215e+20
-43.4614  8.43066e+20
-43.3441  8.49832e+20
-43.2268  8.58256e+20
-43.1095  8.68809e+20
-42.9922  8.81582e+20
-42.8749  8.96399e+20
-42.7576  9.12693e+20
-42.6403  9.29781e+20
-42.523  9.46924e+20
-42.4057  9.63364e+20
-42.2884  9.78486e+20
-42.171  9.91795e+20
-42.0537  1.00271e+21
-41.9364  1.01095e+21
-41.8191  1.01654e+21
-41.7018  1.01955e+21
-41.5845  1.02031e+21
-41.4672  1.01935e+21
-41.3499  1.01735e+21
-41.2326  1.01527e+21
-41.1153  1.01405e+21
-40.998  1.01458e+21
-40.8807  1.0177e+21
-40.7634  1.02392e+21
-40.6461  1.03369e+21
-40.5288  1.04693e+21
-40.4115  1.06357e+21
-40.2942  1.08301e+21
-40.1769  1.10479e+21
-40.0596  1.12814e+21
-39.9423  1.15235e+21
-39.825  1.17639e+21
-39.7076  1.19929e+21
-39.5903  1.2205e+21
-39.473  1.23933e+21
-39.3557  1.25521e+21
-39.2384  1.26832e+21
-39.1211  1.27874e+21
-39.0038  1.28688e+21
-38.8865  1.29343e+21
-38.7692  1.29914e+21
-38.6519  1.30435e+21
-38.5346  1.30945e+21
-38.4173  1.31435e+21
-38.3  1.31893e+21
-38.1827  1.3227e+21
-38.0654  1.32534e+21
-37.9481  1.32661e+21
-37.8308  1.32651e+21
-37.7135  1.32543e+21
-37.5962  1.32399e+21
-37.4789  1.32281e+21
-37.3615  1.3225e+21
-37.2442  1.32356e+21
-37.1269  1.32635e+21
-37.0096  1.33084e+21
-36.8923  1.337e+21
-36.775  1.34482e+21
-36.6577  1.35418e+21
-36.5404  1.36544e+21
-36.4231  1.37894e+21
-36.3058  1.39524e+21
-36.1885  1.41473e+21
-36.0712  1.43762e+21
-35.9539  1.46396e+21
-35.8366  1.49326e+21
-35.7193  1.52498e+21
-35.602  1.55821e+21
-35.4847  1.59232e+21
-35.3674  1.6266e+21
-35.2501  1.66078e+21
-35.1328  1.69465e+21
-35.0154  1.7282e+21
-34.8981  1.76207e+21
-34.7808  1.79608e+21
-34.6635  1.83046e+21
-34.5462  1.86515e+21
-34.4289  1.90008e+21
-34.3116  1.93479e+21
-34.1943  1.96917e+21
-34.077  2.00306e+21
-33.9597  2.03624e+21
-33.8424  2.06862e+21
-33.7251  2.10002e+21
-33.6078  2.13024e+21
-33.4905  2.15906e+21
-33.3732  2.18601e+21
-33.2559  2.21088e+21
-33.1386  2.23325e+21
-33.0213  2.25311e+21
-32.904  2.27065e+21
-32.7867  2.28608e+21
-32.6693  2.30009e+21
-32.552  2.31302e+21
-32.4347  2.32581e+21
-32.3174  2.33871e+21
-32.2001  2.35201e+21
-32.0828  2.3659e+21
-31.9655  2.38016e+21
-31.8482  2.39464e+21
-31.7309  2.40893e+21
-31.6136  2.42292e+21
-31.4963  2.43616e+21
-31.379  2.44831e+21
-31.2617  2.45928e+21
-31.1444  2.46877e+21
-31.0271  2.47707e+21
-30.9098  2.48411e+21
-30.7925  2.49064e+21
-30.6752  2.49728e+21
-30.5579  2.50495e+21
-30.4406  2.51473e+21
-30.3232  2.52766e+21
-30.2059  2.54517e+21
-30.0886  2.56778e+21
-29.9713  2.59613e+21
-29.854  2.63049e+21
-29.7367  2.67098e+21
-29.6194  2.71714e+21
-29.5021  2.76846e+21
-29.3848  2.82422e+21
-29.2675  2.88362e+21
-29.1502  2.94538e+21
-29.0329  3.00837e+21
-28.9156  3.07104e+21
-28.7983  3.13224e+21
-28.681  3.19011e+21
-28.5637  3.24378e+21
-28.4464  3.29195e+21
-28.3291  3.33421e+21
-28.2118  3.37031e+21
-28.0944  3.40045e+21
-27.9771  3.42522e+21
-27.8598  3.44521e+21
-27.7425  3.46157e+21
-27.6252  3.47484e+21
-27.5079  3.48573e+21
-27.3906  3.49478e+21
-27.2733  3.50257e+21
-27.156  3.50945e+21
-27.0387  3.51584e+21
-26.9214  3.52247e+21
-26.8041  3.52988e+21
-26.6868  3.53879e+21
-26.5695  3.54987e+21
-26.4522  3.5638e+21
-26.3349  3.58171e+21
-26.2176  3.60397e+21
-26.1003  3.63154e+21
-25.983  3.66487e+21
-25.8657  3.70446e+21
-25.7483  3.75064e+21
-25.631  3.8032e+21
-25.5137  3.86237e+21
-25.3964  3.92697e+21
-25.2791  3.996e+21
-25.1618  4.0682e+21
-25.0445  4.14154e+21
-24.9272  4.21431e+21
-24.8099  4.28441e+21
-24.6926  4.35017e+21
-24.5753  4.41014e+21
-24.458  4.46281e+21
-24.3407  4.5075e+21
-24.2234  4.54394e+21
-24.1061  4.57248e+21
-23.9888  4.59355e+21
-23.8715  4.60874e+21
-23.7542  4.61959e+21
-23.6369  4.62843e+21
-23.5196  4.63722e+21
-23.4023  4.64854e+21
-23.2849  4.66431e+21
-23.1676  4.68618e+21
-23.0503  4.71568e+21
-22.933  4.75267e+21
-22.8157  4.79728e+21
-22.6984  4.84829e+21
-22.5811  4.90476e+21
-22.4638  4.96468e+21
-22.3465  5.02609e+21
-22.2292  5.08751e+21
-22.1119  5.14684e+21
-21.9946  5.20272e+21
-21.8773  5.25381e+21
-21.76  5.29906e+21
-21.6427  5.33848e+21
-21.5254  5.37194e+21
-21.4081  5.39993e+21
-21.2908  5.42332e+21
-21.1735  5.44353e+21
-21.0561  5.46208e+21
-20.9388  5.48082e+21
-20.8215  5.50207e+21
-20.7042  5.52656e+21
-20.5869  5.55612e+21
-20.4696  5.59146e+21
-20.3523  5.63279e+21
-20.235  5.68002e+21
-20.1177  5.73243e+21
-20.0004  5.78899e+21
-19.8831  5.84904e+21
-19.7658  5.91073e+21
-19.6485  5.97307e+21
-19.5312  6.03483e+21
-19.4139  6.095e+21
-19.2966  6.15251e+21
-19.1793  6.207e+21
-19.062  6.25802e+21
-18.9447  6.30553e+21
-18.8274  6.34954e+21
-18.71  6.39086e+21
-18.5927  6.43024e+21
-18.4754  6.46844e+21
-18.3581  6.50667e+21
-18.2408  6.54532e+21
-18.1235  6.58547e+21
-18.0062  6.62724e+21
-17.8889  6.67078e+21
-17.7716  6.71598e+21
-17.6543  6.76188e+21
-17.537  6.80821e+21
-17.4197  6.85378e+21
-17.3024  6.89741e+21
-17.1851  6.93803e+21
-17.0678  6.97436e+21
-16.9505  7.00581e+21
-16.8332  7.03188e+21
-16.7159  7.05201e+21
-16.5986  7.06621e+21
-16.4813  7.07503e+21
-16.364  7.07957e+21
-16.2466  7.08157e+21
-16.1293  7.08321e+21
-16.012  7.08613e+21
-15.8947  7.09337e+21
-15.7774  7.10712e+21
-15.6601  7.12945e+21
-15.5428  7.16243e+21
-15.4255  7.2072e+21
-15.3082  7.26424e+21
-15.1909  7.33439e+21
-15.0736  7.41622e+21
-14.9563  7.50903e+21
-14.839  7.61054e+21
-14.7217  7.71827e+21
-14.6044  7.82893e+21
-14.4871  7.93901e+21
-14.3698  8.04471e+21
-14.2525  8.14215e+21
-14.1352  8.22747e+21
-14.0178  8.29834e+21
-13.9005  8.35256e+21
-13.7832  8.38952e+21
-13.6659  8.40959e+21
-13.5486  8.41407e+21
-13.4313  8.40575e+21
-13.314  8.38786e+21
-13.1967  8.36405e+21
-13.0794  8.33859e+21
-12.9621  8.31451e+21
-12.8448  8.29574e+21
-12.7275  8.28452e+21
-12.6102  8.283e+21
-12.4929  8.29211e+21
-12.3756  8.31187e+21
-12.2583  8.34189e+21
-12.141  8.38096e+21
-12.0237  8.42681e+21
-11.9064  8.47675e+21
-11.7891  8.52795e+21
-11.6718  8.57777e+21
-11.5544  8.62412e+21
-11.4371  8.6651e+21
-11.3198  8.69944e+21
-11.2025  8.72749e+21
-11.0852  8.75e+21
-10.9679  8.76849e+21
-10.8506  8.78588e+21
-10.7333  8.80431e+21
-10.616  8.82663e+21
-10.4987  8.85624e+21
-10.3814  8.89478e+21
-10.2641  8.94455e+21
-10.1468  9.00615e+21
-10.0295  9.07995e+21
-9.91217  9.16489e+21
-9.79487  9.25886e+21
-9.67756  9.35928e+21
-9.56026  9.46213e+21
-9.44295  9.5629e+21
-9.32565  9.65769e+21
-9.20834  9.74191e+21
-9.09104  9.81188e+21
-8.97373  9.86477e+21
-8.85643  9.89876e+21
-8.73913  9.91359e+21
-8.62182  9.91007e+21
-8.50452  9.89066e+21
-8.38721  9.85869e+21
-8.26991  9.81783e+21
-8.1526  9.77282e+21
-8.03529  9.72798e+21
-7.91799  9.68788e+21
-7.80069  9.6557e+21
-7.68338  9.63446e+21
-7.56608  9.62579e+21
-7.44877  9.63085e+21
-7.33146  9.64879e+21
-7.21416  9.6785e+21
-7.09685  9.71789e+21
-6.97955  9.76444e+21
-6.86224  9.81574e+21
-6.74494  9.86833e+21
-6.62763  9.92006e+21
-6.51033  9.96891e+21
-6.39302  1.00131e+22
-6.27572  1.00517e+22
-6.15842  1.00846e+22
-6.04111  1.01118e+22
-5.92381  1.01338e+22
-5.8065  1.01525e+22
-5.68919  1.0169e+22
-5.57189  1.01854e+22
-5.45458  1.02033e+22
-5.33728  1.02242e+22
-5.21997  1.02494e+22
-5.10267  1.02795e+22
-4.98536  1.03148e+22
-4.86806  1.0354e+22
-4.75075  1.03962e+22
-4.63345  1.044e+22
-4.51614  1.0483e+22
-4.39884  1.05235e+22
-4.28154  1.05596e+22
-4.16423  1.05901e+22
-4.04692  1.0614e+22
-3.92962  1.06308e+22
-3.81231  1.06408e+22
-3.69501  1.06448e+22
-3.5777  1.06437e+22
-3.4604  1.06386e+22
-3.34309  1.06308e+22
-3.22579  1.06218e+22
-3.10849  1.06128e+22
-2.99118  1.06051e+22
-2.87387  1.05993e+22
-2.75657  1.05964e+22
-2.63926  1.05964e+22
-2.52196  1.05995e+22
-2.40465  1.06054e+22
-2.28735  1.06135e+22
-2.17005  1.06234e+22
-2.05274  1.06335e+22
-1.93544  1.06432e+22
-1.81813  1.06513e+22
-1.70083  1.0657e+22
-1.58352  1.06592e+22
-1.46622  1.06579e+22
-1.34891  1.06525e+22
-1.2316  1.06435e+22
-1.1143  1.06314e+22
-0.996995  1.06174e+22
-0.87969  1.06021e+22
-0.762385  1.05869e+22
-0.64508  1.05725e+22
-0.527775  1.05598e+22
-0.41047  1.05493e+22
-0.293165  1.05414e+22
-0.17586  1.0536e+22
-0.058555  1.05333e+22
0.05875  1.05335e+22
0.176055  1.05362e+22
0.29336  1.0542e+22
0.410665  1.05501e+22
0.52797  1.0561e+22
0.645275  1.05739e+22
0.76258  1.05886e+22
0.879885  1.06041e+22
0.99719  1.06196e+22
1.1145  1.06343e+22
1.2318  1.06466e+22
1.3491  1.06558e+22
1.46641  1.06617e+22
1.58371  1.06637e+22
1.70102  1.06622e+22
1.81832  1.06572e+22
1.93563  1.06501e+22
2.05294  1.06411e+22
2.17024  1.06317e+22
2.28754  1.0623e+22
2.40485  1.06158e+22
2.52216  1.06111e+22
2.63946  1.06087e+22
2.75677  1.06097e+22
2.87407  1.06135e+22
2.99137  1.062e+22
3.10868  1.06283e+22
3.22599  1.06376e+22
3.34329  1.06468e+22
3.4606  1.06549e+22
3.5779  1.06599e+22
3.69521  1.06611e+22
3.81251  1.0657e+22
3.92982  1.06469e+22
4.04712  1.06298e+22
4.16443  1.06059e+22
4.28173  1.05754e+22
4.39903  1.05392e+22
4.51634  1.04987e+22
4.63364  1.0456e+22
4.75095  1.04125e+22
4.86825  1.03706e+22
4.98556  1.03319e+22
5.10286  1.02971e+22
5.22017  1.02675e+22
5.33748  1.02427e+22
5.45478  1.02223e+22
5.57209  1.02049e+22
5.68939  1.01888e+22
5.8067  1.01727e+22
5.924  1.01542e+22
6.0413  1.01322e+22
6.15861  1.01051e+22
6.27591  1.00725e+22
6.39322  1.00342e+22
6.51052  9.99033e+21
6.62783  9.94181e+21
6.74514  9.89027e+21
6.86244  9.83802e+21
6.97975  9.78768e+21
7.09705  9.74181e+21
7.21436  9.70344e+21
7.33166  9.67428e+21
7.44897  9.65743e+21
7.56627  9.6535e+21
7.68358  9.66288e+21
7.80088  9.6851e+21
7.91819  9.71776e+21
8.03549  9.75873e+21
8.1528  9.80419e+21
8.2701  9.84918e+21
8.38741  9.89024e+21
8.50471  9.92231e+21
8.62202  9.94167e+21
8.73932  9.94479e+21
8.85662  9.92975e+21
8.97393  9.89567e+21
9.09123  9.84261e+21
9.20854  9.77254e+21
9.32584  9.68862e+21
9.44315  9.59408e+21
9.56045  9.4936e+21
9.67776  9.39148e+21
9.79506  9.29174e+21
9.91237  9.19858e+21
10.0297  9.11447e+21
10.147  9.04171e+21
10.2643  8.98082e+21
10.3816  8.93165e+21
10.4989  8.89375e+21
10.6162  8.86461e+21
10.7335  8.84235e+21
10.8508  8.82378e+21
10.9681  8.80657e+21
11.0854  8.78782e+21
11.2027  8.76507e+21
11.32  8.73653e+21
11.4373  8.70158e+21
11.5546  8.66023e+21
11.6719  8.61377e+21
11.7893  8.56374e+21
11.9066  8.51243e+21
12.0239  8.46246e+21
12.1412  8.41716e+21
12.2585  8.37867e+21
12.3758  8.34895e+21
12.4931  8.32986e+21
12.6104  8.32143e+21
12.7277  8.32379e+21
12.845  8.33591e+21
12.9623  8.35526e+21
13.0796  8.37978e+21
13.1969  8.40588e+21
13.3142  8.4298e+21
13.4315  8.44781e+21
13.5488  8.45611e+21
13.6661  8.45147e+21
13.7834  8.43104e+21
13.9007  8.39363e+21
14.018  8.33914e+21
14.1354  8.26782e+21
14.2527  8.18204e+21
14.37  8.08442e+21
14.4873  7.97849e+21
14.6046  7.86841e+21
14.7219  7.75767e+21
14.8392  7.65019e+21
14.9565  7.54888e+21
15.0738  7.45633e+21
15.1911  7.37482e+21
15.3084  7.3052e+21
15.4257  7.24834e+21
15.543  7.20391e+21
15.6603  7.17138e+21
15.7776  7.14938e+21
15.8949  7.13611e+21
16.0122  7.12895e+21
16.1295  7.12608e+21
16.2468  7.12482e+21
16.3641  7.12288e+21
16.4815  7.1186e+21
16.5988  7.10972e+21
16.7161  7.09557e+21
16.8334  7.07585e+21
16.9507  7.04998e+21
17.068  7.01847e+21
17.1853  6.98216e+21
17.3026  6.94158e+21
17.4199  6.89806e+21
17.5372  6.85288e+21
17.6545  6.80652e+21
17.7718  6.76054e+21
17.8891  6.71543e+21
18.0064  6.67177e+21
18.1237  6.63e+21
18.241  6.58974e+21
18.3583  6.55096e+21
18.4756  6.51253e+21
18.5929  6.47406e+21
18.7102  6.43469e+21
18.8275  6.39308e+21
18.9449  6.34876e+21
19.0622  6.30105e+21
19.1795  6.24999e+21
19.2968  6.19529e+21
19.4141  6.1376e+21
19.5314  6.07739e+21
19.6487  6.01564e+21
19.766  5.95317e+21
19.8833  5.89145e+21
20.0006  5.83166e+21
20.1179  5.77509e+21
20.2352  5.72282e+21
20.3525  5.67574e+21
20.4698  5.63461e+21
20.5871  5.59963e+21
20.7044  5.5701e+21
20.8217  5.54566e+21
20.939  5.52488e+21
21.0563  5.50608e+21
21.1736  5.48766e+21
21.291  5.46733e+21
21.4083  5.44401e+21
21.5256  5.41603e+21
21.6429  5.38243e+21
21.7602  5.34273e+21
21.8775  5.29705e+21
21.9948  5.24562e+21
22.1121  5.18939e+21
22.2294  5.12968e+21
22.3467  5.06794e+21
22.464  5.00599e+21
22.5813  4.94558e+21
22.6986  4.88883e+21
22.8159  4.83734e+21
22.9332  4.79252e+21
23.0505  4.75535e+21
23.1678  4.72579e+21
23.2851  4.70378e+21
23.4024  4.68818e+21
23.5198  4.67687e+21
23.6371  4.66811e+21
23.7544  4.65934e+21
23.8717  4.6486e+21
23.989  4.63339e+21
24.1063  4.61225e+21
24.2236  4.58373e+21
24.3409  4.5472e+21
24.4582  4.50226e+21
24.5755  4.44927e+21
24.6928  4.3891e+21
24.8101  4.32309e+21
24.9274  4.25252e+21
25.0447  4.17931e+21
25.162  4.10552e+21
25.2793  4.0331e+21
25.3966  3.96362e+21
25.5139  3.89879e+21
25.6312  3.83956e+21
25.7485  3.78662e+21
25.8658  3.74048e+21
25.9832  3.70069e+21
26.1005  3.66748e+21
26.2178  3.64e+21
26.3351  3.61784e+21
26.4524  3.6001e+21
26.5697  3.58613e+21
26.687  3.5751e+21
26.8043  3.5663e+21
26.9216  3.55896e+21
27.0389  3.55235e+21
27.1562  3.54574e+21
27.2735  3.53868e+21
27.3908  3.53062e+21
27.5081  3.52121e+21
27.6254  3.50995e+21
27.7427  3.49629e+21
27.86  3.47952e+21
27.9773  3.45906e+21
28.0946  3.43388e+21
28.212  3.40324e+21
28.3293  3.3667e+21
28.4466  3.32393e+21
28.5639  3.27539e+21
28.6812  3.22133e+21
28.7985  3.16303e+21
28.9158  3.10161e+21
29.0331  3.03862e+21
29.1504  2.97542e+21
29.2677  2.91336e+21
29.385  2.85384e+21
29.5023  2.79792e+21
29.6196  2.74645e+21
29.7369  2.70011e+21
29.8542  2.65947e+21
29.9715  2.62492e+21
30.0888  2.59635e+21
30.2061  2.57368e+21
30.3234  2.55618e+21
30.4407  2.54294e+21
30.558  2.53301e+21
30.6754  2.52513e+21
30.7927  2.5185e+21
30.91  2.51177e+21
31.0273  2.50447e+21
31.1446  2.49607e+21
31.2619  2.48629e+21
31.3792  2.47521e+21
31.4965  2.46287e+21
31.6138  2.44946e+21
31.7311  2.43538e+21
31.8484  2.4208e+21
31.9657  2.40622e+21
32.083  2.39169e+21
32.2003  2.37773e+21
32.3176  2.36427e+21
32.4349  2.35118e+21
32.5522  2.33833e+21
32.6695  2.32519e+21
32.7868  2.31114e+21
32.9042  2.29546e+21
33.0215  2.27782e+21
33.1388  2.25771e+21
33.2561  2.23519e+21
33.3734  2.21014e+21
33.4907  2.18297e+21
33.608  2.15394e+21
33.7253  2.12347e+21
33.8426  2.09186e+21
33.9599  2.05917e+21
34.0772  2.02567e+21
34.1945  1.99152e+21
34.3118  1.95675e+21
34.4291  1.92162e+21
34.5464  1.88631e+21
34.6637  1.8512e+21
34.781  1.8164e+21
34.8983  1.78199e+21
35.0156  1.74783e+21
35.1329  1.7137e+21
35.2503  1.67944e+21
35.3676  1.64483e+21
35.4849  1.61023e+21
35.6022  1.5757e+21
35.7195  1.54211e+21
35.8368  1.51013e+21
35.9541  1.4805e+21
36.0714  1.45397e+21
36.1887  1.43089e+21
36.306  1.41118e+21
36.4233  1.39474e+21
36.5406  1.38105e+21
36.6579  1.36966e+21
36.7752  1.3601e+21
36.8925  1.35223e+21
37.0098  1.34599e+21
37.1271  1.34143e+21
37.2444  1.33864e+21
37.3617  1.33758e+21
37.479  1.33791e+21
37.5964  1.33906e+21
37.7137  1.34048e+21
37.831  1.34145e+21
37.9483  1.34147e+21
38.0656  1.34008e+21
38.1829  1.3373e+21
38.3002  1.33337e+21
38.4175  1.32871e+21
38.5348  1.32361e+21
38.6521  1.31834e+21
38.7694  1.31293e+21
38.8867  1.30708e+21
39.004  1.30029e+21
39.1213  1.29183e+21
39.2386  1.28111e+21
39.3559  1.26769e+21
39.4732  1.25147e+21
39.5905  1.23245e+21
39.7078  1.21103e+21
39.8251  1.18777e+21
39.9425  1.16359e+21
40.0598  1.13924e+21
40.1771  1.11582e+21
40.2944  1.09387e+21
40.4117  1.07434e+21
40.529  1.05776e+21
40.6463  1.04439e+21
40.7636  1.03465e+21
40.8809  1.02836e+21
40.9982  1.02513e+21
41.1155  1.02452e+21
41.2328  1.02561e+21
41.3501  1.02754e+21
41.4674  1.02927e+21
41.5847  1.03001e+21
41.702  1.02902e+21
41.8193  1.02574e+21
41.9366  1.01986e+21
42.0539  1.01133e+21
42.1712  1.00019e+21
42.2885  9.86702e+20
42.4059  9.71285e+20
42.5232  9.54686e+20
42.6405  9.3738e+20
42.7578  9.20165e+20
42.8751  9.03794e+20
42.9924  8.88878e+20
43.1097  8.76073e+20
43.227  8.65454e+20
43.3443  8.56928e+20
43.4616  8.5007e+20
43.5789  8.44103e+20
43.6962  8.38159e+20
43.8135  8.31092e+20
43.9308  8.22183e+20
44.0481  8.10766e+20
44.1654  7.96594e+20
44.2827  7.79868e+20
44.4  7.61091e+20
44.5173  7.40894e+20
44.6347  7.20384e+20
44.752  7.00712e+20
44.8693  6.82862e+20
44.9866  6.67737e+20
45.1039  6.56477e+20
45.2212  6.49699e+20
45.3385  6.48056e+20
45.4558  6.51895e+20
45.5731  6.61186e+20
45.6904  6.75252e+20
45.8077  6.93312e+20
45.925  7.13801e+20
46.0423  7.35023e+20
46.1596  7.54887e+20
46.2769  7.7162e+20
46.3942  7.83517e+20
46.5115  7.8929e+20
46.6288  7.88492e+20
46.7461  7.81117e+20
46.8634  7.67841e+20
46.9808  7.49934e+20
47.0981  7.28834e+20
47.2154  7.06421e+20
47.3327  6.84143e+20
47.45  6.63792e+20
47.5673  6.46461e+20
47.6846  6.33039e+20
47.8019  6.2441e+20
47.9192  6.20649e+20
48.0365  6.21677e+20
48.1538  6.27072e+20
48.2711  6.35967e+20
48.3884  6.47474e+20
48.5057  6.60298e+20
48.623  6.73258e+20
48.7403  6.85007e+20
48.8576  6.94371e+20
48.9749  7.00577e+20
49.0922  7.02963e+20
49.2095  7.01074e+20
49.3269  6.94956e+20
49.4442  6.8503e+20
49.5615  6.71474e+20
49.6788  6.55173e+20
49.7961  6.37203e+20
49.9134  6.18394e+20
50.0307  5.99879e+20
50.148  5.82704e+20
50.2653  5.67732e+20
50.3826  5.55424e+20
50.4999  5.46299e+20
50.6172  5.40225e+20
50.7345  5.37194e+20
50.8518  5.3663e+20
