#S 1 spectral density
#N 2
#UFWHM 24.1648
#L  abscissas [um]  spectral density
-58.5938  1.63817e+20
-58.4764  1.67165e+20
-58.3591  1.71223e+20
-58.2418  1.76074e+20
-58.1245  1.81658e+20
-58.0072  1.88082e+20
-57.8899  1.95465e+20
-57.7726  2.03704e+20
-57.6553  2.12717e+20
-57.538  2.22104e+20
-57.4207  2.3112e+20
-57.3034  2.38994e+20
-57.1861  2.44807e+20
-57.0688  2.47882e+20
-56.9515  2.47693e+20
-56.8342  2.44185e+20
-56.7169  2.37746e+20
-56.5996  2.28989e+20
-56.4823  2.18847e+20
-56.365  2.08187e+20
-56.2477  1.97796e+20
-56.1303  1.88256e+20
-56.013  1.79913e+20
-55.8957  1.72974e+20
-55.7784  1.67536e+20
-55.6611  1.63632e+20
-55.5438  1.6128e+20
-55.4265  1.605e+20
-55.3092  1.61205e+20
-55.1919  1.63272e+20
-55.0746  1.66362e+20
-54.9573  1.70099e+20
-54.84  1.74029e+20
-54.7227  1.77828e+20
-54.6054  1.81209e+20
-54.4881  1.84178e+20
-54.3708  1.86814e+20
-54.2535  1.89476e+20
-54.1362  1.92465e+20
-54.0189  1.95955e+20
-53.9016  1.99894e+20
-53.7842  2.0409e+20
-53.6669  2.08035e+20
-53.5496  2.11378e+20
-53.4323  2.13617e+20
-53.315  2.14614e+20
-53.1977  2.14476e+20
-53.0804  2.13461e+20
-52.9631  2.12257e+20
-52.8458  2.11544e+20
-52.7285  2.11996e+20
-52.6112  2.14219e+20
-52.4939  2.18617e+20
-52.3766  2.25418e+20
-52.2593  2.34683e+20
-52.142  2.46246e+20
-52.0247  2.59862e+20
-51.9074  2.75064e+20
-51.7901  2.91279e+20
-51.6728  3.07772e+20
-51.5555  3.2367e+20
-51.4381  3.3785e+20
-51.3208  3.49464e+20
-51.2035  3.57593e+20
-51.0862  3.61984e+20
-50.9689  3.62418e+20
-50.8516  3.59382e+20
-50.7343  3.53803e+20
-50.617  3.46894e+20
-50.4997  3.39951e+20
-50.3824  3.34281e+20
-50.2651  3.30758e+20
-50.1478  3.30139e+20
-50.0305  3.32445e+20
-49.9132  3.37559e+20
-49.7959  3.44691e+20
-49.6786  3.52921e+20
-49.5613  3.61379e+20
-49.444  3.69194e+20
-49.3267  3.75521e+20
-49.2094  3.79832e+20
-49.092  3.81978e+20
-48.9747  3.81796e+20
-48.8574  3.79688e+20
-48.7401  3.76072e+20
-48.6228  3.71576e+20
-48.5055  3.66841e+20
-48.3882  3.6254e+20
-48.2709  3.59146e+20
-48.1536  3.56944e+20
-48.0363  3.56036e+20
-47.919  3.56383e+20
-47.8017  3.57632e+20
-47.6844  3.59471e+20
-47.5671  3.61486e+20
-47.4498  3.63309e+20
-47.3325  3.64479e+20
-47.2152  3.64721e+20
-47.0979  3.63621e+20
-46.9806  3.61083e+20
-46.8633  3.56954e+20
-46.7459  3.5116e+20
-46.6286  3.44079e+20
-46.5113  3.36065e+20
-46.394  3.28158e+20
-46.2767  3.21257e+20
-46.1594  3.1665e+20
-46.0421  3.1554e+20
-45.9248  3.18914e+20
-45.8075  3.27397e+20
-45.6902  3.41035e+20
-45.5729  3.59364e+20
-45.4556  3.81537e+20
-45.3383  4.06135e+20
-45.221  4.31907e+20
-45.1037  4.57236e+20
-44.9864  4.81103e+20
-44.8691  5.02509e+20
-44.7518  5.20978e+20
-44.6345  5.36197e+20
-44.5172  5.48226e+20
-44.3998  5.57171e+20
-44.2825  5.63074e+20
-44.1652  5.66103e+20
-44.0479  5.66376e+20
-43.9306  5.63937e+20
-43.8133  5.58917e+20
-43.696  5.5161e+20
-43.5787  5.42105e+20
-43.4614  5.30654e+20
-43.3441  5.17601e+20
-43.2268  5.03263e+20
-43.1095  4.87994e+20
-42.9922  4.72104e+20
-42.8749  4.56149e+20
-42.7576  4.40698e+20
-42.6403  4.26449e+20
-42.523  4.142e+20
-42.4057  4.04652e+20
-42.2884  3.98471e+20
-42.171  3.96063e+20
-42.0537  3.97524e+20
-41.9364  4.02638e+20
-41.8191  4.10725e+20
-41.7018  4.21032e+20
-41.5845  4.3252e+20
-41.4672  4.4433e+20
-41.3499  4.55596e+20
-41.2326  4.65831e+20
-41.1153  4.74747e+20
-40.998  4.82246e+20
-40.8807  4.88609e+20
-40.7634  4.94136e+20
-40.6461  4.99274e+20
-40.5288  5.04411e+20
-40.4115  5.09873e+20
-40.2942  5.16136e+20
-40.1769  5.23199e+20
-40.0596  5.311e+20
-39.9423  5.39887e+20
-39.825  5.49307e+20
-39.7076  5.59209e+20
-39.5903  5.69219e+20
-39.473  5.79259e+20
-39.3557  5.89393e+20
-39.2384  5.99813e+20
-39.1211  6.10973e+20
-39.0038  6.23542e+20
-38.8865  6.38083e+20
-38.7692  6.54979e+20
-38.6519  6.74534e+20
-38.5346  6.96385e+20
-38.4173  7.2002e+20
-38.3  7.44245e+20
-38.1827  7.67913e+20
-38.0654  7.89811e+20
-37.9481  8.09002e+20
-37.8308  8.2499e+20
-37.7135  8.37597e+20
-37.5962  8.47184e+20
-37.4789  8.54473e+20
-37.3615  8.60198e+20
-37.2442  8.65138e+20
-37.1269  8.69734e+20
-37.0096  8.74289e+20
-36.8923  8.79006e+20
-36.775  8.83885e+20
-36.6577  8.88976e+20
-36.5404  8.94336e+20
-36.4231  9.00161e+20
-36.3058  9.06586e+20
-36.1885  9.13676e+20
-36.0712  9.21343e+20
-35.9539  9.29356e+20
-35.8366  9.37178e+20
-35.7193  9.4433e+20
-35.602  9.50731e+20
-35.4847  9.56112e+20
-35.3674  9.61037e+20
-35.2501  9.66426e+20
-35.1328  9.73409e+20
-35.0154  9.83591e+20
-34.8981  9.97966e+20
-34.7808  1.0175e+21
-34.6635  1.04256e+21
-34.5462  1.07273e+21
-34.4289  1.10689e+21
-34.3116  1.14379e+21
-34.1943  1.18152e+21
-34.077  1.21828e+21
-33.9597  1.25264e+21
-33.8424  1.28314e+21
-33.7251  1.30906e+21
-33.6078  1.3299e+21
-33.4905  1.34571e+21
-33.3732  1.35703e+21
-33.2559  1.36465e+21
-33.1386  1.3699e+21
-33.0213  1.37394e+21
-32.904  1.37815e+21
-32.7867  1.38403e+21
-32.6693  1.39246e+21
-32.552  1.40404e+21
-32.4347  1.41869e+21
-32.3174  1.43566e+21
-32.2001  1.454e+21
-32.0828  1.47216e+21
-31.9655  1.48873e+21
-31.8482  1.50233e+21
-31.7309  1.51189e+21
-31.6136  1.51704e+21
-31.4963  1.51783e+21
-31.379  1.51498e+21
-31.2617  1.50939e+21
-31.1444  1.50243e+21
-31.0271  1.49569e+21
-30.9098  1.49082e+21
-30.7925  1.48886e+21
-30.6752  1.49092e+21
-30.5579  1.49757e+21
-30.4406  1.50895e+21
-30.3232  1.525e+21
-30.2059  1.54466e+21
-30.0886  1.56672e+21
-29.9713  1.58987e+21
-29.854  1.61259e+21
-29.7367  1.6333e+21
-29.6194  1.65143e+21
-29.5021  1.66622e+21
-29.3848  1.67794e+21
-29.2675  1.68757e+21
-29.1502  1.69607e+21
-29.0329  1.70511e+21
-28.9156  1.71618e+21
-28.7983  1.73065e+21
-28.681  1.74967e+21
-28.5637  1.77382e+21
-28.4464  1.80363e+21
-28.3291  1.83862e+21
-28.2118  1.87791e+21
-28.0944  1.92082e+21
-27.9771  1.96577e+21
-27.8598  2.01098e+21
-27.7425  2.0549e+21
-27.6252  2.09516e+21
-27.5079  2.13058e+21
-27.3906  2.15965e+21
-27.2733  2.18174e+21
-27.156  2.19704e+21
-27.0387  2.20581e+21
-26.9214  2.20982e+21
-26.8041  2.21073e+21
-26.6868  2.21064e+21
-26.5695  2.21143e+21
-26.4522  2.21464e+21
-26.3349  2.22182e+21
-26.2176  2.23375e+21
-26.1003  2.25042e+21
-25.983  2.27123e+21
-25.8657  2.29538e+21
-25.7483  2.3216e+21
-25.631  2.34875e+21
-25.5137  2.37548e+21
-25.3964  2.40022e+21
-25.2791  2.42214e+21
-25.1618  2.44047e+21
-25.0445  2.45464e+21
-24.9272  2.4648e+21
-24.8099  2.47097e+21
-24.6926  2.47385e+21
-24.5753  2.47476e+21
-24.458  2.4741e+21
-24.3407  2.47327e+21
-24.2234  2.47321e+21
-24.1061  2.47487e+21
-23.9888  2.47905e+21
-23.8715  2.48643e+21
-23.7542  2.49788e+21
-23.6369  2.51379e+21
-23.5196  2.53437e+21
-23.4023  2.56044e+21
-23.2849  2.59167e+21
-23.1676  2.62784e+21
-23.0503  2.66872e+21
-22.933  2.71277e+21
-22.8157  2.75936e+21
-22.6984  2.8068e+21
-22.5811  2.8538e+21
-22.4638  2.89952e+21
-22.3465  2.94242e+21
-22.2292  2.98265e+21
-22.1119  3.01965e+21
-21.9946  3.05388e+21
-21.8773  3.08561e+21
-21.76  3.11542e+21
-21.6427  3.14448e+21
-21.5254  3.1736e+21
-21.4081  3.2037e+21
-21.2908  3.23543e+21
-21.1735  3.26954e+21
-21.0561  3.30656e+21
-20.9388  3.34692e+21
-20.8215  3.39093e+21
-20.7042  3.43778e+21
-20.5869  3.48724e+21
-20.4696  3.5384e+21
-20.3523  3.59013e+21
-20.235  3.64135e+21
-20.1177  3.69073e+21
-20.0004  3.73741e+21
-19.8831  3.78142e+21
-19.7658  3.82175e+21
-19.6485  3.85904e+21
-19.5312  3.89375e+21
-19.4139  3.92687e+21
-19.2966  3.9592e+21
-19.1793  3.99203e+21
-19.062  4.02643e+21
-18.9447  4.06339e+21
-18.8274  4.10345e+21
-18.71  4.14785e+21
-18.5927  4.19638e+21
-18.4754  4.24934e+21
-18.3581  4.30678e+21
-18.2408  4.36793e+21
-18.1235  4.43236e+21
-18.0062  4.4992e+21
-17.8889  4.56778e+21
-17.7716  4.63781e+21
-17.6543  4.70825e+21
-17.537  4.77961e+21
-17.4197  4.85162e+21
-17.3024  4.92489e+21
-17.1851  4.9997e+21
-17.0678  5.07648e+21
-16.9505  5.1559e+21
-16.8332  5.2382e+21
-16.7159  5.32323e+21
-16.5986  5.41054e+21
-16.4813  5.4995e+21
-16.364  5.58921e+21
-16.2466  5.67882e+21
-16.1293  5.76759e+21
-16.012  5.85418e+21
-15.8947  5.93829e+21
-15.7774  6.01953e+21
-15.6601  6.09782e+21
-15.5428  6.17344e+21
-15.4255  6.24709e+21
-15.3082  6.31963e+21
-15.1909  6.39286e+21
-15.0736  6.46752e+21
-14.9563  6.54535e+21
-14.839  6.6275e+21
-14.7217  6.71474e+21
-14.6044  6.80696e+21
-14.4871  6.9039e+21
-14.3698  7.00428e+21
-14.2525  7.10613e+21
-14.1352  7.20717e+21
-14.0178  7.30564e+21
-13.9005  7.3991e+21
-13.7832  7.48631e+21
-13.6659  7.56673e+21
-13.5486  7.64042e+21
-13.4313  7.70833e+21
-13.314  7.77243e+21
-13.1967  7.83518e+21
-13.0794  7.89939e+21
-12.9621  7.96765e+21
-12.8448  8.04323e+21
-12.7275  8.12807e+21
-12.6102  8.22402e+21
-12.4929  8.33212e+21
-12.3756  8.45188e+21
-12.2583  8.58253e+21
-12.141  8.72198e+21
-12.0237  8.86715e+21
-11.9064  9.01396e+21
-11.7891  9.15835e+21
-11.6718  9.29615e+21
-11.5544  9.42375e+21
-11.4371  9.53883e+21
-11.3198  9.63942e+21
-11.2025  9.726e+21
-11.0852  9.80047e+21
-10.9679  9.86589e+21
-10.8506  9.92683e+21
-10.7333  9.98833e+21
-10.616  1.0056e+22
-10.4987  1.01355e+22
-10.3814  1.02311e+22
-10.2641  1.03469e+22
-10.1468  1.04847e+22
-10.0295  1.06454e+22
-9.91217  1.08273e+22
-9.79487  1.10276e+22
-9.67756  1.12416e+22
-9.56026  1.14631e+22
-9.44295  1.16852e+22
-9.32565  1.1901e+22
-9.20834  1.21038e+22
-9.09104  1.22874e+22
-8.97373  1.24477e+22
-8.85643  1.25821e+22
-8.73913  1.26896e+22
-8.62182  1.27718e+22
-8.50452  1.28321e+22
-8.38721  1.2875e+22
-8.26991  1.29062e+22
-8.1526  1.29326e+22
-8.03529  1.296e+22
-7.91799  1.29946e+22
-7.80069  1.30413e+22
-7.68338  1.31034e+22
-7.56608  1.31837e+22
-7.44877  1.32825e+22
-7.33146  1.33992e+22
-7.21416  1.35313e+22
-7.09685  1.36756e+22
-6.97955  1.38283e+22
-6.86224  1.39853e+22
-6.74494  1.41429e+22
-6.62763  1.42969e+22
-6.51033  1.44451e+22
-6.39302  1.45855e+22
-6.27572  1.47172e+22
-6.15842  1.48401e+22
-6.04111  1.49551e+22
-5.92381  1.50633e+22
-5.8065  1.5167e+22
-5.68919  1.52678e+22
-5.57189  1.53679e+22
-5.45458  1.54687e+22
-5.33728  1.55715e+22
-5.21997  1.56765e+22
-5.10267  1.57836e+22
-4.98536  1.58915e+22
-4.86806  1.59985e+22
-4.75075  1.61019e+22
-4.63345  1.61992e+22
-4.51614  1.62881e+22
-4.39884  1.6366e+22
-4.28154  1.64319e+22
-4.16423  1.64848e+22
-4.04692  1.65246e+22
-3.92962  1.65524e+22
-3.81231  1.65701e+22
-3.69501  1.658e+22
-3.5777  1.65844e+22
-3.4604  1.65866e+22
-3.34309  1.65892e+22
-3.22579  1.65948e+22
-3.10849  1.66055e+22
-2.99118  1.6623e+22
-2.87387  1.66489e+22
-2.75657  1.66833e+22
-2.63926  1.67267e+22
-2.52196  1.67782e+22
-2.40465  1.68368e+22
-2.28735  1.69006e+22
-2.17005  1.69677e+22
-2.05274  1.70363e+22
-1.93544  1.71034e+22
-1.81813  1.71669e+22
-1.70083  1.72251e+22
-1.58352  1.7276e+22
-1.46622  1.73188e+22
-1.34891  1.73529e+22
-1.2316  1.73782e+22
-1.1143  1.73961e+22
-0.996995  1.74071e+22
-0.87969  1.74128e+22
-0.762385  1.74144e+22
-0.64508  1.74137e+22
-0.527775  1.74116e+22
-0.41047  1.7409e+22
-0.293165  1.74066e+22
-0.17586  1.74046e+22
-0.058555  1.74033e+22
0.05875  1.74026e+22
0.176055  1.74027e+22
0.29336  1.74033e+22
0.410665  1.74046e+22
0.52797  1.74058e+22
0.645275  1.74068e+22
0.76258  1.74063e+22
0.879885  1.74035e+22
0.99719  1.73968e+22
1.1145  1.73846e+22
1.2318  1.73659e+22
1.3491  1.73394e+22
1.46641  1.73043e+22
1.58371  1.72605e+22
1.70102  1.72086e+22
1.81832  1.71498e+22
1.93563  1.70852e+22
2.05294  1.70173e+22
2.17024  1.69483e+22
2.28754  1.68805e+22
2.40485  1.68161e+22
2.52216  1.67567e+22
2.63946  1.67048e+22
2.75677  1.6661e+22
2.87407  1.66257e+22
2.99137  1.65992e+22
3.10868  1.65808e+22
3.22599  1.65692e+22
3.34329  1.65626e+22
3.4606  1.65589e+22
3.5779  1.65555e+22
3.69521  1.65496e+22
3.81251  1.65383e+22
3.92982  1.65188e+22
4.04712  1.64891e+22
4.16443  1.64475e+22
4.28173  1.63929e+22
4.39903  1.63253e+22
4.51634  1.62455e+22
4.63364  1.61553e+22
4.75095  1.60564e+22
4.86825  1.59519e+22
4.98556  1.58438e+22
5.10286  1.57351e+22
5.22017  1.5627e+22
5.33748  1.55213e+22
5.45478  1.54178e+22
5.57209  1.53163e+22
5.68939  1.52156e+22
5.8067  1.51141e+22
5.924  1.50096e+22
6.0413  1.49006e+22
6.15861  1.47848e+22
6.27591  1.4661e+22
6.39322  1.45286e+22
6.51052  1.43875e+22
6.62783  1.42384e+22
6.74514  1.40837e+22
6.86244  1.39259e+22
6.97975  1.37686e+22
7.09705  1.36158e+22
7.21436  1.34713e+22
7.33166  1.33395e+22
7.44897  1.32233e+22
7.56627  1.31248e+22
7.68358  1.30447e+22
7.80088  1.29828e+22
7.91819  1.29363e+22
8.03549  1.29019e+22
8.1528  1.28745e+22
8.2701  1.28479e+22
8.38741  1.2816e+22
8.50471  1.27724e+22
8.62202  1.27114e+22
8.73932  1.26281e+22
8.85662  1.25196e+22
8.97393  1.23846e+22
9.09123  1.22234e+22
9.20854  1.20393e+22
9.32584  1.18365e+22
9.44315  1.16206e+22
9.56045  1.13988e+22
9.67776  1.11778e+22
9.79506  1.09648e+22
9.91237  1.07654e+22
10.0297  1.05847e+22
10.147  1.04253e+22
10.2643  1.02885e+22
10.3816  1.01738e+22
10.4989  1.0079e+22
10.6162  1.00001e+22
10.7335  9.93291e+21
10.8508  9.87146e+21
10.9681  9.81045e+21
11.0854  9.74483e+21
11.2027  9.67006e+21
11.32  9.58264e+21
11.4373  9.48145e+21
11.5546  9.36607e+21
11.6719  9.23781e+21
11.7893  9.09983e+21
11.9066  8.95532e+21
12.0239  8.80854e+21
12.1412  8.66385e+21
12.2585  8.52501e+21
12.3758  8.39476e+21
12.4931  8.27575e+21
12.6104  8.16851e+21
12.7277  8.07354e+21
12.845  7.98977e+21
12.9623  7.91512e+21
13.0796  7.84749e+21
13.1969  7.78412e+21
13.3142  7.72199e+21
13.4315  7.65839e+21
13.5488  7.59089e+21
13.6661  7.51768e+21
13.7834  7.43749e+21
13.9007  7.35039e+21
14.018  7.25725e+21
14.1354  7.159e+21
14.2527  7.05798e+21
14.37  6.95638e+21
14.4873  6.85623e+21
14.6046  6.75955e+21
14.7219  6.66753e+21
14.8392  6.5807e+21
14.9565  6.49891e+21
15.0738  6.4213e+21
15.1911  6.34696e+21
15.3084  6.27428e+21
15.4257  6.20208e+21
15.543  6.12886e+21
15.6603  6.05376e+21
15.7776  5.9762e+21
15.8949  5.89569e+21
16.0122  5.81214e+21
16.1295  5.72619e+21
16.2468  5.63832e+21
16.3641  5.54935e+21
16.4815  5.46048e+21
16.5988  5.37226e+21
16.7161  5.28562e+21
16.8334  5.20137e+21
16.9507  5.11984e+21
17.068  5.04088e+21
17.1853  4.96455e+21
17.3026  4.89021e+21
17.4199  4.81765e+21
17.5372  4.74623e+21
17.6545  4.67541e+21
17.7718  4.60536e+21
17.8891  4.53613e+21
18.0064  4.46799e+21
18.1237  4.40175e+21
18.241  4.33805e+21
18.3583  4.27764e+21
18.4756  4.22084e+21
18.5929  4.16836e+21
18.7102  4.12052e+21
18.8275  4.07669e+21
18.9449  4.0368e+21
19.0622  4.00027e+21
19.1795  3.96605e+21
19.2968  3.93344e+21
19.4141  3.90114e+21
19.5314  3.86819e+21
19.6487  3.83365e+21
19.766  3.79635e+21
19.8833  3.75619e+21
20.0006  3.71263e+21
20.1179  3.66614e+21
20.2352  3.61707e+21
20.3525  3.56643e+21
20.4698  3.51544e+21
20.5871  3.46511e+21
20.7044  3.41631e+21
20.8217  3.37008e+21
20.939  3.32701e+21
21.0563  3.28726e+21
21.1736  3.25094e+21
21.291  3.21728e+21
21.4083  3.186e+21
21.5256  3.15641e+21
21.6429  3.12757e+21
21.7602  3.09861e+21
21.8775  3.06872e+21
21.9948  3.03696e+21
22.1121  3.00292e+21
22.2294  2.966e+21
22.3467  2.92578e+21
22.464  2.88286e+21
22.5813  2.83747e+21
22.6986  2.79058e+21
22.8159  2.74347e+21
22.9332  2.69735e+21
23.0505  2.65367e+21
23.1678  2.61333e+21
23.2851  2.57756e+21
23.4024  2.54705e+21
23.5198  2.52141e+21
23.6371  2.50114e+21
23.7544  2.48568e+21
23.8717  2.47458e+21
23.989  2.46747e+21
24.1063  2.46339e+21
24.2236  2.46197e+21
24.3409  2.46228e+21
24.4582  2.46306e+21
24.5755  2.46385e+21
24.6928  2.46313e+21
24.8101  2.46019e+21
24.9274  2.45391e+21
25.0447  2.44388e+21
25.162  2.42982e+21
25.2793  2.41174e+21
25.3966  2.38985e+21
25.5139  2.36512e+21
25.6312  2.33864e+21
25.7485  2.31166e+21
25.8658  2.28567e+21
25.9832  2.26159e+21
26.1005  2.24095e+21
26.2178  2.22467e+21
26.3351  2.21294e+21
26.4524  2.20575e+21
26.5697  2.20249e+21
26.687  2.20164e+21
26.8043  2.20177e+21
26.9216  2.20094e+21
27.0389  2.19658e+21
27.1562  2.18755e+21
27.2735  2.17215e+21
27.3908  2.14985e+21
27.5081  2.12061e+21
27.6254  2.08512e+21
27.7427  2.0448e+21
27.86  2.00103e+21
27.9773  1.95585e+21
28.0946  1.91128e+21
28.212  1.86853e+21
28.3293  1.82944e+21
28.4466  1.79481e+21
28.5639  1.76534e+21
28.6812  1.74137e+21
28.7985  1.7225e+21
28.9158  1.70829e+21
29.0331  1.69737e+21
29.1504  1.68827e+21
29.2677  1.6798e+21
29.385  1.67008e+21
29.5023  1.65817e+21
29.6196  1.64307e+21
29.7369  1.62486e+21
29.8542  1.60396e+21
29.9715  1.58127e+21
30.0888  1.55803e+21
30.2061  1.5358e+21
30.3234  1.51613e+21
30.4407  1.50028e+21
30.558  1.48893e+21
30.6754  1.48238e+21
30.7927  1.48034e+21
30.91  1.48249e+21
31.0273  1.48755e+21
31.1446  1.49423e+21
31.2619  1.50115e+21
31.3792  1.50664e+21
31.4965  1.50953e+21
31.6138  1.50879e+21
31.7311  1.5034e+21
31.8484  1.49376e+21
31.9657  1.48006e+21
32.083  1.4635e+21
32.2003  1.44525e+21
32.3176  1.42695e+21
32.4349  1.41003e+21
32.5522  1.3955e+21
32.6695  1.384e+21
32.7868  1.37571e+21
32.9042  1.3699e+21
33.0215  1.36567e+21
33.1388  1.36173e+21
33.2561  1.35652e+21
33.3734  1.3489e+21
33.4907  1.33758e+21
33.608  1.32177e+21
33.7253  1.30093e+21
33.8426  1.27497e+21
33.9599  1.24455e+21
34.0772  1.21024e+21
34.1945  1.17346e+21
34.3118  1.13579e+21
34.4291  1.09905e+21
34.5464  1.06507e+21
34.6637  1.03515e+21
34.781  1.01033e+21
34.8983  9.9088e+20
35.0156  9.76616e+20
35.1329  9.6667e+20
35.2503  9.59728e+20
35.3676  9.54492e+20
35.4849  9.4952e+20
35.6022  9.44208e+20
35.7195  9.37979e+20
35.8368  9.30809e+20
35.9541  9.23104e+20
36.0714  9.15278e+20
36.1887  9.07733e+20
36.306  9.0084e+20
36.4233  8.94507e+20
36.5406  8.88817e+20
36.6579  8.83543e+20
36.7752  8.78538e+20
36.8925  8.73713e+20
37.0098  8.69041e+20
37.1271  8.6454e+20
37.2444  8.59975e+20
37.3617  8.55069e+20
37.479  8.49382e+20
37.5964  8.42089e+20
37.7137  8.32464e+20
37.831  8.19872e+20
37.9483  8.03909e+20
38.0656  7.84762e+20
38.1829  7.62898e+20
38.3002  7.39371e+20
38.4175  7.15297e+20
38.5348  6.91838e+20
38.6521  6.70202e+20
38.7694  6.50824e+20
38.8867  6.34085e+20
39.004  6.19696e+20
39.1213  6.07304e+20
39.2386  5.9623e+20
39.3559  5.85819e+20
39.4732  5.75769e+20
39.5905  5.65709e+20
39.7078  5.55715e+20
39.8251  5.45955e+20
39.9425  5.36587e+20
40.0598  5.27926e+20
40.1771  5.20009e+20
40.2944  5.13089e+20
40.4117  5.06992e+20
40.529  5.01586e+20
40.6463  4.96552e+20
40.7636  4.9147e+20
40.8809  4.85977e+20
40.9982  4.79718e+20
41.1155  4.72147e+20
41.2328  4.63251e+20
41.3501  4.53036e+20
41.4674  4.4181e+20
41.5847  4.30017e+20
41.702  4.18575e+20
41.8193  4.08392e+20
41.9366  4.00411e+20
42.0539  3.95447e+20
42.1712  3.94152e+20
42.2885  3.9675e+20
42.4059  4.03085e+20
42.5232  4.12792e+20
42.6405  4.25151e+20
42.7578  4.39472e+20
42.8751  4.54977e+20
42.9924  4.71006e+20
43.1097  4.86871e+20
43.227  5.02135e+20
43.3443  5.16455e+20
43.4616  5.29382e+20
43.5789  5.40691e+20
43.6962  5.50069e+20
43.8135  5.57315e+20
43.9308  5.62183e+20
44.0481  5.64453e+20
44.1654  5.64057e+20
44.2827  5.60859e+20
44.4  5.54832e+20
44.5173  5.45897e+20
44.6347  5.33782e+20
44.752  5.18573e+20
44.8693  5.00004e+20
44.9866  4.78636e+20
45.1039  4.54804e+20
45.2212  4.29563e+20
45.3385  4.03964e+20
45.4558  3.79416e+20
45.5731  3.57448e+20
45.6904  3.39288e+20
45.8077  3.25806e+20
45.925  3.17508e+20
46.0423  3.14278e+20
46.1596  3.15501e+20
46.2769  3.20134e+20
46.3942  3.27089e+20
46.5115  3.34976e+20
46.6288  3.42931e+20
46.7461  3.49991e+20
46.8634  3.55682e+20
46.9808  3.59886e+20
47.0981  3.62382e+20
47.2154  3.63475e+20
47.3327  3.63212e+20
47.45  3.62111e+20
47.5673  3.60389e+20
47.6846  3.58396e+20
47.8019  3.56597e+20
47.9192  3.55431e+20
48.0365  3.55194e+20
48.1538  3.56133e+20
48.2711  3.58337e+20
48.3884  3.61788e+20
48.5057  3.66068e+20
48.623  3.70819e+20
48.7403  3.75293e+20
48.8576  3.78818e+20
48.9749  3.80831e+20
49.0922  3.80898e+20
49.2095  3.78698e+20
49.3269  3.74244e+20
49.4442  3.67938e+20
49.5615  3.60044e+20
49.6788  3.51538e+20
49.7961  3.43282e+20
49.9134  3.36255e+20
50.0307  3.31239e+20
50.148  3.28992e+20
50.2653  3.29731e+20
50.3826  3.3323e+20
50.4999  3.39008e+20
50.6172  3.45946e+20
50.7345  3.52857e+20
50.8518  3.58328e+20
