#S 1 spectral density
#N 2
#UFWHM 38.1241
#L  abscissas [um]  spectral density
-58.5938  3.95627e+20
-58.4764  4.03333e+20
-58.3591  4.13633e+20
-58.2418  4.26003e+20
-58.1245  4.39986e+20
-58.0072  4.54945e+20
-57.8899  4.70315e+20
-57.7726  4.85584e+20
-57.6553  5.00183e+20
-57.538  5.13442e+20
-57.4207  5.24591e+20
-57.3034  5.33089e+20
-57.1861  5.38348e+20
-57.0688  5.39985e+20
-56.9515  5.3796e+20
-56.8342  5.32673e+20
-56.7169  5.24836e+20
-56.5996  5.15296e+20
-56.4823  5.05068e+20
-56.365  4.95202e+20
-56.2477  4.86153e+20
-56.1303  4.78671e+20
-56.013  4.72906e+20
-55.8957  4.689e+20
-55.7784  4.6673e+20
-55.6611  4.66332e+20
-55.5438  4.67924e+20
-55.4265  4.71533e+20
-55.3092  4.77336e+20
-55.1919  4.85376e+20
-55.0746  4.95518e+20
-54.9573  5.07516e+20
-54.84  5.20899e+20
-54.7227  5.35124e+20
-54.6054  5.49724e+20
-54.4881  5.6401e+20
-54.3708  5.77651e+20
-54.2535  5.90042e+20
-54.1362  6.00739e+20
-54.0189  6.0925e+20
-53.9016  6.15096e+20
-53.7842  6.17743e+20
-53.6669  6.16863e+20
-53.5496  6.12055e+20
-53.4323  6.03538e+20
-53.315  5.91567e+20
-53.1977  5.76957e+20
-53.0804  5.60776e+20
-52.9631  5.44159e+20
-52.8458  5.28187e+20
-52.7285  5.13838e+20
-52.6112  5.01841e+20
-52.4939  4.92635e+20
-52.3766  4.86337e+20
-52.2593  4.83101e+20
-52.142  4.82846e+20
-52.0247  4.85557e+20
-51.9074  4.91144e+20
-51.7901  4.99587e+20
-51.6728  5.10829e+20
-51.5555  5.24503e+20
-51.4381  5.40209e+20
-51.3208  5.57516e+20
-51.2035  5.75503e+20
-51.0862  5.93708e+20
-50.9689  6.11261e+20
-50.8516  6.27691e+20
-50.7343  6.42718e+20
-50.617  6.56061e+20
-50.4997  6.67708e+20
-50.3824  6.77618e+20
-50.2651  6.85718e+20
-50.1478  6.92156e+20
-50.0305  6.96696e+20
-49.9132  6.99511e+20
-49.7959  7.003e+20
-49.6786  6.99047e+20
-49.5613  6.95844e+20
-49.444  6.90855e+20
-49.3267  6.84107e+20
-49.2094  6.75859e+20
-49.092  6.66445e+20
-48.9747  6.56041e+20
-48.8574  6.4496e+20
-48.7401  6.33658e+20
-48.6228  6.2236e+20
-48.5055  6.11742e+20
-48.3882  6.02193e+20
-48.2709  5.9425e+20
-48.1536  5.8832e+20
-48.0363  5.84886e+20
-47.919  5.84248e+20
-47.8017  5.86721e+20
-47.6844  5.92451e+20
-47.5671  6.01732e+20
-47.4498  6.14429e+20
-47.3325  6.30367e+20
-47.2152  6.49131e+20
-47.0979  6.70087e+20
-46.9806  6.92452e+20
-46.8633  7.15262e+20
-46.7459  7.37172e+20
-46.6286  7.57198e+20
-46.5113  7.74237e+20
-46.394  7.8801e+20
-46.2767  7.97759e+20
-46.1594  8.03498e+20
-46.0421  8.05645e+20
-45.9248  8.04659e+20
-45.8075  8.01012e+20
-45.6902  7.95348e+20
-45.5729  7.87969e+20
-45.4556  7.79501e+20
-45.3383  7.7032e+20
-45.221  7.60893e+20
-45.1037  7.51665e+20
-44.9864  7.43013e+20
-44.8691  7.35889e+20
-44.7518  7.30883e+20
-44.6345  7.28542e+20
-44.5172  7.29168e+20
-44.3998  7.32885e+20
-44.2825  7.39442e+20
-44.1652  7.4843e+20
-44.0479  7.5916e+20
-43.9306  7.70941e+20
-43.8133  7.83271e+20
-43.696  7.95292e+20
-43.5787  8.06766e+20
-43.4614  8.17305e+20
-43.3441  8.26681e+20
-43.2268  8.34659e+20
-43.1095  8.41167e+20
-42.9922  8.46146e+20
-42.8749  8.49632e+20
-42.7576  8.51659e+20
-42.6403  8.52467e+20
-42.523  8.52454e+20
-42.4057  8.52057e+20
-42.2884  8.51871e+20
-42.171  8.5246e+20
-42.0537  8.53936e+20
-41.9364  8.56568e+20
-41.8191  8.60337e+20
-41.7018  8.65142e+20
-41.5845  8.70555e+20
-41.4672  8.76171e+20
-41.3499  8.81547e+20
-41.2326  8.86562e+20
-41.1153  8.90835e+20
-40.998  8.94451e+20
-40.8807  8.97387e+20
-40.7634  8.99803e+20
-40.6461  9.02142e+20
-40.5288  9.04644e+20
-40.4115  9.07874e+20
-40.2942  9.1216e+20
-40.1769  9.18217e+20
-40.0596  9.26324e+20
-39.9423  9.369e+20
-39.825  9.49826e+20
-39.7076  9.64772e+20
-39.5903  9.8151e+20
-39.473  9.99289e+20
-39.3557  1.01726e+21
-39.2384  1.03485e+21
-39.1211  1.05139e+21
-39.0038  1.06613e+21
-38.8865  1.07895e+21
-38.7692  1.08961e+21
-38.6519  1.09785e+21
-38.5346  1.10361e+21
-38.4173  1.10682e+21
-38.3  1.10753e+21
-38.1827  1.10589e+21
-38.0654  1.10227e+21
-37.9481  1.09752e+21
-37.8308  1.09248e+21
-37.7135  1.08856e+21
-37.5962  1.08698e+21
-37.4789  1.08885e+21
-37.3615  1.09498e+21
-37.2442  1.10549e+21
-37.1269  1.12034e+21
-37.0096  1.13856e+21
-36.8923  1.15917e+21
-36.775  1.18103e+21
-36.6577  1.20282e+21
-36.5404  1.22405e+21
-36.4231  1.24414e+21
-36.3058  1.26319e+21
-36.1885  1.28148e+21
-36.0712  1.29927e+21
-35.9539  1.31703e+21
-35.8366  1.33487e+21
-35.7193  1.35313e+21
-35.602  1.3717e+21
-35.4847  1.39077e+21
-35.3674  1.41029e+21
-35.2501  1.43049e+21
-35.1328  1.45145e+21
-35.0154  1.47312e+21
-34.8981  1.49593e+21
-34.7808  1.51929e+21
-34.6635  1.54271e+21
-34.5462  1.56556e+21
-34.4289  1.58713e+21
-34.3116  1.6064e+21
-34.1943  1.62282e+21
-34.077  1.63617e+21
-33.9597  1.64634e+21
-33.8424  1.65355e+21
-33.7251  1.65823e+21
-33.6078  1.66102e+21
-33.4905  1.66242e+21
-33.3732  1.66295e+21
-33.2559  1.66321e+21
-33.1386  1.66347e+21
-33.0213  1.66423e+21
-32.904  1.66596e+21
-32.7867  1.66893e+21
-32.6693  1.67368e+21
-32.552  1.68029e+21
-32.4347  1.68917e+21
-32.3174  1.70014e+21
-32.2001  1.71315e+21
-32.0828  1.72801e+21
-31.9655  1.74436e+21
-31.8482  1.76216e+21
-31.7309  1.78121e+21
-31.6136  1.80174e+21
-31.4963  1.82384e+21
-31.379  1.84775e+21
-31.2617  1.87364e+21
-31.1444  1.90165e+21
-31.0271  1.93196e+21
-30.9098  1.96425e+21
-30.7925  1.99865e+21
-30.6752  2.03468e+21
-30.5579  2.07192e+21
-30.4406  2.11009e+21
-30.3232  2.14846e+21
-30.2059  2.18697e+21
-30.0886  2.22454e+21
-29.9713  2.26076e+21
-29.854  2.29519e+21
-29.7367  2.32753e+21
-29.6194  2.3578e+21
-29.5021  2.38609e+21
-29.3848  2.41307e+21
-29.2675  2.43952e+21
-29.1502  2.46603e+21
-29.0329  2.49326e+21
-28.9156  2.52168e+21
-28.7983  2.55162e+21
-28.681  2.58273e+21
-28.5637  2.61477e+21
-28.4464  2.64716e+21
-28.3291  2.67936e+21
-28.2118  2.71083e+21
-28.0944  2.74125e+21
-27.9771  2.77045e+21
-27.8598  2.79832e+21
-27.7425  2.82535e+21
-27.6252  2.85167e+21
-27.5079  2.8778e+21
-27.3906  2.90442e+21
-27.2733  2.93246e+21
-27.156  2.96282e+21
-27.0387  2.9964e+21
-26.9214  3.03461e+21
-26.8041  3.07793e+21
-26.6868  3.12719e+21
-26.5695  3.18238e+21
-26.4522  3.24305e+21
-26.3349  3.30846e+21
-26.2176  3.37686e+21
-26.1003  3.44658e+21
-25.983  3.51522e+21
-25.8657  3.58057e+21
-25.7483  3.64031e+21
-25.631  3.69234e+21
-25.5137  3.73555e+21
-25.3964  3.76827e+21
-25.2791  3.79034e+21
-25.1618  3.80186e+21
-25.0445  3.80377e+21
-24.9272  3.79759e+21
-24.8099  3.78539e+21
-24.6926  3.7697e+21
-24.5753  3.75355e+21
-24.458  3.73932e+21
-24.3407  3.72968e+21
-24.2234  3.72654e+21
-24.1061  3.73162e+21
-23.9888  3.74535e+21
-23.8715  3.76806e+21
-23.7542  3.79908e+21
-23.6369  3.83754e+21
-23.5196  3.88188e+21
-23.4023  3.93073e+21
-23.2849  3.98229e+21
-23.1676  4.035e+21
-23.0503  4.08795e+21
-22.933  4.1397e+21
-22.8157  4.18996e+21
-22.6984  4.23844e+21
-22.5811  4.28588e+21
-22.4638  4.33308e+21
-22.3465  4.38104e+21
-22.2292  4.43155e+21
-22.1119  4.48576e+21
-21.9946  4.5447e+21
-21.8773  4.60882e+21
-21.76  4.67781e+21
-21.6427  4.75129e+21
-21.5254  4.8276e+21
-21.4081  4.90493e+21
-21.2908  4.98103e+21
-21.1735  5.05379e+21
-21.0561  5.1212e+21
-20.9388  5.18189e+21
-20.8215  5.2355e+21
-20.7042  5.28134e+21
-20.5869  5.32032e+21
-20.4696  5.35408e+21
-20.3523  5.38441e+21
-20.235  5.41393e+21
-20.1177  5.44534e+21
-20.0004  5.48149e+21
-19.8831  5.52529e+21
-19.7658  5.57842e+21
-19.6485  5.6426e+21
-19.5312  5.7181e+21
-19.4139  5.80448e+21
-19.2966  5.89981e+21
-19.1793  6.00164e+21
-19.062  6.10638e+21
-18.9447  6.21025e+21
-18.8274  6.30894e+21
-18.71  6.39878e+21
-18.5927  6.47659e+21
-18.4754  6.53996e+21
-18.3581  6.58807e+21
-18.2408  6.62027e+21
-18.1235  6.63812e+21
-18.0062  6.64378e+21
-17.8889  6.64044e+21
-17.7716  6.63195e+21
-17.6543  6.6221e+21
-17.537  6.61544e+21
-17.4197  6.61541e+21
-17.3024  6.62505e+21
-17.1851  6.64647e+21
-17.0678  6.6802e+21
-16.9505  6.72657e+21
-16.8332  6.78428e+21
-16.7159  6.85096e+21
-16.5986  6.92384e+21
-16.4813  6.99949e+21
-16.364  7.07497e+21
-16.2466  7.14765e+21
-16.1293  7.2159e+21
-16.012  7.27782e+21
-15.8947  7.33374e+21
-15.7774  7.38429e+21
-15.6601  7.43072e+21
-15.5428  7.47546e+21
-15.4255  7.5207e+21
-15.3082  7.56884e+21
-15.1909  7.62286e+21
-15.0736  7.68388e+21
-14.9563  7.75348e+21
-14.839  7.83155e+21
-14.7217  7.91749e+21
-14.6044  8.00904e+21
-14.4871  8.10346e+21
-14.3698  8.1972e+21
-14.2525  8.28602e+21
-14.1352  8.36563e+21
-14.0178  8.43293e+21
-13.9005  8.48508e+21
-13.7832  8.52082e+21
-13.6659  8.54033e+21
-13.5486  8.5446e+21
-13.4313  8.53685e+21
-13.314  8.52061e+21
-13.1967  8.5004e+21
-13.0794  8.48081e+21
-12.9621  8.46588e+21
-12.8448  8.45995e+21
-12.7275  8.46556e+21
-12.6102  8.48469e+21
-12.4929  8.51813e+21
-12.3756  8.56521e+21
-12.2583  8.6245e+21
-12.141  8.69399e+21
-12.0237  8.77012e+21
-11.9064  8.84937e+21
-11.7891  8.92802e+21
-11.6718  9.00283e+21
-11.5544  9.07138e+21
-11.4371  9.13188e+21
-11.3198  9.18316e+21
-11.2025  9.22648e+21
-11.0852  9.26273e+21
-10.9679  9.29427e+21
-10.8506  9.32411e+21
-10.7333  9.35484e+21
-10.616  9.38889e+21
-10.4987  9.42932e+21
-10.3814  9.47677e+21
-10.2641  9.53261e+21
-10.1468  9.59632e+21
-10.0295  9.6673e+21
-9.91217  9.74368e+21
-9.79487  9.82341e+21
-9.67756  9.90411e+21
-9.56026  9.98303e+21
-9.44295  1.00576e+22
-9.32565  1.01266e+22
-9.20834  1.01887e+22
-9.09104  1.02438e+22
-8.97373  1.02926e+22
-8.85643  1.03369e+22
-8.73913  1.0379e+22
-8.62182  1.04215e+22
-8.50452  1.04675e+22
-8.38721  1.05194e+22
-8.26991  1.05787e+22
-8.1526  1.06462e+22
-8.03529  1.07212e+22
-7.91799  1.08021e+22
-7.80069  1.08858e+22
-7.68338  1.09684e+22
-7.56608  1.10454e+22
-7.44877  1.11126e+22
-7.33146  1.11652e+22
-7.21416  1.12e+22
-7.09685  1.12146e+22
-6.97955  1.12081e+22
-6.86224  1.11819e+22
-6.74494  1.1138e+22
-6.62763  1.10806e+22
-6.51033  1.10152e+22
-6.39302  1.09477e+22
-6.27572  1.08841e+22
-6.15842  1.08308e+22
-6.04111  1.07925e+22
-5.92381  1.0773e+22
-5.8065  1.07753e+22
-5.68919  1.07997e+22
-5.57189  1.08457e+22
-5.45458  1.09109e+22
-5.33728  1.09917e+22
-5.21997  1.10834e+22
-5.10267  1.11809e+22
-4.98536  1.12791e+22
-4.86806  1.13726e+22
-4.75075  1.14572e+22
-4.63345  1.15301e+22
-4.51614  1.15892e+22
-4.39884  1.16343e+22
-4.28154  1.16664e+22
-4.16423  1.1688e+22
-4.04692  1.17025e+22
-3.92962  1.17135e+22
-3.81231  1.17247e+22
-3.69501  1.17399e+22
-3.5777  1.17606e+22
-3.4604  1.17881e+22
-3.34309  1.18216e+22
-3.22579  1.18599e+22
-3.10849  1.18995e+22
-2.99118  1.19369e+22
-2.87387  1.19676e+22
-2.75657  1.1988e+22
-2.63926  1.19941e+22
-2.52196  1.19838e+22
-2.40465  1.19562e+22
-2.28735  1.19118e+22
-2.17005  1.18532e+22
-2.05274  1.17834e+22
-1.93544  1.17081e+22
-1.81813  1.16328e+22
-1.70083  1.1564e+22
-1.58352  1.15075e+22
-1.46622  1.14689e+22
-1.34891  1.1452e+22
-1.2316  1.14597e+22
-1.1143  1.14923e+22
-0.996995  1.15487e+22
-0.87969  1.16253e+22
-0.762385  1.17168e+22
-0.64508  1.18162e+22
-0.527775  1.19161e+22
-0.41047  1.20081e+22
-0.293165  1.20851e+22
-0.17586  1.21401e+22
-0.058555  1.21687e+22
0.05875  1.21686e+22
0.176055  1.21395e+22
0.29336  1.20843e+22
0.410665  1.20072e+22
0.52797  1.19152e+22
0.645275  1.18156e+22
0.76258  1.17165e+22
0.879885  1.16256e+22
0.99719  1.15497e+22
1.1145  1.14944e+22
1.2318  1.14625e+22
1.3491  1.14558e+22
1.46641  1.14736e+22
1.58371  1.15132e+22
1.70102  1.15709e+22
1.81832  1.16407e+22
1.93563  1.17168e+22
2.05294  1.17929e+22
2.17024  1.18632e+22
2.28754  1.19227e+22
2.40485  1.19676e+22
2.52216  1.19959e+22
2.63946  1.20063e+22
2.75677  1.20007e+22
2.87407  1.19809e+22
2.99137  1.19506e+22
3.10868  1.19138e+22
3.22599  1.18746e+22
3.34329  1.18369e+22
3.4606  1.18039e+22
3.5779  1.17767e+22
3.69521  1.17566e+22
3.81251  1.17421e+22
3.92982  1.17312e+22
4.04712  1.17205e+22
4.16443  1.17064e+22
4.28173  1.16852e+22
4.39903  1.16534e+22
4.51634  1.16086e+22
4.63364  1.155e+22
4.75095  1.14777e+22
4.86825  1.13935e+22
4.98556  1.13007e+22
5.10286  1.12033e+22
5.22017  1.11067e+22
5.33748  1.10158e+22
5.45478  1.09362e+22
5.57209  1.08722e+22
5.68939  1.08271e+22
5.8067  1.08039e+22
5.924  1.08026e+22
6.0413  1.08228e+22
6.15861  1.08618e+22
6.27591  1.09158e+22
6.39322  1.098e+22
6.51052  1.10478e+22
6.62783  1.11134e+22
6.74514  1.11705e+22
6.86244  1.12142e+22
6.97975  1.12404e+22
7.09705  1.12467e+22
7.21436  1.1232e+22
7.33166  1.11968e+22
7.44897  1.11444e+22
7.56627  1.10775e+22
7.68358  1.10007e+22
7.80088  1.09185e+22
7.91819  1.08353e+22
8.03549  1.07552e+22
8.1528  1.06812e+22
8.2701  1.06143e+22
8.38741  1.05559e+22
8.50471  1.05049e+22
8.62202  1.04597e+22
8.73932  1.04178e+22
8.85662  1.03763e+22
8.97393  1.03327e+22
9.09123  1.02841e+22
9.20854  1.02293e+22
9.32584  1.01676e+22
9.44315  1.00988e+22
9.56045  1.0024e+22
9.67776  9.94532e+21
9.79506  9.86464e+21
9.91237  9.78504e+21
10.0297  9.7086e+21
10.147  9.63784e+21
10.2643  9.57411e+21
10.3816  9.51825e+21
10.4989  9.47091e+21
10.6162  9.43057e+21
10.7335  9.39631e+21
10.8508  9.36537e+21
10.9681  9.33562e+21
11.0854  9.30397e+21
11.2027  9.26766e+21
11.32  9.22419e+21
11.4373  9.1724e+21
11.5546  9.1119e+21
11.6719  9.04337e+21
11.7893  8.96861e+21
11.9066  8.89013e+21
12.0239  8.811e+21
12.1412  8.73548e+21
12.2585  8.66672e+21
12.3758  8.60771e+21
12.4931  8.56139e+21
12.6104  8.52863e+21
12.7277  8.51036e+21
12.845  8.5058e+21
12.9623  8.51243e+21
13.0796  8.52788e+21
13.1969  8.54804e+21
13.3142  8.56867e+21
13.4315  8.58512e+21
13.5488  8.59301e+21
13.6661  8.5886e+21
13.7834  8.56894e+21
13.9007  8.53285e+21
14.018  8.48053e+21
14.1354  8.41281e+21
14.2527  8.3328e+21
14.37  8.24388e+21
14.4873  8.15005e+21
14.6046  8.05559e+21
14.7219  7.96405e+21
14.8392  7.87844e+21
14.9565  7.80054e+21
15.0738  7.73116e+21
15.1911  7.67046e+21
15.3084  7.61693e+21
15.4257  7.56887e+21
15.543  7.52371e+21
15.6603  7.47924e+21
15.7776  7.43288e+21
15.8949  7.38249e+21
16.0122  7.32631e+21
16.1295  7.26405e+21
16.2468  7.19579e+21
16.3641  7.12277e+21
16.4815  7.04713e+21
16.5988  6.97113e+21
16.7161  6.89822e+21
16.8334  6.8316e+21
16.9507  6.77407e+21
17.068  6.7276e+21
17.1853  6.69391e+21
17.3026  6.67274e+21
17.4199  6.66343e+21
17.5372  6.6639e+21
17.6545  6.67078e+21
17.7718  6.68072e+21
17.8891  6.68935e+21
18.0064  6.69266e+21
18.1237  6.68691e+21
18.241  6.66886e+21
18.3583  6.63633e+21
18.4756  6.58796e+21
18.5929  6.52406e+21
18.7102  6.44598e+21
18.8275  6.35561e+21
18.9449  6.2565e+21
19.0622  6.15232e+21
19.1795  6.04733e+21
19.2968  5.94533e+21
19.4141  5.84991e+21
19.5314  5.76365e+21
19.6487  5.68827e+21
19.766  5.62426e+21
19.8833  5.57128e+21
20.0006  5.52785e+21
20.1179  5.4919e+21
20.2352  5.46062e+21
20.3525  5.43118e+21
20.4698  5.4009e+21
20.5871  5.36722e+21
20.7044  5.32781e+21
20.8217  5.28162e+21
20.939  5.22783e+21
21.0563  5.16644e+21
21.1736  5.09849e+21
21.291  5.02493e+21
21.4083  4.94828e+21
21.5256  4.87035e+21
21.6429  4.79339e+21
21.7602  4.71925e+21
21.8775  4.64954e+21
21.9948  4.58481e+21
22.1121  4.52543e+21
22.2294  4.47089e+21
22.3467  4.41999e+21
22.464  4.37151e+21
22.5813  4.32406e+21
22.6986  4.27627e+21
22.8159  4.22745e+21
22.9332  4.17695e+21
23.0505  4.12505e+21
23.1678  4.07196e+21
23.2851  4.01903e+21
23.4024  3.96751e+21
23.5198  3.9186e+21
23.6371  3.87419e+21
23.7544  3.83575e+21
23.8717  3.8048e+21
23.989  3.78217e+21
24.1063  3.76852e+21
24.2236  3.76362e+21
24.3409  3.76685e+21
24.4582  3.77657e+21
24.5755  3.79087e+21
24.6928  3.80718e+21
24.8101  3.82288e+21
24.9274  3.83503e+21
25.0447  3.84101e+21
25.162  3.83886e+21
25.2793  3.82716e+21
25.3966  3.80469e+21
25.5139  3.77151e+21
25.6312  3.72809e+21
25.7485  3.67541e+21
25.8658  3.61522e+21
25.9832  3.54922e+21
26.1005  3.48021e+21
26.2178  3.41003e+21
26.3351  3.3411e+21
26.4524  3.27532e+21
26.5697  3.2142e+21
26.687  3.15865e+21
26.8043  3.10914e+21
26.9216  3.06545e+21
27.0389  3.02716e+21
27.1562  2.99323e+21
27.2735  2.96265e+21
27.3908  2.93438e+21
27.5081  2.9075e+21
27.6254  2.88115e+21
27.7427  2.85459e+21
27.86  2.82736e+21
27.9773  2.79921e+21
28.0946  2.76978e+21
28.212  2.73902e+21
28.3293  2.70728e+21
28.4466  2.67469e+21
28.5639  2.64205e+21
28.6812  2.60963e+21
28.7985  2.57817e+21
28.9158  2.54795e+21
29.0331  2.51919e+21
29.1504  2.49163e+21
29.2677  2.46477e+21
29.385  2.43807e+21
29.5023  2.41077e+21
29.6196  2.38208e+21
29.7369  2.35151e+21
29.8542  2.31877e+21
29.9715  2.28407e+21
30.0888  2.24743e+21
30.2061  2.20957e+21
30.3234  2.17096e+21
30.4407  2.13209e+21
30.558  2.09368e+21
30.6754  2.05601e+21
30.7927  2.01979e+21
30.91  1.98513e+21
31.0273  1.95245e+21
31.1446  1.92192e+21
31.2619  1.89354e+21
31.3792  1.86732e+21
31.4965  1.84321e+21
31.6138  1.82085e+21
31.7311  1.80014e+21
31.8484  1.7808e+21
31.9657  1.76288e+21
32.083  1.74629e+21
32.2003  1.73138e+21
32.3176  1.71829e+21
32.4349  1.70717e+21
32.5522  1.69827e+21
32.6695  1.69155e+21
32.7868  1.68677e+21
32.9042  1.68361e+21
33.0215  1.68177e+21
33.1388  1.68075e+21
33.2561  1.68028e+21
33.3734  1.6797e+21
33.4907  1.67883e+21
33.608  1.67713e+21
33.7253  1.67402e+21
33.8426  1.66896e+21
33.9599  1.66135e+21
34.0772  1.6508e+21
34.1945  1.63719e+21
34.3118  1.62039e+21
34.4291  1.60083e+21
34.5464  1.57903e+21
34.6637  1.55596e+21
34.781  1.53234e+21
34.8983  1.50893e+21
35.0156  1.48608e+21
35.1329  1.46411e+21
35.2503  1.44307e+21
35.3676  1.42268e+21
35.4849  1.40303e+21
35.6022  1.38373e+21
35.7195  1.36488e+21
35.8368  1.34642e+21
35.9541  1.32819e+21
36.0714  1.31017e+21
36.1887  1.2921e+21
36.306  1.27352e+21
36.4233  1.25417e+21
36.5406  1.23375e+21
36.6579  1.21235e+21
36.7752  1.19029e+21
36.8925  1.16837e+21
37.0098  1.14772e+21
37.1271  1.12946e+21
37.2444  1.11472e+21
37.3617  1.10428e+21
37.479  1.09836e+21
37.5964  1.09651e+21
37.7137  1.09815e+21
37.831  1.10202e+21
37.9483  1.10696e+21
38.0656  1.11154e+21
38.1829  1.11488e+21
38.3002  1.11624e+21
38.4175  1.11527e+21
38.5348  1.11173e+21
38.6521  1.10558e+21
38.7694  1.09697e+21
38.8867  1.08607e+21
39.004  1.07301e+21
39.1213  1.05786e+21
39.2386  1.04113e+21
39.3559  1.02332e+21
39.4732  1.00518e+21
39.5905  9.87388e+20
39.7078  9.70656e+20
39.8251  9.55541e+20
39.9425  9.42649e+20
40.0598  9.32099e+20
40.1771  9.2403e+20
40.2944  9.17865e+20
40.4117  9.13487e+20
40.529  9.10216e+20
40.6463  9.07531e+20
40.7636  9.05149e+20
40.8809  9.02558e+20
40.9982  8.99405e+20
41.1155  8.95702e+20
41.2328  8.91249e+20
41.3501  8.86184e+20
41.4674  8.80568e+20
41.5847  8.74908e+20
41.702  8.69482e+20
41.8193  8.64669e+20
41.9366  8.60887e+20
42.0539  8.58267e+20
42.1712  8.56803e+20
42.2885  8.56315e+20
42.4059  8.56414e+20
42.5232  8.56775e+20
42.6405  8.5668e+20
42.7578  8.55811e+20
42.8751  8.53654e+20
42.9924  8.49977e+20
43.1097  8.44894e+20
43.227  8.38206e+20
43.3443  8.30049e+20
43.4616  8.20602e+20
43.5789  8.09945e+20
43.6962  7.98453e+20
43.8135  7.86299e+20
43.9308  7.74101e+20
44.0481  7.62306e+20
44.1654  7.51598e+20
44.2827  7.42774e+20
44.4  7.36446e+20
44.5173  7.32807e+20
44.6347  7.32303e+20
44.752  7.34893e+20
44.8693  7.40031e+20
44.9866  7.47111e+20
45.1039  7.55704e+20
45.2212  7.64957e+20
45.3385  7.74298e+20
45.4558  7.83368e+20
45.5731  7.91708e+20
45.6904  7.98757e+20
45.8077  8.04335e+20
45.925  8.07694e+20
46.0423  8.08518e+20
46.1596  8.06014e+20
46.2769  7.99979e+20
46.3942  7.90114e+20
46.5115  7.76219e+20
46.6288  7.58975e+20
46.7461  7.3882e+20
46.8634  7.16797e+20
46.9808  6.94136e+20
47.0981  6.71731e+20
47.2154  6.50852e+20
47.3327  6.32075e+20
47.45  6.16318e+20
47.5673  6.03783e+20
47.6846  5.94525e+20
47.8019  5.88842e+20
47.9192  5.86459e+20
48.0365  5.87155e+20
48.1538  5.90686e+20
48.2711  5.96639e+20
48.3884  6.04674e+20
48.5057  6.1422e+20
48.623  6.24956e+20
48.7403  6.36249e+20
48.8576  6.47585e+20
48.9749  6.58658e+20
49.0922  6.69142e+20
49.2095  6.78662e+20
49.3269  6.8688e+20
49.4442  6.93777e+20
49.5615  6.98747e+20
49.6788  7.01867e+20
49.7961  7.03063e+20
49.9134  7.02276e+20
50.0307  6.99481e+20
50.148  6.94743e+20
50.2653  6.88303e+20
50.3826  6.79985e+20
50.4999  6.70001e+20
50.6172  6.58182e+20
50.7345  6.44714e+20
