#S 1 spectral density
#N 2
#UFWHM 21.7014
#L  abscissas [um]  spectral density
-58.5938  5.58626e+19
-58.4764  5.73118e+19
-58.3591  5.86485e+19
-58.2418  5.94653e+19
-58.1245  5.95199e+19
-58.0072  5.89436e+19
-57.8899  5.81218e+19
-57.7726  5.756e+19
-57.6553  5.7829e+19
-57.538  5.93108e+19
-57.4207  6.20819e+19
-57.3034  6.5947e+19
-57.1861  7.0436e+19
-57.0688  7.50346e+19
-56.9515  7.91551e+19
-56.8342  8.24062e+19
-56.7169  8.45336e+19
-56.5996  8.55148e+19
-56.4823  8.54204e+19
-56.365  8.43646e+19
-56.2477  8.25717e+19
-56.1303  8.00951e+19
-56.013  7.71561e+19
-55.8957  7.39259e+19
-55.7784  7.07744e+19
-55.6611  6.80496e+19
-55.5438  6.61502e+19
-55.4265  6.54822e+19
-55.3092  6.61257e+19
-55.1919  6.79704e+19
-55.0746  7.05636e+19
-54.9573  7.32268e+19
-54.84  7.52074e+19
-54.7227  7.57721e+19
-54.6054  7.45813e+19
-54.4881  7.1612e+19
-54.3708  6.73008e+19
-54.2535  6.23527e+19
-54.1362  5.76765e+19
-54.0189  5.40315e+19
-53.9016  5.2021e+19
-53.7842  5.18372e+19
-53.6669  5.33325e+19
-53.5496  5.60807e+19
-53.4323  5.95657e+19
-53.315  6.33237e+19
-53.1977  6.70482e+19
-53.0804  7.06977e+19
-52.9631  7.44372e+19
-52.8458  7.84956e+19
-52.7285  8.3147e+19
-52.6112  8.84593e+19
-52.4939  9.44192e+19
-52.3766  1.00715e+20
-52.2593  1.07051e+20
-52.142  1.1304e+20
-52.0247  1.18369e+20
-51.9074  1.22924e+20
-51.7901  1.26637e+20
-51.6728  1.29695e+20
-51.5555  1.32267e+20
-51.4381  1.34463e+20
-51.3208  1.36472e+20
-51.2035  1.38221e+20
-51.0862  1.39685e+20
-50.9689  1.40654e+20
-50.8516  1.40973e+20
-50.7343  1.40495e+20
-50.617  1.39103e+20
-50.4997  1.36711e+20
-50.3824  1.33375e+20
-50.2651  1.29141e+20
-50.1478  1.24217e+20
-50.0305  1.1878e+20
-49.9132  1.13182e+20
-49.7959  1.07736e+20
-49.6786  1.02869e+20
-49.5613  9.89113e+19
-49.444  9.62086e+19
-49.3267  9.49783e+19
-49.2094  9.53595e+19
-49.092  9.73118e+19
-48.9747  1.00756e+20
-48.8574  1.05469e+20
-48.7401  1.11246e+20
-48.6228  1.17822e+20
-48.5055  1.24956e+20
-48.3882  1.32486e+20
-48.2709  1.40203e+20
-48.1536  1.47992e+20
-48.0363  1.55755e+20
-47.919  1.63492e+20
-47.8017  1.71237e+20
-47.6844  1.79085e+20
-47.5671  1.8714e+20
-47.4498  1.95538e+20
-47.3325  2.04185e+20
-47.2152  2.12951e+20
-47.0979  2.21461e+20
-46.9806  2.29028e+20
-46.8633  2.34942e+20
-46.7459  2.38517e+20
-46.6286  2.39058e+20
-46.5113  2.36238e+20
-46.394  2.29975e+20
-46.2767  2.20674e+20
-46.1594  2.08955e+20
-46.0421  1.95627e+20
-45.9248  1.81507e+20
-45.8075  1.67333e+20
-45.6902  1.53543e+20
-45.5729  1.40479e+20
-45.4556  1.28201e+20
-45.3383  1.16893e+20
-45.221  1.06768e+20
-45.1037  9.83439e+19
-44.9864  9.23487e+19
-44.8691  8.97384e+19
-44.7518  9.13966e+19
-44.6345  9.80179e+19
-44.5172  1.09871e+20
-44.3998  1.26602e+20
-44.2825  1.47293e+20
-44.1652  1.70484e+20
-44.0479  1.94417e+20
-43.9306  2.17324e+20
-43.8133  2.37653e+20
-43.696  2.54302e+20
-43.5787  2.66804e+20
-43.4614  2.75279e+20
-43.3441  2.80407e+20
-43.2268  2.83125e+20
-43.1095  2.84583e+20
-42.9922  2.8578e+20
-42.8749  2.87619e+20
-42.7576  2.90503e+20
-42.6403  2.94654e+20
-42.523  2.99794e+20
-42.4057  3.05503e+20
-42.2884  3.1111e+20
-42.171  3.15806e+20
-42.0537  3.18985e+20
-41.9364  3.2004e+20
-41.8191  3.18782e+20
-41.7018  3.1516e+20
-41.5845  3.09631e+20
-41.4672  3.02915e+20
-41.3499  2.96027e+20
-41.2326  2.89965e+20
-41.1153  2.85839e+20
-40.998  2.84479e+20
-40.8807  2.86245e+20
-40.7634  2.91211e+20
-40.6461  2.98876e+20
-40.5288  3.0851e+20
-40.4115  3.19126e+20
-40.2942  3.29504e+20
-40.1769  3.38748e+20
-40.0596  3.4612e+20
-39.9423  3.51152e+20
-39.825  3.53642e+20
-39.7076  3.53665e+20
-39.5903  3.51682e+20
-39.473  3.48289e+20
-39.3557  3.4397e+20
-39.2384  3.39544e+20
-39.1211  3.35704e+20
-39.0038  3.32965e+20
-38.8865  3.31719e+20
-38.7692  3.32216e+20
-38.6519  3.34115e+20
-38.5346  3.37023e+20
-38.4173  3.39947e+20
-38.3  3.42046e+20
-38.1827  3.42213e+20
-38.0654  3.39632e+20
-37.9481  3.33885e+20
-37.8308  3.24869e+20
-37.7135  3.13087e+20
-37.5962  2.99438e+20
-37.4789  2.84961e+20
-37.3615  2.70859e+20
-37.2442  2.58111e+20
-37.1269  2.47575e+20
-37.0096  2.39776e+20
-36.8923  2.34888e+20
-36.775  2.33031e+20
-36.6577  2.34012e+20
-36.5404  2.37799e+20
-36.4231  2.44204e+20
-36.3058  2.52921e+20
-36.1885  2.63701e+20
-36.0712  2.76154e+20
-35.9539  2.89863e+20
-35.8366  3.04424e+20
-35.7193  3.19558e+20
-35.602  3.35272e+20
-35.4847  3.5212e+20
-35.3674  3.70872e+20
-35.2501  3.92681e+20
-35.1328  4.18543e+20
-35.0154  4.49262e+20
-34.8981  4.84865e+20
-34.7808  5.24762e+20
-34.6635  5.67163e+20
-34.5462  6.09568e+20
-34.4289  6.49138e+20
-34.3116  6.8255e+20
-34.1943  7.06954e+20
-34.077  7.20172e+20
-33.9597  7.20868e+20
-33.8424  7.09037e+20
-33.7251  6.85592e+20
-33.6078  6.52424e+20
-33.4905  6.12197e+20
-33.3732  5.6791e+20
-33.2559  5.22842e+20
-33.1386  4.79912e+20
-33.0213  4.41838e+20
-32.904  4.10747e+20
-32.7867  3.87945e+20
-32.6693  3.7384e+20
-32.552  3.68107e+20
-32.4347  3.69322e+20
-32.3174  3.75844e+20
-32.2001  3.85284e+20
-32.0828  3.95405e+20
-31.9655  4.04179e+20
-31.8482  4.10139e+20
-31.7309  4.12556e+20
-31.6136  4.1134e+20
-31.4963  4.07055e+20
-31.379  4.00829e+20
-31.2617  3.93938e+20
-31.1444  3.87672e+20
-31.0271  3.82968e+20
-30.9098  3.80855e+20
-30.7925  3.81495e+20
-30.6752  3.85126e+20
-30.5579  3.91622e+20
-30.4406  4.00622e+20
-30.3232  4.11757e+20
-30.2059  4.24267e+20
-30.0886  4.37617e+20
-29.9713  4.51309e+20
-29.854  4.64658e+20
-29.7367  4.77221e+20
-29.6194  4.88902e+20
-29.5021  4.99734e+20
-29.3848  5.09893e+20
-29.2675  5.19972e+20
-29.1502  5.30507e+20
-29.0329  5.42129e+20
-28.9156  5.55132e+20
-28.7983  5.69639e+20
-28.681  5.85518e+20
-28.5637  6.02316e+20
-28.4464  6.19429e+20
-28.3291  6.36116e+20
-28.2118  6.51655e+20
-28.0944  6.65547e+20
-27.9771  6.77458e+20
-27.8598  6.87321e+20
-27.7425  6.95115e+20
-27.6252  7.01139e+20
-27.5079  7.0593e+20
-27.3906  7.10027e+20
-27.2733  7.14237e+20
-27.156  7.19031e+20
-27.0387  7.25222e+20
-26.9214  7.33195e+20
-26.8041  7.43359e+20
-26.6868  7.55745e+20
-26.5695  7.70329e+20
-26.4522  7.86892e+20
-26.3349  8.05323e+20
-26.2176  8.25696e+20
-26.1003  8.47981e+20
-25.983  8.72695e+20
-25.8657  9.00373e+20
-25.7483  9.31671e+20
-25.631  9.67233e+20
-25.5137  1.00714e+21
-25.3964  1.05126e+21
-25.2791  1.09868e+21
-25.1618  1.14808e+21
-25.0445  1.19734e+21
-24.9272  1.24439e+21
-24.8099  1.28688e+21
-24.6926  1.32288e+21
-24.5753  1.3509e+21
-24.458  1.37018e+21
-24.3407  1.38076e+21
-24.2234  1.38388e+21
-24.1061  1.38125e+21
-23.9888  1.3756e+21
-23.8715  1.37005e+21
-23.7542  1.36808e+21
-23.6369  1.3727e+21
-23.5196  1.38662e+21
-23.4023  1.41152e+21
-23.2849  1.44797e+21
-23.1676  1.49509e+21
-23.0503  1.55089e+21
-22.933  1.61216e+21
-22.8157  1.67514e+21
-22.6984  1.73585e+21
-22.5811  1.79065e+21
-22.4638  1.83671e+21
-22.3465  1.87257e+21
-22.2292  1.89799e+21
-22.1119  1.91419e+21
-21.9946  1.92369e+21
-21.8773  1.92962e+21
-21.76  1.93575e+21
-21.6427  1.94574e+21
-21.5254  1.96278e+21
-21.4081  1.98961e+21
-21.2908  2.02783e+21
-21.1735  2.07822e+21
-21.0561  2.14064e+21
-20.9388  2.21393e+21
-20.8215  2.29614e+21
-20.7042  2.38518e+21
-20.5869  2.47806e+21
-20.4696  2.57229e+21
-20.3523  2.66537e+21
-20.235  2.75527e+21
-20.1177  2.84033e+21
-20.0004  2.92014e+21
-19.8831  2.99461e+21
-19.7658  3.06452e+21
-19.6485  3.13083e+21
-19.5312  3.19528e+21
-19.4139  3.25904e+21
-19.2966  3.3235e+21
-19.1793  3.38954e+21
-19.062  3.45767e+21
-18.9447  3.52754e+21
-18.8274  3.59878e+21
-18.71  3.67076e+21
-18.5927  3.74246e+21
-18.4754  3.81312e+21
-18.3581  3.88219e+21
-18.2408  3.94978e+21
-18.1235  4.01611e+21
-18.0062  4.08222e+21
-17.8889  4.14913e+21
-17.7716  4.21899e+21
-17.6543  4.29348e+21
-17.537  4.37432e+21
-17.4197  4.46309e+21
-17.3024  4.56084e+21
-17.1851  4.66779e+21
-17.0678  4.78311e+21
-16.9505  4.90541e+21
-16.8332  5.03257e+21
-16.7159  5.1618e+21
-16.5986  5.29011e+21
-16.4813  5.41528e+21
-16.364  5.53519e+21
-16.2466  5.64903e+21
-16.1293  5.75656e+21
-16.012  5.85944e+21
-15.8947  5.95954e+21
-15.7774  6.06001e+21
-15.6601  6.16421e+21
-15.5428  6.27537e+21
-15.4255  6.39587e+21
-15.3082  6.52774e+21
-15.1909  6.67212e+21
-15.0736  6.8281e+21
-14.9563  6.99414e+21
-14.839  7.16771e+21
-14.7217  7.34487e+21
-14.6044  7.52147e+21
-14.4871  7.69363e+21
-14.3698  7.85717e+21
-14.2525  8.00858e+21
-14.1352  8.1454e+21
-14.0178  8.26712e+21
-13.9005  8.3735e+21
-13.7832  8.46615e+21
-13.6659  8.54736e+21
-13.5486  8.62025e+21
-13.4313  8.68792e+21
-13.314  8.75301e+21
-13.1967  8.81743e+21
-13.0794  8.8829e+21
-12.9621  8.94842e+21
-12.8448  9.0139e+21
-12.7275  9.07675e+21
-12.6102  9.13553e+21
-12.4929  9.18793e+21
-12.3756  9.23205e+21
-12.2583  9.26767e+21
-12.141  9.29518e+21
-12.0237  9.31597e+21
-11.9064  9.33292e+21
-11.7891  9.35023e+21
-11.6718  9.3729e+21
-11.5544  9.40703e+21
-11.4371  9.45889e+21
-11.3198  9.53391e+21
-11.2025  9.63742e+21
-11.0852  9.7738e+21
-10.9679  9.9451e+21
-10.8506  1.01519e+22
-10.7333  1.03921e+22
-10.616  1.06621e+22
-10.4987  1.0957e+22
-10.3814  1.12689e+22
-10.2641  1.15906e+22
-10.1468  1.19145e+22
-10.0295  1.22332e+22
-9.91217  1.25397e+22
-9.79487  1.28296e+22
-9.67756  1.30985e+22
-9.56026  1.33445e+22
-9.44295  1.35662e+22
-9.32565  1.3765e+22
-9.20834  1.39416e+22
-9.09104  1.40979e+22
-8.97373  1.42366e+22
-8.85643  1.43598e+22
-8.73913  1.44689e+22
-8.62182  1.45654e+22
-8.50452  1.465e+22
-8.38721  1.47236e+22
-8.26991  1.47846e+22
-8.1526  1.4834e+22
-8.03529  1.48709e+22
-7.91799  1.48962e+22
-7.80069  1.49111e+22
-7.68338  1.49172e+22
-7.56608  1.49182e+22
-7.44877  1.49179e+22
-7.33146  1.49205e+22
-7.21416  1.49297e+22
-7.09685  1.49498e+22
-6.97955  1.49835e+22
-6.86224  1.5033e+22
-6.74494  1.50998e+22
-6.62763  1.51817e+22
-6.51033  1.52774e+22
-6.39302  1.53833e+22
-6.27572  1.54951e+22
-6.15842  1.56083e+22
-6.04111  1.57182e+22
-5.92381  1.58206e+22
-5.8065  1.59133e+22
-5.68919  1.59942e+22
-5.57189  1.60641e+22
-5.45458  1.61251e+22
-5.33728  1.61815e+22
-5.21997  1.62383e+22
-5.10267  1.63019e+22
-4.98536  1.63784e+22
-4.86806  1.64736e+22
-4.75075  1.65922e+22
-4.63345  1.67378e+22
-4.51614  1.6911e+22
-4.39884  1.71106e+22
-4.28154  1.73338e+22
-4.16423  1.75749e+22
-4.04692  1.78266e+22
-3.92962  1.8081e+22
-3.81231  1.833e+22
-3.69501  1.85657e+22
-3.5777  1.87808e+22
-3.4604  1.89706e+22
-3.34309  1.91322e+22
-3.22579  1.92648e+22
-3.10849  1.93706e+22
-2.99118  1.94534e+22
-2.87387  1.95189e+22
-2.75657  1.95733e+22
-2.63926  1.96231e+22
-2.52196  1.96733e+22
-2.40465  1.97276e+22
-2.28735  1.9787e+22
-2.17005  1.98503e+22
-2.05274  1.99146e+22
-1.93544  1.99725e+22
-1.81813  2.00178e+22
-1.70083  2.00417e+22
-1.58352  2.00366e+22
-1.46622  1.99963e+22
-1.34891  1.99164e+22
-1.2316  1.97955e+22
-1.1143  1.96362e+22
-0.996995  1.94433e+22
-0.87969  1.9226e+22
-0.762385  1.89942e+22
-0.64508  1.8762e+22
-0.527775  1.85422e+22
-0.41047  1.83476e+22
-0.293165  1.81902e+22
-0.17586  1.80796e+22
-0.058555  1.80229e+22
0.05875  1.80232e+22
0.176055  1.80804e+22
0.29336  1.81911e+22
0.410665  1.83488e+22
0.52797  1.85431e+22
0.645275  1.87627e+22
0.76258  1.89942e+22
0.879885  1.92248e+22
0.99719  1.94408e+22
1.1145  1.9632e+22
1.2318  1.97895e+22
1.3491  1.99085e+22
1.46641  1.99861e+22
1.58371  2.00241e+22
1.70102  2.00268e+22
1.81832  2.00006e+22
1.93563  1.99529e+22
2.05294  1.98924e+22
2.17024  1.98265e+22
2.28754  1.97609e+22
2.40485  1.96994e+22
2.52216  1.96431e+22
2.63946  1.9591e+22
2.75677  1.9539e+22
2.87407  1.94825e+22
2.99137  1.94147e+22
3.10868  1.93298e+22
3.22599  1.92218e+22
3.34329  1.90874e+22
3.4606  1.89244e+22
3.5779  1.8733e+22
3.69521  1.85163e+22
3.81251  1.82801e+22
3.92982  1.80298e+22
4.04712  1.77747e+22
4.16443  1.75227e+22
4.28173  1.72814e+22
4.39903  1.70579e+22
4.51634  1.68579e+22
4.63364  1.66848e+22
4.75095  1.65387e+22
4.86825  1.64193e+22
4.98556  1.63233e+22
5.10286  1.62459e+22
5.22017  1.61812e+22
5.33748  1.6123e+22
5.45478  1.60653e+22
5.57209  1.6003e+22
5.68939  1.59315e+22
5.8067  1.58494e+22
5.924  1.57557e+22
6.0413  1.56523e+22
6.15861  1.55416e+22
6.27591  1.54278e+22
6.39322  1.53158e+22
6.51052  1.52099e+22
6.62783  1.51141e+22
6.74514  1.50322e+22
6.86244  1.49662e+22
6.97975  1.49167e+22
7.09705  1.48831e+22
7.21436  1.48632e+22
7.33166  1.48539e+22
7.44897  1.48514e+22
7.56627  1.48515e+22
7.68358  1.48497e+22
7.80088  1.48426e+22
7.91819  1.48266e+22
8.03549  1.48005e+22
8.1528  1.47626e+22
8.2701  1.47119e+22
8.38741  1.46492e+22
8.50471  1.45747e+22
8.62202  1.44887e+22
8.73932  1.43905e+22
8.85662  1.42801e+22
8.97393  1.41559e+22
9.09123  1.40159e+22
9.20854  1.38584e+22
9.32584  1.36812e+22
9.44315  1.34815e+22
9.56045  1.32588e+22
9.67776  1.30127e+22
9.79506  1.27433e+22
9.91237  1.24535e+22
10.0297  1.21471e+22
10.147  1.1829e+22
10.2643  1.1506e+22
10.3816  1.11848e+22
10.4989  1.0874e+22
10.6162  1.05806e+22
10.7335  1.03116e+22
10.8508  1.00726e+22
10.9681  9.867e+21
11.0854  9.69701e+21
11.2027  9.56182e+21
11.32  9.45897e+21
11.4373  9.38452e+21
11.5546  9.33341e+21
11.6719  9.29946e+21
11.7893  9.27705e+21
11.9066  9.25997e+21
12.0239  9.24281e+21
12.1412  9.22233e+21
12.2585  9.19506e+21
12.3758  9.15952e+21
12.4931  9.11539e+21
12.6104  9.06318e+21
12.7277  9.00488e+21
12.845  8.94235e+21
12.9623  8.87716e+21
13.0796  8.81186e+21
13.1969  8.74682e+21
13.3142  8.68257e+21
13.4315  8.61748e+21
13.5488  8.54992e+21
13.6661  8.47693e+21
13.7834  8.39539e+21
13.9007  8.30243e+21
14.018  8.19584e+21
14.1354  8.07377e+21
14.2527  7.93642e+21
14.37  7.78495e+21
14.4873  7.62131e+21
14.6046  7.44927e+21
14.7219  7.27271e+21
14.8392  7.09597e+21
14.9565  6.92313e+21
15.0738  6.75753e+21
15.1911  6.60243e+21
15.3084  6.45892e+21
15.4257  6.32762e+21
15.543  6.20784e+21
15.6603  6.09757e+21
15.7776  5.99433e+21
15.8949  5.8945e+21
16.0122  5.79512e+21
16.1295  5.69292e+21
16.2468  5.5859e+21
16.3641  5.47284e+21
16.4815  5.35372e+21
16.5988  5.22949e+21
16.7161  5.10168e+21
16.8334  4.97363e+21
16.9507  4.84752e+21
17.068  4.7263e+21
17.1853  4.61199e+21
17.3026  4.50625e+21
17.4199  4.40954e+21
17.5372  4.3217e+21
17.6545  4.24162e+21
17.7718  4.16811e+21
17.8891  4.099e+21
18.0064  4.03276e+21
18.1237  3.96744e+21
18.241  3.90173e+21
18.3583  3.83482e+21
18.4756  3.76634e+21
18.5929  3.69627e+21
18.7102  3.6252e+21
18.8275  3.55395e+21
18.9449  3.48329e+21
19.0622  3.41411e+21
19.1795  3.34666e+21
19.2968  3.28117e+21
19.4141  3.21719e+21
19.5314  3.15401e+21
19.6487  3.0901e+21
19.766  3.02427e+21
19.8833  2.95491e+21
20.0006  2.88088e+21
20.1179  2.8016e+21
20.2352  2.71709e+21
20.3525  2.62796e+21
20.4698  2.53578e+21
20.5871  2.44251e+21
20.7044  2.3506e+21
20.8217  2.26273e+21
20.939  2.1816e+21
21.0563  2.10951e+21
21.1736  2.04826e+21
21.291  1.99898e+21
21.4083  1.96174e+21
21.5256  1.93592e+21
21.6429  1.91956e+21
21.7602  1.91029e+21
21.8775  1.90463e+21
21.9948  1.89906e+21
22.1121  1.88987e+21
22.2294  1.87374e+21
22.3467  1.8485e+21
22.464  1.8129e+21
22.5813  1.767e+21
22.6986  1.71268e+21
22.8159  1.65253e+21
22.9332  1.59019e+21
23.0505  1.52968e+21
23.1678  1.47486e+21
23.2851  1.42872e+21
23.4024  1.39328e+21
23.5198  1.36931e+21
23.6371  1.35632e+21
23.7544  1.35241e+21
23.8717  1.35503e+21
23.989  1.36098e+21
24.1063  1.36695e+21
24.2236  1.36975e+21
24.3409  1.36679e+21
24.4582  1.3562e+21
24.5755  1.33699e+21
24.6928  1.30906e+21
24.8101  1.27323e+21
24.9274  1.23091e+21
25.0447  1.18418e+21
25.162  1.13538e+21
25.2793  1.08661e+21
25.3966  1.03974e+21
25.5139  9.96259e+20
25.6312  9.56937e+20
25.7485  9.22052e+20
25.8658  8.91336e+20
25.9832  8.64177e+20
26.1005  8.39959e+20
26.2178  8.18144e+20
26.3351  7.98276e+20
26.4524  7.80103e+20
26.5697  7.63862e+20
26.687  7.49602e+20
26.8043  7.3745e+20
26.9216  7.27659e+20
27.0389  7.19861e+20
27.1562  7.1389e+20
27.2735  7.092e+20
27.3908  7.05222e+20
27.5081  7.01183e+20
27.6254  6.96488e+20
27.7427  6.90582e+20
27.86  6.8288e+20
27.9773  6.73141e+20
28.0946  6.61335e+20
28.212  6.4756e+20
28.3293  6.32178e+20
28.4466  6.15699e+20
28.5639  5.98822e+20
28.6812  5.82232e+20
28.7985  5.66592e+20
28.9158  5.52335e+20
29.0331  5.39529e+20
29.1504  5.28097e+20
29.2677  5.17731e+20
29.385  5.0775e+20
29.5023  4.9767e+20
29.6196  4.86908e+20
29.7369  4.75282e+20
29.8542  4.62771e+20
29.9715  4.49473e+20
30.0888  4.35937e+20
30.2061  4.22576e+20
30.3234  4.10145e+20
30.4407  3.99267e+20
30.558  3.90381e+20
30.6754  3.84109e+20
30.7927  3.80552e+20
30.91  3.8007e+20
31.0273  3.82429e+20
31.1446  3.87155e+20
31.2619  3.93553e+20
31.3792  4.0042e+20
31.4965  4.06623e+20
31.6138  4.10819e+20
31.7311  4.11879e+20
31.8484  4.09321e+20
31.9657  4.03243e+20
32.083  3.94366e+20
32.2003  3.84193e+20
32.3176  3.74792e+20
32.4349  3.68409e+20
32.5522  3.67322e+20
32.6695  3.73297e+20
32.7868  3.87602e+20
32.9042  4.1067e+20
33.0215  4.41911e+20
33.1388  4.80162e+20
33.2561  5.23105e+20
33.3734  5.68205e+20
33.4907  6.12347e+20
33.608  6.52345e+20
33.7253  6.85247e+20
33.8426  7.08279e+20
33.9599  7.19769e+20
34.0772  7.18563e+20
34.1945  7.04953e+20
34.3118  6.80224e+20
34.4291  6.46563e+20
34.5464  6.06909e+20
34.6637  5.64323e+20
34.781  5.22005e+20
34.8983  4.82259e+20
35.0156  4.4678e+20
35.1329  4.16244e+20
35.2503  3.905e+20
35.3676  3.68898e+20
35.4849  3.50167e+20
35.6022  3.33372e+20
35.7195  3.17676e+20
35.8368  3.02652e+20
35.9541  2.88146e+20
36.0714  2.74527e+20
36.1887  2.62146e+20
36.306  2.51422e+20
36.4233  2.4277e+20
36.5406  2.36475e+20
36.6579  2.328e+20
36.7752  2.31877e+20
36.8925  2.33824e+20
37.0098  2.38803e+20
37.1271  2.46675e+20
37.2444  2.57303e+20
37.3617  2.70116e+20
37.479  2.84271e+20
37.5964  2.98755e+20
37.7137  3.12429e+20
37.831  3.24164e+20
37.9483  3.33106e+20
38.0656  3.38781e+20
38.1829  3.41274e+20
38.3002  3.41028e+20
38.4175  3.38912e+20
38.5348  3.35941e+20
38.6521  3.33041e+20
38.7694  3.31108e+20
38.8867  3.30633e+20
39.004  3.31852e+20
39.1213  3.34536e+20
39.2386  3.38337e+20
39.3559  3.42691e+20
39.4732  3.46921e+20
39.5905  3.50326e+20
39.7078  3.52241e+20
39.8251  3.52071e+20
39.9425  3.49513e+20
40.0598  3.4447e+20
40.1771  3.37096e+20
40.2944  3.27809e+20
40.4117  3.17419e+20
40.529  3.0691e+20
40.6463  2.97327e+20
40.7636  2.89765e+20
40.8809  2.84886e+20
40.9982  2.83159e+20
41.1155  2.84662e+20
41.2328  2.88837e+20
41.3501  2.94864e+20
41.4674  3.01756e+20
41.5847  3.08436e+20
41.702  3.1386e+20
41.8193  3.1739e+20
41.9366  3.18603e+20
42.0539  3.17498e+20
42.1712  3.14296e+20
42.2885  3.09543e+20
42.4059  3.04004e+20
42.5232  2.98309e+20
42.6405  2.93254e+20
42.7578  2.89142e+20
42.8751  2.86314e+20
42.9924  2.84517e+20
43.1097  2.833e+20
43.227  2.81855e+20
43.3443  2.79081e+20
43.4616  2.73907e+20
43.5789  2.65336e+20
43.6962  2.5274e+20
43.8135  2.36e+20
43.9308  2.15629e+20
44.0481  1.92739e+20
44.1654  1.68851e+20
44.2827  1.45803e+20
44.4  1.25275e+20
44.5173  1.08731e+20
44.6347  9.70998e+19
44.752  9.06444e+19
44.8693  8.91485e+19
44.9866  9.18751e+19
45.1039  9.79254e+19
45.2212  1.06352e+20
45.3385  1.16472e+20
45.4558  1.2779e+20
45.5731  1.40022e+20
45.6904  1.53098e+20
45.8077  1.66868e+20
45.925  1.81042e+20
46.0423  1.9513e+20
46.1596  2.08448e+20
46.2769  2.20132e+20
46.3942  2.29347e+20
46.5115  2.35531e+20
46.6288  2.38256e+20
46.7461  2.37634e+20
46.8634  2.34016e+20
46.9808  2.28024e+20
47.0981  2.20448e+20
47.2154  2.11952e+20
47.3327  2.03223e+20
47.45  1.9454e+20
47.5673  1.86164e+20
47.6846  1.78148e+20
47.8019  1.70302e+20
47.9192  1.62581e+20
48.0365  1.54857e+20
48.1538  1.47105e+20
48.2711  1.39365e+20
48.3884  1.31686e+20
48.5057  1.24234e+20
48.623  1.17118e+20
48.7403  1.10606e+20
48.8576  1.04887e+20
48.9749  1.00232e+20
49.0922  9.68741e+19
49.2095  9.49999e+19
49.3269  9.46852e+19
49.4442  9.59465e+19
49.5615  9.87027e+19
49.6788  1.02698e+20
49.7961  1.07571e+20
49.9134  1.12997e+20
50.0307  1.18598e+20
50.148  1.23961e+20
50.2653  1.28844e+20
50.3826  1.32995e+20
50.4999  1.36273e+20
50.6172  1.38579e+20
50.7345  1.39916e+20
50.8518  1.40339e+20
