#S 1 spectral density
#N 2
#UFWHM 21.936
#L  abscissas [um]  spectral density
-58.5938  6.92402e+19
-58.4764  6.58202e+19
-58.3591  6.24236e+19
-58.2418  5.8925e+19
-58.1245  5.51806e+19
-58.0072  5.12391e+19
-57.8899  4.73276e+19
-57.7726  4.37284e+19
-57.6553  4.08126e+19
-57.538  3.88637e+19
-57.4207  3.80245e+19
-57.3034  3.83146e+19
-57.1861  3.96105e+19
-57.0688  4.17771e+19
-56.9515  4.45838e+19
-56.8342  4.78647e+19
-56.7169  5.14236e+19
-56.5996  5.5041e+19
-56.4823  5.84332e+19
-56.365  6.11929e+19
-56.2477  6.29524e+19
-56.1303  6.33164e+19
-56.013  6.21525e+19
-55.8957  5.95637e+19
-55.7784  5.60957e+19
-55.6611  5.25557e+19
-55.5438  4.99402e+19
-55.4265  4.93091e+19
-55.3092  5.1337e+19
-55.1919  5.62944e+19
-55.0746  6.38137e+19
-54.9573  7.30083e+19
-54.84  8.25339e+19
-54.7227  9.09289e+19
-54.6054  9.68722e+19
-54.4881  9.94534e+19
-54.3708  9.83447e+19
-54.2535  9.37533e+19
-54.1362  8.64266e+19
-54.0189  7.73065e+19
-53.9016  6.74961e+19
-53.7842  5.79522e+19
-53.6669  4.93699e+19
-53.5496  4.21998e+19
-53.4323  3.66708e+19
-53.315  3.28788e+19
-53.1977  3.08457e+19
-53.0804  3.05955e+19
-52.9631  3.21659e+19
-52.8458  3.55377e+19
-52.7285  4.06553e+19
-52.6112  4.73138e+19
-52.4939  5.52389e+19
-52.3766  6.40168e+19
-52.2593  7.32787e+19
-52.142  8.26484e+19
-52.0247  9.18246e+19
-51.9074  1.00615e+20
-51.7901  1.08832e+20
-51.6728  1.16391e+20
-51.5555  1.23092e+20
-51.4381  1.28652e+20
-51.3208  1.32851e+20
-51.2035  1.35297e+20
-51.0862  1.35834e+20
-50.9689  1.34281e+20
-50.8516  1.30725e+20
-50.7343  1.25486e+20
-50.617  1.19007e+20
-50.4997  1.11807e+20
-50.3824  1.045e+20
-50.2651  9.75222e+19
-50.1478  9.13131e+19
-50.0305  8.60252e+19
-49.9132  8.18188e+19
-49.7959  7.86763e+19
-49.6786  7.66372e+19
-49.5613  7.57158e+19
-49.444  7.60556e+19
-49.3267  7.78641e+19
-49.2094  8.14402e+19
-49.092  8.70845e+19
-48.9747  9.50888e+19
-48.8574  1.05558e+20
-48.7401  1.18466e+20
-48.6228  1.33463e+20
-48.5055  1.49906e+20
-48.3882  1.6696e+20
-48.2709  1.83469e+20
-48.1536  1.98238e+20
-48.0363  2.10117e+20
-47.919  2.18233e+20
-47.8017  2.22038e+20
-47.6844  2.21471e+20
-47.5671  2.16962e+20
-47.4498  2.09418e+20
-47.3325  1.99863e+20
-47.2152  1.89587e+20
-47.0979  1.79673e+20
-46.9806  1.709e+20
-46.8633  1.63828e+20
-46.7459  1.58716e+20
-46.6286  1.555e+20
-46.5113  1.54096e+20
-46.394  1.54326e+20
-46.2767  1.56168e+20
-46.1594  1.59546e+20
-46.0421  1.64366e+20
-45.9248  1.7037e+20
-45.8075  1.77094e+20
-45.6902  1.83688e+20
-45.5729  1.89179e+20
-45.4556  1.92317e+20
-45.3383  1.92106e+20
-45.221  1.87774e+20
-45.1037  1.79177e+20
-44.9864  1.66796e+20
-44.8691  1.51837e+20
-44.7518  1.35976e+20
-44.6345  1.21218e+20
-44.5172  1.0963e+20
-44.3998  1.02949e+20
-44.2825  1.02405e+20
-44.1652  1.08617e+20
-44.0479  1.21557e+20
-43.9306  1.40581e+20
-43.8133  1.64591e+20
-43.696  1.92165e+20
-43.5787  2.2177e+20
-43.4614  2.51838e+20
-43.3441  2.80973e+20
-43.2268  3.07879e+20
-43.1095  3.31577e+20
-42.9922  3.51331e+20
-42.8749  3.66828e+20
-42.7576  3.77963e+20
-42.6403  3.85108e+20
-42.523  3.88677e+20
-42.4057  3.89418e+20
-42.2884  3.87962e+20
-42.171  3.84817e+20
-42.0537  3.80416e+20
-41.9364  3.74843e+20
-41.8191  3.68117e+20
-41.7018  3.59981e+20
-41.5845  3.50355e+20
-41.4672  3.39239e+20
-41.3499  3.26959e+20
-41.2326  3.13968e+20
-41.1153  3.01174e+20
-40.998  2.8958e+20
-40.8807  2.80109e+20
-40.7634  2.73711e+20
-40.6461  2.70924e+20
-40.5288  2.72083e+20
-40.4115  2.77133e+20
-40.2942  2.85488e+20
-40.1769  2.96451e+20
-40.0596  3.09073e+20
-39.9423  3.22257e+20
-39.825  3.34831e+20
-39.7076  3.45666e+20
-39.5903  3.53985e+20
-39.473  3.59196e+20
-39.3557  3.60844e+20
-39.2384  3.59143e+20
-39.1211  3.54557e+20
-39.0038  3.47815e+20
-38.8865  3.39897e+20
-38.7692  3.31976e+20
-38.6519  3.24822e+20
-38.5346  3.19265e+20
-38.4173  3.15441e+20
-38.3  3.13488e+20
-38.1827  3.12965e+20
-38.0654  3.13347e+20
-37.9481  3.14068e+20
-37.8308  3.14507e+20
-37.7135  3.14242e+20
-37.5962  3.13036e+20
-37.4789  3.10638e+20
-37.3615  3.07017e+20
-37.2442  3.02058e+20
-37.1269  2.95905e+20
-37.0096  2.88733e+20
-36.8923  2.80897e+20
-36.775  2.73146e+20
-36.6577  2.66326e+20
-36.5404  2.61683e+20
-36.4231  2.60454e+20
-36.3058  2.63597e+20
-36.1885  2.71827e+20
-36.0712  2.85211e+20
-35.9539  3.0321e+20
-35.8366  3.24642e+20
-35.7193  3.47937e+20
-35.602  3.71303e+20
-35.4847  3.93364e+20
-35.3674  4.13115e+20
-35.2501  4.3023e+20
-35.1328  4.44962e+20
-35.0154  4.58162e+20
-34.8981  4.70901e+20
-34.7808  4.84442e+20
-34.6635  4.9951e+20
-34.5462  5.16548e+20
-34.4289  5.35592e+20
-34.3116  5.5585e+20
-34.1943  5.76203e+20
-34.077  5.95186e+20
-33.9597  6.11022e+20
-33.8424  6.22091e+20
-33.7251  6.26775e+20
-33.6078  6.23793e+20
-33.4905  6.12355e+20
-33.3732  5.92232e+20
-33.2559  5.64056e+20
-33.1386  5.29033e+20
-33.0213  4.89254e+20
-32.904  4.47378e+20
-32.7867  4.06217e+20
-32.6693  3.68512e+20
-32.552  3.36695e+20
-32.4347  3.12242e+20
-32.3174  2.96137e+20
-32.2001  2.88083e+20
-32.0828  2.87237e+20
-31.9655  2.92113e+20
-31.8482  3.01084e+20
-31.7309  3.12581e+20
-31.6136  3.25206e+20
-31.4963  3.3802e+20
-31.379  3.50594e+20
-31.2617  3.62821e+20
-31.1444  3.74909e+20
-31.0271  3.87019e+20
-30.9098  3.99787e+20
-30.7925  4.13237e+20
-30.6752  4.27691e+20
-30.5579  4.43208e+20
-30.4406  4.59494e+20
-30.3232  4.76288e+20
-30.2059  4.92717e+20
-30.0886  5.08047e+20
-29.9713  5.21442e+20
-29.854  5.31903e+20
-29.7367  5.38625e+20
-29.6194  5.41371e+20
-29.5021  5.40137e+20
-29.3848  5.35341e+20
-29.2675  5.28036e+20
-29.1502  5.1944e+20
-29.0329  5.11044e+20
-28.9156  5.04153e+20
-28.7983  4.9987e+20
-28.681  4.99048e+20
-28.5637  5.02064e+20
-28.4464  5.0894e+20
-28.3291  5.19341e+20
-28.2118  5.32704e+20
-28.0944  5.48361e+20
-27.9771  5.65608e+20
-27.8598  5.83759e+20
-27.7425  6.02106e+20
-27.6252  6.20145e+20
-27.5079  6.37637e+20
-27.3906  6.54508e+20
-27.2733  6.71048e+20
-27.156  6.87484e+20
-27.0387  7.04556e+20
-26.9214  7.22807e+20
-26.8041  7.42899e+20
-26.6868  7.65187e+20
-26.5695  7.89855e+20
-26.4522  8.16717e+20
-26.3349  8.45361e+20
-26.2176  8.75352e+20
-26.1003  9.05678e+20
-25.983  9.35736e+20
-25.8657  9.64768e+20
-25.7483  9.92209e+20
-25.631  1.01775e+21
-25.5137  1.04095e+21
-25.3964  1.06173e+21
-25.2791  1.08e+21
-25.1618  1.09577e+21
-25.0445  1.1089e+21
-24.9272  1.11962e+21
-24.8099  1.12791e+21
-24.6926  1.13398e+21
-24.5753  1.13792e+21
-24.458  1.13989e+21
-24.3407  1.13991e+21
-24.2234  1.13842e+21
-24.1061  1.13565e+21
-23.9888  1.13235e+21
-23.8715  1.1295e+21
-23.7542  1.12865e+21
-23.6369  1.13148e+21
-23.5196  1.14007e+21
-23.4023  1.15642e+21
-23.2849  1.18227e+21
-23.1676  1.21864e+21
-23.0503  1.26587e+21
-22.933  1.32308e+21
-22.8157  1.38859e+21
-22.6984  1.45975e+21
-22.5811  1.5333e+21
-22.4638  1.60568e+21
-22.3465  1.67364e+21
-22.2292  1.73425e+21
-22.1119  1.78548e+21
-21.9946  1.82635e+21
-21.8773  1.85686e+21
-21.76  1.87825e+21
-21.6427  1.89271e+21
-21.5254  1.90311e+21
-21.4081  1.91317e+21
-21.2908  1.92662e+21
-21.1735  1.94714e+21
-21.0561  1.97813e+21
-20.9388  2.0219e+21
-20.8215  2.07979e+21
-20.7042  2.15206e+21
-20.5869  2.23719e+21
-20.4696  2.333e+21
-20.3523  2.43612e+21
-20.235  2.5427e+21
-20.1177  2.64852e+21
-20.0004  2.75027e+21
-19.8831  2.84498e+21
-19.7658  2.93097e+21
-19.6485  3.00748e+21
-19.5312  3.07547e+21
-19.4139  3.1363e+21
-19.2966  3.19264e+21
-19.1793  3.24738e+21
-19.062  3.30357e+21
-18.9447  3.36367e+21
-18.8274  3.42979e+21
-18.71  3.5033e+21
-18.5927  3.58422e+21
-18.4754  3.67184e+21
-18.3581  3.76445e+21
-18.2408  3.85987e+21
-18.1235  3.95524e+21
-18.0062  4.04793e+21
-17.8889  4.1352e+21
-17.7716  4.21582e+21
-17.6543  4.28887e+21
-17.537  4.3547e+21
-17.4197  4.41497e+21
-17.3024  4.47225e+21
-17.1851  4.52991e+21
-17.0678  4.59121e+21
-16.9505  4.65966e+21
-16.8332  4.73806e+21
-16.7159  4.82827e+21
-16.5986  4.93093e+21
-16.4813  5.04587e+21
-16.364  5.17152e+21
-16.2466  5.30572e+21
-16.1293  5.44534e+21
-16.012  5.58785e+21
-15.8947  5.73037e+21
-15.7774  5.87099e+21
-15.6601  6.00865e+21
-15.5428  6.14312e+21
-15.4255  6.27496e+21
-15.3082  6.40598e+21
-15.1909  6.53857e+21
-15.0736  6.67481e+21
-14.9563  6.81699e+21
-14.839  6.96684e+21
-14.7217  7.12463e+21
-14.6044  7.28969e+21
-14.4871  7.46028e+21
-14.3698  7.63301e+21
-14.2525  7.80351e+21
-14.1352  7.96701e+21
-14.0178  8.11958e+21
-13.9005  8.25696e+21
-13.7832  8.37665e+21
-13.6659  8.47735e+21
-13.5486  8.55986e+21
-13.4313  8.62615e+21
-13.314  8.67972e+21
-13.1967  8.7247e+21
-13.0794  8.76658e+21
-12.9621  8.80917e+21
-12.8448  8.85755e+21
-12.7275  8.91409e+21
-12.6102  8.98144e+21
-12.4929  9.06004e+21
-12.3756  9.1488e+21
-12.2583  9.24639e+21
-12.141  9.34999e+21
-12.0237  9.45594e+21
-11.9064  9.56058e+21
-11.7891  9.66082e+21
-11.6718  9.75401e+21
-11.5544  9.8394e+21
-11.4371  9.91751e+21
-11.3198  9.98999e+21
-11.2025  1.00607e+22
-11.0852  1.01353e+22
-10.9679  1.02195e+22
-10.8506  1.03203e+22
-10.7333  1.04437e+22
-10.616  1.05956e+22
-10.4987  1.07809e+22
-10.3814  1.10013e+22
-10.2641  1.12577e+22
-10.1468  1.15482e+22
-10.0295  1.18687e+22
-9.91217  1.22124e+22
-9.79487  1.25715e+22
-9.67756  1.2936e+22
-9.56026  1.32956e+22
-9.44295  1.3639e+22
-9.32565  1.39574e+22
-9.20834  1.42416e+22
-9.09104  1.4485e+22
-8.97373  1.4684e+22
-8.85643  1.48368e+22
-8.73913  1.49443e+22
-8.62182  1.50101e+22
-8.50452  1.50398e+22
-8.38721  1.50407e+22
-8.26991  1.50194e+22
-8.1526  1.49849e+22
-8.03529  1.49436e+22
-7.91799  1.49031e+22
-7.80069  1.48686e+22
-7.68338  1.48442e+22
-7.56608  1.48334e+22
-7.44877  1.48378e+22
-7.33146  1.48578e+22
-7.21416  1.48924e+22
-7.09685  1.49404e+22
-6.97955  1.49993e+22
-6.86224  1.50671e+22
-6.74494  1.51421e+22
-6.62763  1.52207e+22
-6.51033  1.5302e+22
-6.39302  1.53845e+22
-6.27572  1.54672e+22
-6.15842  1.55501e+22
-6.04111  1.56335e+22
-5.92381  1.57177e+22
-5.8065  1.58052e+22
-5.68919  1.58968e+22
-5.57189  1.59952e+22
-5.45458  1.61026e+22
-5.33728  1.62217e+22
-5.21997  1.63541e+22
-5.10267  1.65019e+22
-4.98536  1.66656e+22
-4.86806  1.68449e+22
-4.75075  1.70387e+22
-4.63345  1.72452e+22
-4.51614  1.74607e+22
-4.39884  1.76811e+22
-4.28154  1.79026e+22
-4.16423  1.81199e+22
-4.04692  1.83283e+22
-3.92962  1.85236e+22
-3.81231  1.87025e+22
-3.69501  1.88626e+22
-3.5777  1.90022e+22
-3.4604  1.91218e+22
-3.34309  1.92226e+22
-3.22579  1.9307e+22
-3.10849  1.93789e+22
-2.99118  1.94425e+22
-2.87387  1.95024e+22
-2.75657  1.95632e+22
-2.63926  1.96284e+22
-2.52196  1.97005e+22
-2.40465  1.97804e+22
-2.28735  1.98668e+22
-2.17005  1.99571e+22
-2.05274  2.00475e+22
-1.93544  2.01306e+22
-1.81813  2.02011e+22
-1.70083  2.02512e+22
-1.58352  2.02751e+22
-1.46622  2.02674e+22
-1.34891  2.02255e+22
-1.2316  2.0148e+22
-1.1143  2.00376e+22
-0.996995  1.98983e+22
-0.87969  1.97379e+22
-0.762385  1.95642e+22
-0.64508  1.93886e+22
-0.527775  1.92214e+22
-0.41047  1.90728e+22
-0.293165  1.89522e+22
-0.17586  1.88672e+22
-0.058555  1.88234e+22
0.05875  1.88234e+22
0.176055  1.8867e+22
0.29336  1.89514e+22
0.410665  1.90718e+22
0.52797  1.92197e+22
0.645275  1.93863e+22
0.76258  1.95608e+22
0.879885  1.97333e+22
0.99719  1.98924e+22
1.1145  2.00301e+22
1.2318  2.01389e+22
1.3491  2.02147e+22
1.46641  2.02549e+22
1.58371  2.02605e+22
1.70102  2.02349e+22
1.81832  2.01829e+22
1.93563  2.01107e+22
2.05294  2.00254e+22
2.17024  1.99339e+22
2.28754  1.9842e+22
2.40485  1.97538e+22
2.52216  1.96723e+22
2.63946  1.95988e+22
2.75677  1.95316e+22
2.87407  1.94691e+22
2.99137  1.9407e+22
3.10868  1.93413e+22
3.22599  1.9267e+22
3.34329  1.91804e+22
3.4606  1.90777e+22
3.5779  1.89558e+22
3.69521  1.88138e+22
3.81251  1.86521e+22
3.92982  1.84708e+22
4.04712  1.82736e+22
4.16443  1.80637e+22
4.28173  1.7845e+22
4.39903  1.76224e+22
4.51634  1.74008e+22
4.63364  1.71848e+22
4.75095  1.69776e+22
4.86825  1.6783e+22
4.98556  1.66031e+22
5.10286  1.64392e+22
5.22017  1.6291e+22
5.33748  1.6158e+22
5.45478  1.60386e+22
5.57209  1.5931e+22
5.68939  1.58318e+22
5.8067  1.57398e+22
5.924  1.56519e+22
6.0413  1.55671e+22
6.15861  1.54832e+22
6.27591  1.53997e+22
6.39322  1.53167e+22
6.51052  1.52339e+22
6.62783  1.51521e+22
6.74514  1.50732e+22
6.86244  1.49987e+22
6.97975  1.49306e+22
7.09705  1.48718e+22
7.21436  1.48241e+22
7.33166  1.47896e+22
7.44897  1.47699e+22
7.56627  1.47658e+22
7.68358  1.47764e+22
7.80088  1.48005e+22
7.91819  1.48344e+22
8.03549  1.48745e+22
8.1528  1.4915e+22
8.2701  1.49482e+22
8.38741  1.49676e+22
8.50471  1.49652e+22
8.62202  1.49335e+22
8.73932  1.48652e+22
8.85662  1.47556e+22
8.97393  1.4601e+22
9.09123  1.44001e+22
9.20854  1.41551e+22
9.32584  1.38701e+22
9.44315  1.35507e+22
9.56045  1.32066e+22
9.67776  1.28475e+22
9.79506  1.24835e+22
9.91237  1.21254e+22
10.0297  1.17829e+22
10.147  1.1464e+22
10.2643  1.11752e+22
10.3816  1.09201e+22
10.4989  1.07013e+22
10.6162  1.05174e+22
10.7335  1.03664e+22
10.8508  1.02436e+22
10.9681  1.01433e+22
11.0854  1.00594e+22
11.2027  9.9849e+21
11.32  9.91366e+21
11.4373  9.84069e+21
11.5546  9.76231e+21
11.6719  9.67626e+21
11.7893  9.5827e+21
11.9066  9.48237e+21
12.0239  9.37739e+21
12.1412  9.27184e+21
12.2585  9.1688e+21
12.3758  9.0717e+21
12.4931  8.98348e+21
12.6104  8.9057e+21
12.7277  8.83938e+21
12.845  8.78371e+21
12.9623  8.73612e+21
13.0796  8.69412e+21
13.1969  8.65285e+21
13.3142  8.60822e+21
13.4315  8.55479e+21
13.5488  8.48857e+21
13.6661  8.40601e+21
13.7834  8.30493e+21
13.9007  8.18499e+21
14.018  8.04747e+21
14.1354  7.89468e+21
14.2527  7.73083e+21
14.37  7.56052e+21
14.4873  7.38788e+21
14.6046  7.21761e+21
14.7219  7.05273e+21
14.8392  6.89547e+21
14.9565  6.74627e+21
15.0738  6.60452e+21
15.1911  6.46906e+21
15.3084  6.33717e+21
15.4257  6.20667e+21
15.543  6.07551e+21
15.6603  5.94191e+21
15.7776  5.80529e+21
15.8949  5.66553e+21
16.0122  5.52407e+21
16.1295  5.3826e+21
16.2468  5.24395e+21
16.3641  5.11098e+21
16.4815  4.98651e+21
16.5988  4.87277e+21
16.7161  4.77083e+21
16.8334  4.68178e+21
16.9507  4.60423e+21
17.068  4.53656e+21
17.1853  4.47586e+21
17.3026  4.41889e+21
17.4199  4.36206e+21
17.5372  4.30219e+21
17.6545  4.23668e+21
17.7718  4.16425e+21
17.8891  4.08419e+21
18.0064  3.99752e+21
18.1237  3.90572e+21
18.241  3.8112e+21
18.3583  3.71677e+21
18.4756  3.62513e+21
18.5929  3.5385e+21
18.7102  3.45854e+21
18.8275  3.38607e+21
18.9449  3.32076e+21
19.0622  3.2615e+21
19.1795  3.20601e+21
19.2968  3.15178e+21
19.4141  3.09586e+21
19.5314  3.03548e+21
19.6487  2.96796e+21
19.766  2.89186e+21
19.8833  2.80642e+21
20.0006  2.71227e+21
20.1179  2.61122e+21
20.2352  2.5062e+21
20.3525  2.40073e+21
20.4698  2.29884e+21
20.5871  2.20432e+21
20.7044  2.12044e+21
20.8217  2.04954e+21
20.939  1.99288e+21
21.0563  1.95025e+21
21.1736  1.92029e+21
21.291  1.90059e+21
21.4083  1.8878e+21
21.5256  1.87835e+21
21.6429  1.86822e+21
21.7602  1.85412e+21
21.8775  1.83291e+21
21.9948  1.80257e+21
22.1121  1.76196e+21
22.2294  1.71092e+21
22.3467  1.65068e+21
22.464  1.58328e+21
22.5813  1.51144e+21
22.6986  1.43872e+21
22.8159  1.36845e+21
22.9332  1.30385e+21
23.0505  1.24758e+21
23.1678  1.2014e+21
23.2851  1.16598e+21
23.4024  1.14103e+21
23.5198  1.12542e+21
23.6371  1.11756e+21
23.7544  1.11525e+21
23.8717  1.11659e+21
23.989  1.1198e+21
24.1063  1.12344e+21
24.2236  1.12646e+21
24.3409  1.12823e+21
24.4582  1.12838e+21
24.5755  1.12667e+21
24.6928  1.12297e+21
24.8101  1.11715e+21
24.9274  1.10904e+21
25.0447  1.09856e+21
25.162  1.0857e+21
25.2793  1.07031e+21
25.3966  1.05232e+21
25.5139  1.0318e+21
25.6312  1.00885e+21
25.7485  9.83674e+20
25.8658  9.56525e+20
25.9832  9.27784e+20
26.1005  8.98043e+20
26.2178  8.68053e+20
26.3351  8.38519e+20
26.4524  8.1008e+20
26.5697  7.83552e+20
26.687  7.59213e+20
26.8043  7.37189e+20
26.9216  7.17477e+20
27.0389  6.99412e+20
27.1562  6.82579e+20
27.2735  6.66272e+20
27.3908  6.49995e+20
27.5081  6.3323e+20
27.6254  6.15884e+20
27.7427  5.98024e+20
27.86  5.79854e+20
27.9773  5.6191e+20
28.0946  5.44871e+20
28.212  5.29415e+20
28.3293  5.16302e+20
28.4466  5.0618e+20
28.5639  4.99596e+20
28.6812  4.96834e+20
28.7985  4.97925e+20
28.9158  5.02433e+20
29.0331  5.09506e+20
29.1504  5.18027e+20
29.2677  5.26718e+20
29.385  5.34036e+20
29.5023  5.3881e+20
29.6196  5.39988e+20
29.7369  5.37196e+20
29.8542  5.30405e+20
29.9715  5.19906e+20
30.0888  5.06575e+20
30.2061  4.91145e+20
30.3234  4.74705e+20
30.4407  4.58092e+20
30.558  4.41812e+20
30.6754  4.26489e+20
30.7927  4.11998e+20
30.91  3.98603e+20
31.0273  3.86007e+20
31.1446  3.73854e+20
31.2619  3.61858e+20
31.3792  3.49594e+20
31.4965  3.37032e+20
31.6138  3.24212e+20
31.7311  3.11573e+20
31.8484  3.00129e+20
31.9657  2.91252e+20
32.083  2.86506e+20
32.2003  2.87535e+20
32.3176  2.95821e+20
32.4349  3.12199e+20
32.5522  3.36836e+20
32.6695  3.6886e+20
32.7868  4.06632e+20
32.9042  4.47853e+20
33.0215  4.89616e+20
33.1388  5.29257e+20
33.2561  5.63991e+20
33.3734  5.91927e+20
33.4907  6.11721e+20
33.608  6.22837e+20
33.7253  6.25589e+20
33.8426  6.20619e+20
33.9599  6.09424e+20
34.0772  5.93372e+20
34.1945  5.7432e+20
34.3118  5.53961e+20
34.4291  5.33729e+20
34.5464  5.14785e+20
34.6637  4.97678e+20
34.781  4.82689e+20
34.8983  4.69243e+20
35.0156  4.56481e+20
35.1329  4.43244e+20
35.2503  4.28425e+20
35.3676  4.11316e+20
35.4849  3.91437e+20
35.6022  3.69285e+20
35.7195  3.45867e+20
35.8368  3.2268e+20
35.9541  3.01308e+20
36.0714  2.83467e+20
36.1887  2.70205e+20
36.306  2.62081e+20
36.4233  2.59046e+20
36.5406  2.60404e+20
36.6579  2.65105e+20
36.7752  2.71936e+20
36.8925  2.79693e+20
37.0098  2.87519e+20
37.1271  2.94661e+20
37.2444  3.00834e+20
37.3617  3.05792e+20
37.479  3.09437e+20
37.5964  3.11829e+20
37.7137  3.13088e+20
37.831  3.13349e+20
37.9483  3.12915e+20
38.0656  3.12197e+20
38.1829  3.11822e+20
38.3002  3.12347e+20
38.4175  3.14342e+20
38.5348  3.18166e+20
38.6521  3.23753e+20
38.7694  3.30887e+20
38.8867  3.38822e+20
39.004  3.46672e+20
39.1213  3.53336e+20
39.2386  3.57836e+20
39.3559  3.59441e+20
39.4732  3.57679e+20
39.5905  3.5248e+20
39.7078  3.44117e+20
39.8251  3.33175e+20
39.9425  3.20605e+20
40.0598  3.07485e+20
40.1771  2.9495e+20
40.2944  2.84037e+20
40.4117  2.75753e+20
40.529  2.70858e+20
40.6463  2.69793e+20
40.7636  2.72683e+20
40.8809  2.79155e+20
40.9982  2.8863e+20
41.1155  3.00317e+20
41.2328  3.13124e+20
41.3501  3.26029e+20
41.4674  3.38301e+20
41.5847  3.4938e+20
41.702  3.5891e+20
41.8193  3.66986e+20
41.9366  3.73696e+20
42.0539  3.7923e+20
42.1712  3.83579e+20
42.2885  3.86635e+20
42.4059  3.8805e+20
42.5232  3.87191e+20
42.6405  3.8352e+20
42.7578  3.76238e+20
42.8751  3.6497e+20
42.9924  3.49353e+20
43.1097  3.29472e+20
43.227  3.05736e+20
43.3443  2.78814e+20
43.4616  2.49744e+20
43.5789  2.19768e+20
43.6962  1.90303e+20
43.8135  1.62909e+20
43.9308  1.39116e+20
44.0481  1.20333e+20
44.1654  1.07626e+20
44.2827  1.01648e+20
44.4  1.02386e+20
44.5173  1.09223e+20
44.6347  1.2091e+20
44.752  1.35645e+20
44.8693  1.51457e+20
44.9866  1.66329e+20
45.1039  1.78549e+20
45.2212  1.86962e+20
45.3385  1.91154e+20
45.4558  1.91272e+20
45.5731  1.88043e+20
45.6904  1.82576e+20
45.8077  1.7601e+20
45.925  1.69373e+20
46.0423  1.63461e+20
46.1596  1.58769e+20
46.2769  1.55515e+20
46.3942  1.53759e+20
46.5115  1.53627e+20
46.6288  1.55111e+20
46.7461  1.58398e+20
46.8634  1.63602e+20
46.9808  1.70702e+20
47.0981  1.79521e+20
47.2154  1.89453e+20
47.3327  1.99722e+20
47.45  2.09157e+20
47.5673  2.16587e+20
47.6846  2.20975e+20
47.8019  2.21353e+20
47.9192  2.17404e+20
48.0365  2.09141e+20
48.1538  1.97137e+20
48.2711  1.82325e+20
48.3884  1.65807e+20
48.5057  1.48819e+20
48.623  1.32401e+20
48.7403  1.17506e+20
48.8576  1.047e+20
48.9749  9.43207e+19
49.0922  8.64268e+19
49.2095  8.0888e+19
49.3269  7.73728e+19
49.4442  7.56136e+19
49.5615  7.53195e+19
49.6788  7.62807e+19
49.7961  7.83494e+19
49.9134  8.15268e+19
50.0307  8.57835e+19
50.148  9.10624e+19
50.2653  9.73172e+19
50.3826  1.04282e+20
50.4999  1.11598e+20
50.6172  1.1875e+20
50.7345  1.25204e+20
50.8518  1.3038e+20
