#S 1 spectral density
#N 2
#UFWHM 23.461
#L  abscissas [um]  spectral density
-58.5938  1.47988e+20
-58.4764  1.48561e+20
-58.3591  1.51432e+20
-58.2418  1.56325e+20
-58.1245  1.62954e+20
-58.0072  1.70918e+20
-57.8899  1.79972e+20
-57.7726  1.898e+20
-57.6553  1.99973e+20
-57.538  2.10021e+20
-57.4207  2.19372e+20
-57.3034  2.27344e+20
-57.1861  2.33272e+20
-57.0688  2.36613e+20
-56.9515  2.37137e+20
-56.8342  2.34821e+20
-56.7169  2.29959e+20
-56.5996  2.2313e+20
-56.4823  2.14914e+20
-56.365  2.06065e+20
-56.2477  1.97111e+20
-56.1303  1.88468e+20
-56.013  1.8051e+20
-55.8957  1.73376e+20
-55.7784  1.67349e+20
-55.6611  1.62558e+20
-55.5438  1.59247e+20
-55.4265  1.57707e+20
-55.3092  1.58049e+20
-55.1919  1.60298e+20
-55.0746  1.64303e+20
-54.9573  1.69656e+20
-54.84  1.76005e+20
-54.7227  1.8267e+20
-54.6054  1.89358e+20
-54.4881  1.95578e+20
-54.3708  2.0109e+20
-54.2535  2.05933e+20
-54.1362  2.10142e+20
-54.0189  2.13603e+20
-53.9016  2.16447e+20
-53.7842  2.18693e+20
-53.6669  2.20163e+20
-53.5496  2.20905e+20
-53.4323  2.20935e+20
-53.315  2.20435e+20
-53.1977  2.19702e+20
-53.0804  2.19115e+20
-52.9631  2.18953e+20
-52.8458  2.19458e+20
-52.7285  2.20683e+20
-52.6112  2.22413e+20
-52.4939  2.24302e+20
-52.3766  2.25911e+20
-52.2593  2.2687e+20
-52.142  2.26845e+20
-52.0247  2.25693e+20
-51.9074  2.23506e+20
-51.7901  2.2044e+20
-51.6728  2.16815e+20
-51.5555  2.12962e+20
-51.4381  2.08985e+20
-51.3208  2.05137e+20
-51.2035  2.01409e+20
-51.0862  1.98006e+20
-50.9689  1.94946e+20
-50.8516  1.92414e+20
-50.7343  1.90798e+20
-50.617  1.90349e+20
-50.4997  1.914e+20
-50.3824  1.94187e+20
-50.2651  1.98678e+20
-50.1478  2.04862e+20
-50.0305  2.12301e+20
-49.9132  2.20685e+20
-49.7959  2.29331e+20
-49.6786  2.37564e+20
-49.5613  2.45007e+20
-49.444  2.51246e+20
-49.3267  2.55792e+20
-49.2094  2.58547e+20
-49.092  2.59524e+20
-48.9747  2.58622e+20
-48.8574  2.56174e+20
-48.7401  2.52436e+20
-48.6228  2.47821e+20
-48.5055  2.42758e+20
-48.3882  2.37756e+20
-48.2709  2.33236e+20
-48.1536  2.29581e+20
-48.0363  2.2709e+20
-47.919  2.25919e+20
-47.8017  2.26171e+20
-47.6844  2.27848e+20
-47.5671  2.30927e+20
-47.4498  2.35228e+20
-47.3325  2.40488e+20
-47.2152  2.4641e+20
-47.0979  2.5248e+20
-46.9806  2.58116e+20
-46.8633  2.62825e+20
-46.7459  2.65819e+20
-46.6286  2.66705e+20
-46.5113  2.65165e+20
-46.394  2.61326e+20
-46.2767  2.555e+20
-46.1594  2.48353e+20
-46.0421  2.40906e+20
-45.9248  2.34062e+20
-45.8075  2.28859e+20
-45.6902  2.26068e+20
-45.5729  2.26153e+20
-45.4556  2.29349e+20
-45.3383  2.35552e+20
-45.221  2.44473e+20
-45.1037  2.55571e+20
-44.9864  2.68188e+20
-44.8691  2.81734e+20
-44.7518  2.95532e+20
-44.6345  3.08792e+20
-44.5172  3.20724e+20
-44.3998  3.30644e+20
-44.2825  3.37648e+20
-44.1652  3.41266e+20
-44.0479  3.41112e+20
-43.9306  3.3712e+20
-43.8133  3.29541e+20
-43.696  3.19061e+20
-43.5787  3.06604e+20
-43.4614  2.9324e+20
-43.3441  2.80112e+20
-43.2268  2.68246e+20
-43.1095  2.58493e+20
-42.9922  2.51422e+20
-42.8749  2.47369e+20
-42.7576  2.46426e+20
-42.6403  2.48416e+20
-42.523  2.53198e+20
-42.4057  2.60369e+20
-42.2884  2.69504e+20
-42.171  2.80196e+20
-42.0537  2.91795e+20
-41.9364  3.03765e+20
-41.8191  3.15452e+20
-41.7018  3.26354e+20
-41.5845  3.35989e+20
-41.4672  3.44066e+20
-41.3499  3.50624e+20
-41.2326  3.55718e+20
-41.1153  3.59798e+20
-40.998  3.63321e+20
-40.8807  3.66875e+20
-40.7634  3.71033e+20
-40.6461  3.76331e+20
-40.5288  3.83121e+20
-40.4115  3.91615e+20
-40.2942  4.01899e+20
-40.1769  4.13707e+20
-40.0596  4.26685e+20
-39.9423  4.40285e+20
-39.825  4.53585e+20
-39.7076  4.65784e+20
-39.5903  4.75668e+20
-39.473  4.82502e+20
-39.3557  4.85613e+20
-39.2384  4.8465e+20
-39.1211  4.79647e+20
-39.0038  4.71249e+20
-38.8865  4.6038e+20
-38.7692  4.48162e+20
-38.6519  4.35933e+20
-38.5346  4.24963e+20
-38.4173  4.16384e+20
-38.3  4.10954e+20
-38.1827  4.0929e+20
-38.0654  4.11778e+20
-37.9481  4.18459e+20
-37.8308  4.29452e+20
-37.7135  4.44447e+20
-37.5962  4.6304e+20
-37.4789  4.84575e+20
-37.3615  5.07941e+20
-37.2442  5.31843e+20
-37.1269  5.54494e+20
-37.0096  5.74242e+20
-36.8923  5.89382e+20
-36.775  5.98641e+20
-36.6577  6.01383e+20
-36.5404  5.97456e+20
-36.4231  5.87647e+20
-36.3058  5.73128e+20
-36.1885  5.55635e+20
-36.0712  5.36979e+20
-35.9539  5.18976e+20
-35.8366  5.03114e+20
-35.7193  4.90553e+20
-35.602  4.82286e+20
-35.4847  4.78592e+20
-35.3674  4.79776e+20
-35.2501  4.85846e+20
-35.1328  4.96398e+20
-35.0154  5.11064e+20
-34.8981  5.28664e+20
-34.7808  5.48269e+20
-34.6635  5.68476e+20
-34.5462  5.87706e+20
-34.4289  6.04379e+20
-34.3116  6.17347e+20
-34.1943  6.25663e+20
-34.077  6.28815e+20
-33.9597  6.26918e+20
-33.8424  6.20616e+20
-33.7251  6.10941e+20
-33.6078  5.98917e+20
-33.4905  5.85837e+20
-33.3732  5.72954e+20
-33.2559  5.61141e+20
-33.1386  5.51321e+20
-33.0213  5.43951e+20
-32.904  5.39468e+20
-32.7867  5.37967e+20
-32.6693  5.39306e+20
-32.552  5.43264e+20
-32.4347  5.49034e+20
-32.3174  5.56117e+20
-32.2001  5.63611e+20
-32.0828  5.70849e+20
-31.9655  5.77284e+20
-31.8482  5.82552e+20
-31.7309  5.86844e+20
-31.6136  5.90311e+20
-31.4963  5.93642e+20
-31.379  5.97544e+20
-31.2617  6.02802e+20
-31.1444  6.10037e+20
-31.0271  6.19534e+20
-30.9098  6.31685e+20
-30.7925  6.46086e+20
-30.6752  6.62434e+20
-30.5579  6.80121e+20
-30.4406  6.98113e+20
-30.3232  7.15553e+20
-30.2059  7.30909e+20
-30.0886  7.43248e+20
-29.9713  7.51426e+20
-29.854  7.54557e+20
-29.7367  7.52032e+20
-29.6194  7.4391e+20
-29.5021  7.30661e+20
-29.3848  7.13142e+20
-29.2675  6.92692e+20
-29.1502  6.71025e+20
-29.0329  6.49886e+20
-28.9156  6.30815e+20
-28.7983  6.15203e+20
-28.681  6.04178e+20
-28.5637  5.98351e+20
-28.4464  5.98144e+20
-28.3291  6.03449e+20
-28.2118  6.14116e+20
-28.0944  6.29584e+20
-27.9771  6.49023e+20
-27.8598  6.71605e+20
-27.7425  6.95883e+20
-27.6252  7.20843e+20
-27.5079  7.44989e+20
-27.3906  7.6724e+20
-27.2733  7.8666e+20
-27.156  8.02724e+20
-27.0387  8.15441e+20
-26.9214  8.25089e+20
-26.8041  8.32538e+20
-26.6868  8.38901e+20
-26.5695  8.45426e+20
-26.4522  8.53361e+20
-26.3349  8.63636e+20
-26.2176  8.77221e+20
-26.1003  8.94328e+20
-25.983  9.15108e+20
-25.8657  9.39265e+20
-25.7483  9.66033e+20
-25.631  9.94512e+20
-25.5137  1.02335e+21
-25.3964  1.05119e+21
-25.2791  1.07675e+21
-25.1618  1.09866e+21
-25.0445  1.11593e+21
-24.9272  1.1279e+21
-24.8099  1.13451e+21
-24.6926  1.13598e+21
-24.5753  1.13323e+21
-24.458  1.12742e+21
-24.3407  1.12026e+21
-24.2234  1.11335e+21
-24.1061  1.10849e+21
-23.9888  1.10732e+21
-23.8715  1.11135e+21
-23.7542  1.12174e+21
-23.6369  1.13933e+21
-23.5196  1.16467e+21
-23.4023  1.19787e+21
-23.2849  1.23841e+21
-23.1676  1.28562e+21
-23.0503  1.33811e+21
-22.933  1.39452e+21
-22.8157  1.45295e+21
-22.6984  1.51175e+21
-22.5811  1.56937e+21
-22.4638  1.62462e+21
-22.3465  1.67657e+21
-22.2292  1.72495e+21
-22.1119  1.76973e+21
-21.9946  1.81139e+21
-21.8773  1.85062e+21
-21.76  1.88822e+21
-21.6427  1.9251e+21
-21.5254  1.96215e+21
-21.4081  2.00006e+21
-21.2908  2.03953e+21
-21.1735  2.08105e+21
-21.0561  2.12487e+21
-20.9388  2.17127e+21
-20.8215  2.22042e+21
-20.7042  2.27169e+21
-20.5869  2.32505e+21
-20.4696  2.37987e+21
-20.3523  2.43567e+21
-20.235  2.49193e+21
-20.1177  2.54836e+21
-20.0004  2.60472e+21
-19.8831  2.6615e+21
-19.7658  2.7187e+21
-19.6485  2.77732e+21
-19.5312  2.83798e+21
-19.4139  2.90165e+21
-19.2966  2.96892e+21
-19.1793  3.04057e+21
-19.062  3.11684e+21
-18.9447  3.19784e+21
-18.8274  3.28331e+21
-18.71  3.37317e+21
-18.5927  3.46645e+21
-18.4754  3.56241e+21
-18.3581  3.66026e+21
-18.2408  3.75889e+21
-18.1235  3.85707e+21
-18.0062  3.95378e+21
-17.8889  4.04804e+21
-17.7716  4.13927e+21
-17.6543  4.22649e+21
-17.537  4.30984e+21
-17.4197  4.38897e+21
-17.3024  4.46428e+21
-17.1851  4.53625e+21
-17.0678  4.60542e+21
-16.9505  4.67274e+21
-16.8332  4.73916e+21
-16.7159  4.80558e+21
-16.5986  4.87296e+21
-16.4813  4.94218e+21
-16.364  5.01417e+21
-16.2466  5.09007e+21
-16.1293  5.17126e+21
-16.012  5.25784e+21
-15.8947  5.35112e+21
-15.7774  5.45152e+21
-15.6601  5.55968e+21
-15.5428  5.67568e+21
-15.4255  5.79946e+21
-15.3082  5.93061e+21
-15.1909  6.06949e+21
-15.0736  6.21457e+21
-14.9563  6.3657e+21
-14.839  6.52174e+21
-14.7217  6.68179e+21
-14.6044  6.84409e+21
-14.4871  7.00726e+21
-14.3698  7.16931e+21
-14.2525  7.32811e+21
-14.1352  7.48157e+21
-14.0178  7.6285e+21
-13.9005  7.76704e+21
-13.7832  7.89631e+21
-13.6659  8.01673e+21
-13.5486  8.12842e+21
-13.4313  8.23256e+21
-13.314  8.33078e+21
-13.1967  8.42507e+21
-13.0794  8.51819e+21
-12.9621  8.61152e+21
-12.8448  8.70825e+21
-12.7275  8.80982e+21
-12.6102  8.91824e+21
-12.4929  9.03481e+21
-12.3756  9.16017e+21
-12.2583  9.29508e+21
-12.141  9.43912e+21
-12.0237  9.59152e+21
-11.9064  9.75056e+21
-11.7891  9.9143e+21
-11.6718  1.00803e+22
-11.5544  1.02465e+22
-11.4371  1.04112e+22
-11.3198  1.05717e+22
-11.2025  1.07273e+22
-11.0852  1.08772e+22
-10.9679  1.10219e+22
-10.8506  1.11621e+22
-10.7333  1.12986e+22
-10.616  1.14331e+22
-10.4987  1.15686e+22
-10.3814  1.17057e+22
-10.2641  1.18468e+22
-10.1468  1.19934e+22
-10.0295  1.21469e+22
-9.91217  1.23071e+22
-9.79487  1.24739e+22
-9.67756  1.2646e+22
-9.56026  1.28213e+22
-9.44295  1.29967e+22
-9.32565  1.31698e+22
-9.20834  1.33365e+22
-9.09104  1.34934e+22
-8.97373  1.36382e+22
-8.85643  1.37684e+22
-8.73913  1.38827e+22
-8.62182  1.39811e+22
-8.50452  1.40647e+22
-8.38721  1.41361e+22
-8.26991  1.41972e+22
-8.1526  1.4253e+22
-8.03529  1.43069e+22
-7.91799  1.43638e+22
-7.80069  1.44276e+22
-7.68338  1.4502e+22
-7.56608  1.45903e+22
-7.44877  1.46946e+22
-7.33146  1.4816e+22
-7.21416  1.49541e+22
-7.09685  1.51079e+22
-6.97955  1.52749e+22
-6.86224  1.54523e+22
-6.74494  1.56368e+22
-6.62763  1.5824e+22
-6.51033  1.60098e+22
-6.39302  1.61909e+22
-6.27572  1.63639e+22
-6.15842  1.65263e+22
-6.04111  1.6676e+22
-5.92381  1.68124e+22
-5.8065  1.69363e+22
-5.68919  1.70479e+22
-5.57189  1.71496e+22
-5.45458  1.7244e+22
-5.33728  1.73341e+22
-5.21997  1.74225e+22
-5.10267  1.75119e+22
-4.98536  1.76043e+22
-4.86806  1.77004e+22
-4.75075  1.78005e+22
-4.63345  1.79042e+22
-4.51614  1.80096e+22
-4.39884  1.81146e+22
-4.28154  1.82173e+22
-4.16423  1.83149e+22
-4.04692  1.84056e+22
-3.92962  1.84873e+22
-3.81231  1.85594e+22
-3.69501  1.86217e+22
-3.5777  1.86739e+22
-3.4604  1.87181e+22
-3.34309  1.87553e+22
-3.22579  1.87884e+22
-3.10849  1.88198e+22
-2.99118  1.88522e+22
-2.87387  1.88887e+22
-2.75657  1.89313e+22
-2.63926  1.89822e+22
-2.52196  1.90422e+22
-2.40465  1.91116e+22
-2.28735  1.91895e+22
-2.17005  1.92744e+22
-2.05274  1.93638e+22
-1.93544  1.94541e+22
-1.81813  1.95417e+22
-1.70083  1.9623e+22
-1.58352  1.96945e+22
-1.46622  1.97531e+22
-1.34891  1.97967e+22
-1.2316  1.98243e+22
-1.1143  1.98363e+22
-0.996995  1.98336e+22
-0.87969  1.98186e+22
-0.762385  1.97942e+22
-0.64508  1.97643e+22
-0.527775  1.97322e+22
-0.41047  1.97018e+22
-0.293165  1.96762e+22
-0.17586  1.96579e+22
-0.058555  1.96486e+22
0.05875  1.96496e+22
0.176055  1.96605e+22
0.29336  1.96804e+22
0.410665  1.97077e+22
0.52797  1.97397e+22
0.645275  1.97733e+22
0.76258  1.98047e+22
0.879885  1.98304e+22
0.99719  1.98468e+22
1.1145  1.98508e+22
1.2318  1.98403e+22
1.3491  1.98139e+22
1.46641  1.97716e+22
1.58371  1.97144e+22
1.70102  1.96445e+22
1.81832  1.95649e+22
1.93563  1.94788e+22
2.05294  1.93903e+22
2.17024  1.93029e+22
2.28754  1.92199e+22
2.40485  1.91439e+22
2.52216  1.90764e+22
2.63946  1.90183e+22
2.75677  1.89693e+22
2.87407  1.89283e+22
2.99137  1.88935e+22
3.10868  1.88624e+22
3.22599  1.88323e+22
3.34329  1.88005e+22
3.4606  1.87641e+22
3.5779  1.87209e+22
3.69521  1.86693e+22
3.81251  1.86079e+22
3.92982  1.85362e+22
4.04712  1.8455e+22
4.16443  1.8365e+22
4.28173  1.8268e+22
4.39903  1.81662e+22
4.51634  1.80619e+22
4.63364  1.79576e+22
4.75095  1.78549e+22
4.86825  1.77557e+22
4.98556  1.76607e+22
5.10286  1.75693e+22
5.22017  1.7481e+22
5.33748  1.73935e+22
5.45478  1.73044e+22
5.57209  1.7211e+22
5.68939  1.71098e+22
5.8067  1.69989e+22
5.924  1.6876e+22
6.0413  1.674e+22
6.15861  1.65907e+22
6.27591  1.6429e+22
6.39322  1.62568e+22
6.51052  1.60766e+22
6.62783  1.58913e+22
6.74514  1.5705e+22
6.86244  1.55218e+22
6.97975  1.53454e+22
7.09705  1.51796e+22
7.21436  1.50273e+22
7.33166  1.48902e+22
7.44897  1.47702e+22
7.56627  1.46672e+22
7.68358  1.458e+22
7.80088  1.45064e+22
7.91819  1.44433e+22
8.03549  1.43873e+22
8.1528  1.43338e+22
8.2701  1.42782e+22
8.38741  1.42169e+22
8.50471  1.41457e+22
8.62202  1.40617e+22
8.73932  1.39629e+22
8.85662  1.38485e+22
8.97393  1.37182e+22
9.09123  1.35733e+22
9.20854  1.34162e+22
9.32584  1.325e+22
9.44315  1.30772e+22
9.56045  1.2902e+22
9.67776  1.27274e+22
9.79506  1.25558e+22
9.91237  1.23898e+22
10.0297  1.22302e+22
10.147  1.20775e+22
10.2643  1.19316e+22
10.3816  1.17906e+22
10.4989  1.16538e+22
10.6162  1.15186e+22
10.7335  1.13838e+22
10.8508  1.12469e+22
10.9681  1.11064e+22
11.0854  1.09615e+22
11.2027  1.08109e+22
11.32  1.06544e+22
11.4373  1.04931e+22
11.5546  1.03281e+22
11.6719  1.01611e+22
11.7893  9.99463e+21
11.9066  9.83063e+21
12.0239  9.67119e+21
12.1412  9.51884e+21
12.2585  9.37479e+21
12.3758  9.23982e+21
12.4931  9.11425e+21
12.6104  8.99758e+21
12.7277  8.88934e+21
12.845  8.7879e+21
12.9623  8.69095e+21
13.0796  8.59704e+21
13.1969  8.50389e+21
13.3142  8.40881e+21
13.4315  8.3099e+21
13.5488  8.20524e+21
13.6661  8.09275e+21
13.7834  7.97147e+21
13.9007  7.84108e+21
14.018  7.70187e+21
14.1354  7.55408e+21
14.2527  7.39942e+21
14.37  7.23984e+21
14.4873  7.07692e+21
14.6046  6.91303e+21
14.7219  6.74994e+21
14.8392  6.58926e+21
14.9565  6.43263e+21
15.0738  6.28067e+21
15.1911  6.13492e+21
15.3084  5.99558e+21
15.4257  5.86366e+21
15.543  5.73923e+21
15.6603  5.62263e+21
15.7776  5.51408e+21
15.8949  5.41311e+21
16.0122  5.31912e+21
16.1295  5.23185e+21
16.2468  5.1504e+21
16.3641  5.07382e+21
16.4815  5.00135e+21
16.5988  4.93167e+21
16.7161  4.86372e+21
16.8334  4.79678e+21
16.9507  4.72986e+21
17.068  4.66181e+21
17.1853  4.59183e+21
17.3026  4.51902e+21
17.4199  4.44304e+21
17.5372  4.36315e+21
17.6545  4.2788e+21
17.7718  4.19046e+21
17.8891  4.09838e+21
18.0064  4.00296e+21
18.1237  3.90517e+21
18.241  3.80608e+21
18.3583  3.70656e+21
18.4756  3.60777e+21
18.5929  3.51084e+21
18.7102  3.41683e+21
18.8275  3.32628e+21
18.9449  3.23989e+21
19.0622  3.15826e+21
19.1795  3.08126e+21
19.2968  3.00902e+21
19.4141  2.94107e+21
19.5314  2.87673e+21
19.6487  2.81543e+21
19.766  2.75605e+21
19.8833  2.69806e+21
20.0006  2.64059e+21
20.1179  2.5834e+21
20.2352  2.52618e+21
20.3525  2.46912e+21
20.4698  2.41268e+21
20.5871  2.35717e+21
20.7044  2.30312e+21
20.8217  2.2511e+21
20.939  2.20148e+21
21.0563  2.15445e+21
21.1736  2.11003e+21
21.291  2.06803e+21
21.4083  2.02791e+21
21.5256  1.98935e+21
21.6429  1.95172e+21
21.7602  1.9141e+21
21.8775  1.8757e+21
21.9948  1.83561e+21
22.1121  1.79315e+21
22.2294  1.74752e+21
22.3467  1.69818e+21
22.464  1.64527e+21
22.5813  1.58919e+21
22.6986  1.53069e+21
22.8159  1.47106e+21
22.9332  1.41202e+21
23.0505  1.3551e+21
23.1678  1.3021e+21
23.2851  1.25452e+21
23.4024  1.2137e+21
23.5198  1.18033e+21
23.6371  1.15478e+21
23.7544  1.13706e+21
23.8717  1.12651e+21
23.989  1.1224e+21
24.1063  1.12341e+21
24.2236  1.12802e+21
24.3409  1.13465e+21
24.4582  1.14145e+21
24.5755  1.14678e+21
24.6928  1.149e+21
24.8101  1.14693e+21
24.9274  1.13972e+21
25.0447  1.12706e+21
25.162  1.10918e+21
25.2793  1.08662e+21
25.3966  1.06055e+21
25.5139  1.0321e+21
25.6312  1.00277e+21
25.7485  9.73975e+20
25.8658  9.46829e+20
25.9832  9.22493e+20
26.1005  9.01354e+20
26.2178  8.83978e+20
26.3351  8.70263e+20
26.4524  8.59724e+20
26.5697  8.51596e+20
26.687  8.44791e+20
26.8043  8.38165e+20
26.9216  8.30409e+20
27.0389  8.20377e+20
27.1562  8.07349e+20
27.2735  7.9095e+20
27.3908  7.71221e+20
27.5081  7.48656e+20
27.6254  7.24306e+20
27.7427  6.99197e+20
27.86  6.74733e+20
27.9773  6.52081e+20
28.0946  6.32551e+20
28.212  6.17099e+20
28.3293  6.06415e+20
28.4466  6.01146e+20
28.5639  6.01392e+20
28.6812  6.07278e+20
28.7985  6.18377e+20
28.9158  6.33986e+20
29.0331  6.53028e+20
29.1504  6.7413e+20
29.2677  6.95686e+20
29.385  7.15911e+20
29.5023  7.33209e+20
29.6196  7.46246e+20
29.7369  7.54108e+20
29.8542  7.56354e+20
29.9715  7.52958e+20
30.0888  7.44635e+20
30.2061  7.32049e+20
30.3234  7.16466e+20
30.4407  6.99079e+20
30.558  6.80946e+20
30.6754  6.63334e+20
30.7927  6.46867e+20
30.91  6.32433e+20
31.0273  6.20392e+20
31.1446  6.10841e+20
31.2619  6.03684e+20
31.3792  5.98409e+20
31.4965  5.94477e+20
31.6138  5.91123e+20
31.7311  5.87564e+20
31.8484  5.83264e+20
31.9657  5.77932e+20
32.083  5.71527e+20
32.2003  5.64281e+20
32.3176  5.56824e+20
32.4349  5.49878e+20
32.5522  5.44174e+20
32.6695  5.40387e+20
32.7868  5.39153e+20
32.9042  5.40837e+20
33.0215  5.45439e+20
33.1388  5.52976e+20
33.2561  5.62929e+20
33.3734  5.7481e+20
33.4907  5.878e+20
33.608  6.00899e+20
33.7253  6.12838e+20
33.8426  6.2246e+20
33.9599  6.28631e+20
34.0772  6.30311e+20
34.1945  6.2698e+20
34.3118  6.18519e+20
34.4291  6.05408e+20
34.5464  5.88617e+20
34.6637  5.69329e+20
34.781  5.49176e+20
34.8983  5.29559e+20
35.0156  5.12009e+20
35.1329  4.9763e+20
35.2503  4.87205e+20
35.3676  4.81382e+20
35.4849  4.80336e+20
35.6022  4.84238e+20
35.7195  4.92777e+20
35.8368  5.0548e+20
35.9541  5.2152e+20
36.0714  5.39627e+20
36.1887  5.58305e+20
36.306  5.75797e+20
36.4233  5.90186e+20
36.5406  5.9986e+20
36.6579  6.03574e+20
36.7752  6.00672e+20
36.8925  5.91198e+20
37.0098  5.75843e+20
37.1271  5.56037e+20
37.2444  5.3328e+20
37.3617  5.09388e+20
37.479  4.8604e+20
37.5964  4.64615e+20
37.7137  4.46109e+20
37.831  4.31282e+20
37.9483  4.20483e+20
38.0656  4.13937e+20
38.1829  4.11656e+20
38.3002  4.13506e+20
38.4175  4.19067e+20
38.5348  4.27792e+20
38.6521  4.38858e+20
38.7694  4.51122e+20
38.8867  4.63345e+20
39.004  4.74181e+20
39.1213  4.8247e+20
39.2386  4.87332e+20
39.3559  4.88162e+20
39.4732  4.84925e+20
39.5905  4.77905e+20
39.7078  4.67881e+20
39.8251  4.55663e+20
39.9425  4.42281e+20
40.0598  4.28699e+20
40.1771  4.15693e+20
40.2944  4.03904e+20
40.4117  3.93712e+20
40.529  3.85239e+20
40.6463  3.78494e+20
40.7636  3.73247e+20
40.8809  3.69075e+20
40.9982  3.65518e+20
41.1155  3.6195e+20
41.2328  3.5781e+20
41.3501  3.52605e+20
41.4674  3.45965e+20
41.5847  3.37736e+20
41.702  3.27962e+20
41.8193  3.16978e+20
41.9366  3.05169e+20
42.0539  2.93141e+20
42.1712  2.81487e+20
42.2885  2.70819e+20
42.4059  2.61685e+20
42.5232  2.5457e+20
42.6405  2.49882e+20
42.7578  2.47987e+20
42.8751  2.49073e+20
42.9924  2.53242e+20
43.1097  2.60442e+20
43.227  2.70307e+20
43.3443  2.82257e+20
43.4616  2.95448e+20
43.5789  3.0879e+20
43.6962  3.21205e+20
43.8135  3.31537e+20
43.9308  3.38982e+20
44.0481  3.42829e+20
44.1654  3.4277e+20
44.2827  3.38948e+20
44.4  3.3174e+20
44.5173  3.2168e+20
44.6347  3.09584e+20
44.752  2.96265e+20
44.8693  2.82422e+20
44.9866  2.68824e+20
45.1039  2.56211e+20
45.2212  2.45141e+20
45.3385  2.36292e+20
45.4558  2.302e+20
45.5731  2.27106e+20
45.6904  2.27091e+20
45.8077  2.30003e+20
45.925  2.35282e+20
46.0423  2.42124e+20
46.1596  2.49537e+20
46.2769  2.56608e+20
46.3942  2.62366e+20
46.5115  2.66097e+20
46.6288  2.67493e+20
46.7461  2.66499e+20
46.8634  2.63373e+20
46.9808  2.58662e+20
47.0981  2.52927e+20
47.2154  2.46836e+20
47.3327  2.40889e+20
47.45  2.35689e+20
47.5673  2.31438e+20
47.6846  2.28346e+20
47.8019  2.26719e+20
47.9192  2.2651e+20
48.0365  2.27726e+20
48.1538  2.30293e+20
48.2711  2.33914e+20
48.3884  2.38448e+20
48.5057  2.43398e+20
48.623  2.48453e+20
48.7403  2.53052e+20
48.8576  2.56668e+20
48.9749  2.59022e+20
49.0922  2.59796e+20
49.2095  2.58748e+20
49.3269  2.55841e+20
49.4442  2.51265e+20
49.5615  2.44983e+20
49.6788  2.37463e+20
49.7961  2.2916e+20
49.9134  2.20538e+20
50.0307  2.12221e+20
50.148  2.04821e+20
50.2653  1.98749e+20
50.3826  1.94268e+20
50.4999  1.91608e+20
50.6172  1.90636e+20
50.7345  1.91123e+20
50.8518  1.92753e+20
