#S 1 spectral density
#N 2
#UFWHM 31.7897
#L  abscissas [um]  spectral density
-58.5938  3.22404e+20
-58.4764  3.30222e+20
-58.3591  3.33717e+20
-58.2418  3.31799e+20
-58.1245  3.24112e+20
-58.0072  3.11179e+20
-57.8899  2.94249e+20
-57.7726  2.7523e+20
-57.6553  2.56297e+20
-57.538  2.39636e+20
-57.4207  2.27017e+20
-57.3034  2.19645e+20
-57.1861  2.17992e+20
-57.0688  2.21922e+20
-56.9515  2.30618e+20
-56.8342  2.42926e+20
-56.7169  2.5746e+20
-56.5996  2.72721e+20
-56.4823  2.87298e+20
-56.365  2.99893e+20
-56.2477  3.09497e+20
-56.1303  3.15432e+20
-56.013  3.17347e+20
-55.8957  3.15504e+20
-55.7784  3.10395e+20
-55.6611  3.03152e+20
-55.5438  2.94998e+20
-55.4265  2.87128e+20
-55.3092  2.80632e+20
-55.1919  2.76293e+20
-55.0746  2.74324e+20
-54.9573  2.7449e+20
-54.84  2.76114e+20
-54.7227  2.78557e+20
-54.6054  2.8088e+20
-54.4881  2.82475e+20
-54.3708  2.83021e+20
-54.2535  2.82546e+20
-54.1362  2.81332e+20
-54.0189  2.79847e+20
-53.9016  2.7858e+20
-53.7842  2.77958e+20
-53.6669  2.78386e+20
-53.5496  2.80194e+20
-53.4323  2.83466e+20
-53.315  2.88365e+20
-53.1977  2.94912e+20
-53.0804  3.02918e+20
-52.9631  3.12128e+20
-52.8458  3.22161e+20
-52.7285  3.32225e+20
-52.6112  3.41577e+20
-52.4939  3.49368e+20
-52.3766  3.55063e+20
-52.2593  3.58314e+20
-52.142  3.59299e+20
-52.0247  3.58881e+20
-51.9074  3.58232e+20
-51.7901  3.58915e+20
-51.6728  3.62581e+20
-51.5555  3.70714e+20
-51.4381  3.84267e+20
-51.3208  4.0359e+20
-51.2035  4.28472e+20
-51.0862  4.57961e+20
-50.9689  4.90573e+20
-50.8516  5.2436e+20
-50.7343  5.5731e+20
-50.617  5.87331e+20
-50.4997  6.12649e+20
-50.3824  6.31698e+20
-50.2651  6.43483e+20
-50.1478  6.47525e+20
-50.0305  6.43988e+20
-49.9132  6.33479e+20
-49.7959  6.17145e+20
-49.6786  5.96357e+20
-49.5613  5.72728e+20
-49.444  5.47901e+20
-49.3267  5.23195e+20
-49.2094  4.99369e+20
-49.092  4.77146e+20
-48.9747  4.56383e+20
-48.8574  4.37025e+20
-48.7401  4.18507e+20
-48.6228  4.00385e+20
-48.5055  3.82399e+20
-48.3882  3.64341e+20
-48.2709  3.46542e+20
-48.1536  3.29626e+20
-48.0363  3.14449e+20
-47.919  3.02157e+20
-47.8017  2.94043e+20
-47.6844  2.91269e+20
-47.5671  2.94813e+20
-47.4498  3.05274e+20
-47.3325  3.22662e+20
-47.2152  3.4643e+20
-47.0979  3.75325e+20
-46.9806  4.0761e+20
-46.8633  4.41139e+20
-46.7459  4.73237e+20
-46.6286  5.01837e+20
-46.5113  5.24758e+20
-46.394  5.40861e+20
-46.2767  5.4939e+20
-46.1594  5.50589e+20
-46.0421  5.45507e+20
-45.9248  5.35596e+20
-45.8075  5.22723e+20
-45.6902  5.08803e+20
-45.5729  4.95467e+20
-45.4556  4.84383e+20
-45.3383  4.76316e+20
-45.221  4.72021e+20
-45.1037  4.71379e+20
-44.9864  4.74048e+20
-44.8691  4.79289e+20
-44.7518  4.86121e+20
-44.6345  4.9316e+20
-44.5172  4.99035e+20
-44.3998  5.0257e+20
-44.2825  5.02501e+20
-44.1652  4.98246e+20
-44.0479  4.89689e+20
-43.9306  4.7738e+20
-43.8133  4.62485e+20
-43.696  4.46831e+20
-43.5787  4.32365e+20
-43.4614  4.21052e+20
-43.3441  4.14685e+20
-43.2268  4.14277e+20
-43.1095  4.20226e+20
-42.9922  4.31976e+20
-42.8749  4.48415e+20
-42.7576  4.6784e+20
-42.6403  4.8824e+20
-42.523  5.07824e+20
-42.4057  5.24861e+20
-42.2884  5.38443e+20
-42.171  5.4808e+20
-42.0537  5.53929e+20
-41.9364  5.5685e+20
-41.8191  5.57756e+20
-41.7018  5.58142e+20
-41.5845  5.59128e+20
-41.4672  5.61885e+20
-41.3499  5.67072e+20
-41.2326  5.74988e+20
-41.1153  5.8526e+20
-40.998  5.97098e+20
-40.8807  6.09263e+20
-40.7634  6.205e+20
-40.6461  6.29239e+20
-40.5288  6.34477e+20
-40.4115  6.35288e+20
-40.2942  6.31683e+20
-40.1769  6.23812e+20
-40.0596  6.12477e+20
-39.9423  5.98902e+20
-39.825  5.8439e+20
-39.7076  5.70242e+20
-39.5903  5.57502e+20
-39.473  5.46967e+20
-39.3557  5.3921e+20
-39.2384  5.34414e+20
-39.1211  5.32593e+20
-39.0038  5.33707e+20
-38.8865  5.37397e+20
-38.7692  5.43266e+20
-38.6519  5.50773e+20
-38.5346  5.59383e+20
-38.4173  5.6831e+20
-38.3  5.76857e+20
-38.1827  5.844e+20
-38.0654  5.90642e+20
-37.9481  5.95428e+20
-37.8308  5.99227e+20
-37.7135  6.02477e+20
-37.5962  6.06004e+20
-37.4789  6.10469e+20
-37.3615  6.16542e+20
-37.2442  6.24252e+20
-37.1269  6.33338e+20
-37.0096  6.4318e+20
-36.8923  6.52956e+20
-36.775  6.61828e+20
-36.6577  6.69113e+20
-36.5404  6.74461e+20
-36.4231  6.78008e+20
-36.3058  6.7995e+20
-36.1885  6.81042e+20
-36.0712  6.81734e+20
-35.9539  6.82723e+20
-35.8366  6.84257e+20
-35.7193  6.86671e+20
-35.602  6.90317e+20
-35.4847  6.95216e+20
-35.3674  7.01668e+20
-35.2501  7.10037e+20
-35.1328  7.20632e+20
-35.0154  7.33667e+20
-34.8981  7.48945e+20
-34.7808  7.6605e+20
-34.6635  7.84232e+20
-34.5462  8.02376e+20
-34.4289  8.19398e+20
-34.3116  8.34376e+20
-34.1943  8.46745e+20
-34.077  8.56494e+20
-33.9597  8.64125e+20
-33.8424  8.7074e+20
-33.7251  8.77719e+20
-33.6078  8.8649e+20
-33.4905  8.98231e+20
-33.3732  9.13842e+20
-33.2559  9.33759e+20
-33.1386  9.57862e+20
-33.0213  9.85618e+20
-32.904  1.01596e+21
-32.7867  1.04783e+21
-32.6693  1.07995e+21
-32.552  1.11096e+21
-32.4347  1.13966e+21
-32.3174  1.16518e+21
-32.2001  1.18684e+21
-32.0828  1.20453e+21
-31.9655  1.2184e+21
-31.8482  1.22914e+21
-31.7309  1.23785e+21
-31.6136  1.24578e+21
-31.4963  1.2542e+21
-31.379  1.26413e+21
-31.2617  1.2765e+21
-31.1444  1.29137e+21
-31.0271  1.30855e+21
-30.9098  1.32756e+21
-30.7925  1.34726e+21
-30.6752  1.36661e+21
-30.5579  1.38463e+21
-30.4406  1.40052e+21
-30.3232  1.41392e+21
-30.2059  1.4245e+21
-30.0886  1.43265e+21
-29.9713  1.43907e+21
-29.854  1.44469e+21
-29.7367  1.45071e+21
-29.6194  1.45861e+21
-29.5021  1.46971e+21
-29.3848  1.48537e+21
-29.2675  1.50654e+21
-29.1502  1.5337e+21
-29.0329  1.56673e+21
-28.9156  1.60497e+21
-28.7983  1.64691e+21
-28.681  1.6908e+21
-28.5637  1.73488e+21
-28.4464  1.77722e+21
-28.3291  1.81643e+21
-28.2118  1.85175e+21
-28.0944  1.88317e+21
-27.9771  1.91135e+21
-27.8598  1.93765e+21
-27.7425  1.96367e+21
-27.6252  1.99153e+21
-27.5079  2.02303e+21
-27.3906  2.05993e+21
-27.2733  2.10355e+21
-27.156  2.15475e+21
-27.0387  2.21369e+21
-26.9214  2.28015e+21
-26.8041  2.35289e+21
-26.6868  2.43067e+21
-26.5695  2.51141e+21
-26.4522  2.59293e+21
-26.3349  2.67294e+21
-26.2176  2.74955e+21
-26.1003  2.82073e+21
-25.983  2.88544e+21
-25.8657  2.94302e+21
-25.7483  2.99331e+21
-25.631  3.03715e+21
-25.5137  3.07486e+21
-25.3964  3.10772e+21
-25.2791  3.13656e+21
-25.1618  3.16237e+21
-25.0445  3.18553e+21
-24.9272  3.2066e+21
-24.8099  3.22546e+21
-24.6926  3.24225e+21
-24.5753  3.25679e+21
-24.458  3.26889e+21
-24.3407  3.27833e+21
-24.2234  3.28531e+21
-24.1061  3.28986e+21
-23.9888  3.29262e+21
-23.8715  3.29452e+21
-23.7542  3.29684e+21
-23.6369  3.30108e+21
-23.5196  3.30903e+21
-23.4023  3.32281e+21
-23.2849  3.34398e+21
-23.1676  3.37399e+21
-23.0503  3.41358e+21
-22.933  3.46303e+21
-22.8157  3.52186e+21
-22.6984  3.58899e+21
-22.5811  3.66302e+21
-22.4638  3.74228e+21
-22.3465  3.82472e+21
-22.2292  3.90885e+21
-22.1119  3.99313e+21
-21.9946  4.0768e+21
-21.8773  4.15914e+21
-21.76  4.24021e+21
-21.6427  4.32055e+21
-21.5254  4.40124e+21
-21.4081  4.48312e+21
-21.2908  4.56772e+21
-21.1735  4.65624e+21
-21.0561  4.74957e+21
-20.9388  4.84857e+21
-20.8215  4.95264e+21
-20.7042  5.06093e+21
-20.5869  5.17154e+21
-20.4696  5.2822e+21
-20.3523  5.38966e+21
-20.235  5.49126e+21
-20.1177  5.58389e+21
-20.0004  5.66555e+21
-19.8831  5.73541e+21
-19.7658  5.79322e+21
-19.6485  5.84005e+21
-19.5312  5.87841e+21
-19.4139  5.91085e+21
-19.2966  5.9409e+21
-19.1793  5.97183e+21
-19.062  6.00676e+21
-18.9447  6.04758e+21
-18.8274  6.09508e+21
-18.71  6.14978e+21
-18.5927  6.20993e+21
-18.4754  6.27311e+21
-18.3581  6.33626e+21
-18.2408  6.39525e+21
-18.1235  6.44657e+21
-18.0062  6.48664e+21
-17.8889  6.51294e+21
-17.7716  6.52451e+21
-17.6543  6.52094e+21
-17.537  6.50437e+21
-17.4197  6.47783e+21
-17.3024  6.44601e+21
-17.1851  6.41427e+21
-17.0678  6.38827e+21
-16.9505  6.37405e+21
-16.8332  6.37704e+21
-16.7159  6.40133e+21
-16.5986  6.44973e+21
-16.4813  6.52359e+21
-16.364  6.62266e+21
-16.2466  6.74521e+21
-16.1293  6.88789e+21
-16.012  7.04593e+21
-15.8947  7.21419e+21
-15.7774  7.38705e+21
-15.6601  7.55856e+21
-15.5428  7.72387e+21
-15.4255  7.87818e+21
-15.3082  8.01867e+21
-15.1909  8.14443e+21
-15.0736  8.25469e+21
-14.9563  8.35111e+21
-14.839  8.43643e+21
-14.7217  8.51362e+21
-14.6044  8.586e+21
-14.4871  8.65688e+21
-14.3698  8.72893e+21
-14.2525  8.80335e+21
-14.1352  8.88018e+21
-14.0178  8.95952e+21
-13.9005  9.03944e+21
-13.7832  9.1176e+21
-13.6659  9.19216e+21
-13.5486  9.26005e+21
-13.4313  9.31973e+21
-13.314  9.36966e+21
-13.1967  9.4091e+21
-13.0794  9.43892e+21
-12.9621  9.45948e+21
-12.8448  9.47349e+21
-12.7275  9.48338e+21
-12.6102  9.49257e+21
-12.4929  9.50441e+21
-12.3756  9.52148e+21
-12.2583  9.54686e+21
-12.141  9.58242e+21
-12.0237  9.62863e+21
-11.9064  9.68472e+21
-11.7891  9.74911e+21
-11.6718  9.81926e+21
-11.5544  9.89219e+21
-11.4371  9.9654e+21
-11.3198  1.00352e+22
-11.2025  1.01001e+22
-11.0852  1.01589e+22
-10.9679  1.02114e+22
-10.8506  1.02585e+22
-10.7333  1.03019e+22
-10.616  1.03438e+22
-10.4987  1.03881e+22
-10.3814  1.04366e+22
-10.2641  1.04928e+22
-10.1468  1.05589e+22
-10.0295  1.06371e+22
-9.91217  1.07277e+22
-9.79487  1.0831e+22
-9.67756  1.0946e+22
-9.56026  1.10709e+22
-9.44295  1.12025e+22
-9.32565  1.13388e+22
-9.20834  1.14761e+22
-9.09104  1.16116e+22
-8.97373  1.17439e+22
-8.85643  1.18706e+22
-8.73913  1.19914e+22
-8.62182  1.2106e+22
-8.50452  1.2215e+22
-8.38721  1.23195e+22
-8.26991  1.24192e+22
-8.1526  1.25151e+22
-8.03529  1.26063e+22
-7.91799  1.2692e+22
-7.80069  1.27699e+22
-7.68338  1.2837e+22
-7.56608  1.2891e+22
-7.44877  1.29282e+22
-7.33146  1.29456e+22
-7.21416  1.29408e+22
-7.09685  1.29121e+22
-6.97955  1.28595e+22
-6.86224  1.27844e+22
-6.74494  1.26911e+22
-6.62763  1.2583e+22
-6.51033  1.24673e+22
-6.39302  1.23509e+22
-6.27572  1.22416e+22
-6.15842  1.21468e+22
-6.04111  1.20739e+22
-5.92381  1.20281e+22
-5.8065  1.20145e+22
-5.68919  1.20345e+22
-5.57189  1.20889e+22
-5.45458  1.21753e+22
-5.33728  1.22905e+22
-5.21997  1.24284e+22
-5.10267  1.25825e+22
-4.98536  1.27451e+22
-4.86806  1.29085e+22
-4.75075  1.30654e+22
-4.63345  1.321e+22
-4.51614  1.33374e+22
-4.39884  1.34454e+22
-4.28154  1.35341e+22
-4.16423  1.36044e+22
-4.04692  1.36602e+22
-3.92962  1.37055e+22
-3.81231  1.37455e+22
-3.69501  1.37852e+22
-3.5777  1.38275e+22
-3.4604  1.3876e+22
-3.34309  1.39306e+22
-3.22579  1.39904e+22
-3.10849  1.4052e+22
-2.99118  1.41113e+22
-2.87387  1.41634e+22
-2.75657  1.42023e+22
-2.63926  1.42237e+22
-2.52196  1.42233e+22
-2.40465  1.41989e+22
-2.28735  1.41499e+22
-2.17005  1.40784e+22
-2.05274  1.3989e+22
-1.93544  1.38864e+22
-1.81813  1.37787e+22
-1.70083  1.36733e+22
-1.58352  1.35783e+22
-1.46622  1.3501e+22
-1.34891  1.34478e+22
-1.2316  1.34225e+22
-1.1143  1.34273e+22
-0.996995  1.34608e+22
-0.87969  1.35205e+22
-0.762385  1.36e+22
-0.64508  1.36927e+22
-0.527775  1.37892e+22
-0.41047  1.38805e+22
-0.293165  1.39578e+22
-0.17586  1.40136e+22
-0.058555  1.40426e+22
0.05875  1.40419e+22
0.176055  1.40113e+22
0.29336  1.39538e+22
0.410665  1.38752e+22
0.52797  1.37828e+22
0.645275  1.36854e+22
0.76258  1.35919e+22
0.879885  1.35118e+22
0.99719  1.34518e+22
1.1145  1.34177e+22
1.2318  1.3413e+22
1.3491  1.34384e+22
1.46641  1.34916e+22
1.58371  1.35685e+22
1.70102  1.36633e+22
1.81832  1.37686e+22
1.93563  1.38759e+22
2.05294  1.39779e+22
2.17024  1.40672e+22
2.28754  1.41378e+22
2.40485  1.4186e+22
2.52216  1.42096e+22
2.63946  1.42095e+22
2.75677  1.41874e+22
2.87407  1.41475e+22
2.99137  1.40947e+22
3.10868  1.40344e+22
3.22599  1.39719e+22
3.34329  1.39115e+22
3.4606  1.38563e+22
3.5779  1.38071e+22
3.69521  1.37633e+22
3.81251  1.37228e+22
3.92982  1.36813e+22
4.04712  1.36347e+22
4.16443  1.35779e+22
4.28173  1.35062e+22
4.39903  1.34164e+22
4.51634  1.3307e+22
4.63364  1.31787e+22
4.75095  1.30334e+22
4.86825  1.28759e+22
4.98556  1.27121e+22
5.10286  1.25493e+22
5.22017  1.23955e+22
5.33748  1.22577e+22
5.45478  1.21429e+22
5.57209  1.2057e+22
5.68939  1.20029e+22
5.8067  1.19832e+22
5.924  1.19973e+22
6.0413  1.2043e+22
6.15861  1.21158e+22
6.27591  1.221e+22
6.39322  1.23188e+22
6.51052  1.24345e+22
6.62783  1.2549e+22
6.74514  1.26556e+22
6.86244  1.2748e+22
6.97975  1.28212e+22
7.09705  1.28724e+22
7.21436  1.28995e+22
7.33166  1.29031e+22
7.44897  1.28844e+22
7.56627  1.28461e+22
7.68358  1.27911e+22
7.80088  1.27228e+22
7.91819  1.26443e+22
8.03549  1.25583e+22
8.1528  1.2467e+22
8.2701  1.23708e+22
8.38741  1.22707e+22
8.50471  1.21664e+22
8.62202  1.20569e+22
8.73932  1.19421e+22
8.85662  1.18213e+22
8.97393  1.16945e+22
9.09123  1.15622e+22
9.20854  1.14263e+22
9.32584  1.12893e+22
9.44315  1.11529e+22
9.56045  1.10209e+22
9.67776  1.0896e+22
9.79506  1.07807e+22
9.91237  1.06773e+22
10.0297  1.05863e+22
10.147  1.05081e+22
10.2643  1.04418e+22
10.3816  1.0385e+22
10.4989  1.03362e+22
10.6162  1.02918e+22
10.7335  1.02492e+22
10.8508  1.02053e+22
10.9681  1.01577e+22
11.0854  1.01051e+22
11.2027  1.00461e+22
11.32  9.98068e+21
11.4373  9.91051e+21
11.5546  9.83739e+21
11.6719  9.76418e+21
11.7893  9.69421e+21
11.9066  9.62985e+21
12.0239  9.57374e+21
12.1412  9.52789e+21
12.2585  9.4925e+21
12.3758  9.46684e+21
12.4931  9.44954e+21
12.6104  9.43764e+21
12.7277  9.42836e+21
12.845  9.41839e+21
12.9623  9.40385e+21
13.0796  9.38294e+21
13.1969  9.35309e+21
13.3142  9.31319e+21
13.4315  9.263e+21
13.5488  9.20313e+21
13.6661  9.13508e+21
13.7834  9.06047e+21
13.9007  8.98215e+21
14.018  8.90265e+21
14.1354  8.8232e+21
14.2527  8.74617e+21
14.37  8.67194e+21
14.4873  8.59986e+21
14.6046  8.52886e+21
14.7219  8.45607e+21
14.8392  8.37892e+21
14.9565  8.29355e+21
15.0738  8.19662e+21
15.1911  8.08632e+21
15.3084  7.96046e+21
15.4257  7.81965e+21
15.543  7.66505e+21
15.6603  7.50012e+21
15.7776  7.32904e+21
15.8949  7.15676e+21
16.0122  6.98888e+21
16.1295  6.83137e+21
16.2468  6.68943e+21
16.3641  6.56757e+21
16.4815  6.46929e+21
16.5988  6.39597e+21
16.7161  6.34793e+21
16.8334  6.32436e+21
16.9507  6.32167e+21
17.068  6.33582e+21
17.1853  6.36168e+21
17.3026  6.39321e+21
17.4199  6.42477e+21
17.5372  6.45115e+21
17.6545  6.46706e+21
17.7718  6.47028e+21
17.8891  6.45858e+21
18.0064  6.432e+21
18.1237  6.39171e+21
18.241  6.3405e+21
18.3583  6.28167e+21
18.4756  6.21881e+21
18.5929  6.15597e+21
18.7102  6.09647e+21
18.8275  6.04213e+21
18.9449  5.99496e+21
19.0622  5.9547e+21
19.1795  5.92008e+21
19.2968  5.88925e+21
19.4141  5.85922e+21
19.5314  5.8269e+21
19.6487  5.7886e+21
19.766  5.74143e+21
19.8833  5.68364e+21
20.0006  5.61362e+21
20.1179  5.53164e+21
20.2352  5.43882e+21
20.3525  5.33728e+21
20.4698  5.22999e+21
20.5871  5.11967e+21
20.7044  5.00927e+21
20.8217  4.90123e+21
20.939  4.79748e+21
21.0563  4.69902e+21
21.1736  4.60603e+21
21.291  4.51802e+21
21.4083  4.43372e+21
21.5256  4.35241e+21
21.6429  4.27227e+21
21.7602  4.19238e+21
21.8775  4.11184e+21
21.9948  4.02999e+21
22.1121  3.94706e+21
22.2294  3.86356e+21
22.3467  3.78006e+21
22.464  3.69849e+21
22.5813  3.62016e+21
22.6986  3.54707e+21
22.8159  3.48068e+21
22.9332  3.42275e+21
23.0505  3.37418e+21
23.1678  3.3353e+21
23.2851  3.306e+21
23.4024  3.28545e+21
23.5198  3.27214e+21
23.6371  3.26446e+21
23.7544  3.26055e+21
23.8717  3.25837e+21
23.989  3.25659e+21
24.1063  3.25394e+21
24.2236  3.24945e+21
24.3409  3.24254e+21
24.4582  3.23306e+21
24.5755  3.22111e+21
24.6928  3.20659e+21
24.8101  3.18981e+21
24.9274  3.1709e+21
25.0447  3.14984e+21
25.162  3.12682e+21
25.2793  3.10114e+21
25.3966  3.0724e+21
25.5139  3.03951e+21
25.6312  3.00173e+21
25.7485  2.95815e+21
25.8658  2.90787e+21
25.9832  2.85056e+21
26.1005  2.78595e+21
26.2178  2.71508e+21
26.3351  2.63898e+21
26.4524  2.55942e+21
26.5697  2.47846e+21
26.687  2.39838e+21
26.8043  2.32136e+21
26.9216  2.24935e+21
27.0389  2.18372e+21
27.1562  2.12559e+21
27.2735  2.0751e+21
27.3908  2.03225e+21
27.5081  1.99595e+21
27.6254  1.96502e+21
27.7427  1.93765e+21
27.86  1.91199e+21
27.9773  1.88611e+21
28.0946  1.85817e+21
28.212  1.82704e+21
28.3293  1.79197e+21
28.4466  1.75307e+21
28.5639  1.71108e+21
28.6812  1.66746e+21
28.7985  1.62398e+21
28.9158  1.58253e+21
29.0331  1.54496e+21
29.1504  1.51248e+21
29.2677  1.48592e+21
29.385  1.46531e+21
29.5023  1.45015e+21
29.6196  1.43944e+21
29.7369  1.43195e+21
29.8542  1.42627e+21
29.9715  1.42091e+21
30.0888  1.4148e+21
30.2061  1.40675e+21
30.3234  1.39627e+21
30.4407  1.38308e+21
30.558  1.36732e+21
30.6754  1.34945e+21
30.7927  1.33017e+21
30.91  1.31073e+21
31.0273  1.292e+21
31.1446  1.27495e+21
31.2619  1.2603e+21
31.3792  1.24823e+21
31.4965  1.23838e+21
31.6138  1.2302e+21
31.7311  1.2224e+21
31.8484  1.21384e+21
31.9657  1.20315e+21
32.083  1.18944e+21
32.2003  1.17193e+21
32.3176  1.15038e+21
32.4349  1.12512e+21
32.5522  1.09663e+21
32.6695  1.06599e+21
32.7868  1.03426e+21
32.9042  1.00278e+21
33.0215  9.72844e+20
33.1388  9.45606e+20
33.2561  9.22008e+20
33.3734  9.02488e+20
33.4907  8.87228e+20
33.608  8.75864e+20
33.7253  8.67411e+20
33.8426  8.60623e+20
33.9599  8.54167e+20
34.0772  8.46614e+20
34.1945  8.37003e+20
34.3118  8.24751e+20
34.4291  8.09938e+20
34.5464  7.93091e+20
34.6637  7.7514e+20
34.781  7.57299e+20
34.8983  7.40492e+20
35.0156  7.25552e+20
35.1329  7.12915e+20
35.2503  7.0263e+20
35.3676  6.94518e+20
35.4849  6.88232e+20
35.6022  6.83578e+20
35.7195  6.80151e+20
35.8368  6.77769e+20
35.9541  6.76355e+20
36.0714  6.75429e+20
36.1887  6.74741e+20
36.306  6.73773e+20
36.4233  6.71734e+20
36.5406  6.68288e+20
36.6579  6.62929e+20
36.7752  6.55755e+20
36.8925  6.46976e+20
37.0098  6.37335e+20
37.1271  6.27723e+20
37.2444  6.18831e+20
37.3617  6.11357e+20
37.479  6.05587e+20
37.5964  6.0126e+20
37.7137  5.97929e+20
37.831  5.94797e+20
37.9483  5.91135e+20
38.0656  5.86328e+20
38.1829  5.80095e+20
38.3002  5.72632e+20
38.4175  5.64064e+20
38.5348  5.55178e+20
38.6521  5.46684e+20
38.7694  5.39188e+20
38.8867  5.33469e+20
39.004  5.29924e+20
39.1213  5.29062e+20
39.2386  5.31039e+20
39.3559  5.36035e+20
39.4732  5.44053e+20
39.5905  5.5476e+20
39.7078  5.67696e+20
39.8251  5.82118e+20
39.9425  5.96749e+20
40.0598  6.10425e+20
40.1771  6.2171e+20
40.2944  6.29646e+20
40.4117  6.33227e+20
40.529  6.32345e+20
40.6463  6.27158e+20
40.7636  6.18255e+20
40.8809  6.07106e+20
40.9982  5.94999e+20
41.1155  5.83223e+20
41.2328  5.73049e+20
41.3501  5.65286e+20
41.4674  5.6026e+20
41.5847  5.57599e+20
41.702  5.56742e+20
41.8193  5.56432e+20
41.9366  5.55498e+20
42.0539  5.52539e+20
42.1712  5.46571e+20
42.2885  5.36915e+20
42.4059  5.23191e+20
42.5232  5.06097e+20
42.6405  4.86442e+20
42.7578  4.66086e+20
42.8751  4.46769e+20
42.9924  4.30453e+20
43.1097  4.18833e+20
43.227  4.1311e+20
43.3443  4.13763e+20
43.4616  4.20312e+20
43.5789  4.31684e+20
43.6962  4.46215e+20
43.8135  4.61894e+20
43.9308  4.76756e+20
44.0481  4.88994e+20
44.1654  4.97462e+20
44.2827  5.01566e+20
44.4  5.01524e+20
44.5173  4.97996e+20
44.6347  4.9205e+20
44.752  4.85122e+20
44.8693  4.78324e+20
44.9866  4.73135e+20
45.1039  4.7052e+20
45.2212  4.71303e+20
45.3385  4.75716e+20
45.4558  4.83797e+20
45.5731  4.95018e+20
45.6904  5.08252e+20
45.8077  5.22137e+20
45.925  5.34877e+20
46.0423  5.44644e+20
46.1596  5.49486e+20
46.2769  5.4802e+20
46.3942  5.39322e+20
46.5115  5.22995e+20
46.6288  4.99899e+20
46.7461  4.71196e+20
46.8634  4.38953e+20
46.9808  4.05623e+20
47.0981  3.7339e+20
47.2154  3.44705e+20
47.3327  3.21083e+20
47.45  3.04011e+20
47.5673  2.93824e+20
47.6846  2.90441e+20
47.8019  2.93424e+20
47.9192  3.01663e+20
48.0365  3.1405e+20
48.1538  3.29285e+20
48.2711  3.46201e+20
48.3884  3.63991e+20
48.5057  3.81932e+20
48.623  3.99984e+20
48.7403  4.18017e+20
48.8576  4.36503e+20
48.9749  4.55859e+20
49.0922  4.76551e+20
49.2095  4.98764e+20
49.3269  5.22483e+20
49.4442  5.47308e+20
49.5615  5.71991e+20
49.6788  5.95363e+20
49.7961  6.16012e+20
49.9134  6.32105e+20
50.0307  6.42308e+20
50.148  6.45627e+20
50.2653  6.41339e+20
50.3826  6.29279e+20
50.4999  6.10014e+20
50.6172  5.84563e+20
50.7345  5.54453e+20
50.8518  5.21421e+20
