#S 1 spectral density
#N 2
#UFWHM 32.6108
#L  abscissas [um]  spectral density
-58.5938  2.44806e+20
-58.4764  2.50129e+20
-58.3591  2.56753e+20
-58.2418  2.65131e+20
-58.1245  2.75631e+20
-58.0072  2.88694e+20
-57.8899  3.04468e+20
-57.7726  3.22869e+20
-57.6553  3.43404e+20
-57.538  3.65222e+20
-57.4207  3.86997e+20
-57.3034  4.07196e+20
-57.1861  4.24238e+20
-57.0688  4.36768e+20
-56.9515  4.43885e+20
-56.8342  4.45215e+20
-56.7169  4.41145e+20
-56.5996  4.32553e+20
-56.4823  4.20707e+20
-56.365  4.07181e+20
-56.2477  3.9356e+20
-56.1303  3.81079e+20
-56.013  3.70951e+20
-55.8957  3.63977e+20
-55.7784  3.60813e+20
-55.6611  3.61727e+20
-55.5438  3.66782e+20
-55.4265  3.75862e+20
-55.3092  3.88419e+20
-55.1919  4.03729e+20
-55.0746  4.20691e+20
-54.9573  4.37987e+20
-54.84  4.54433e+20
-54.7227  4.68781e+20
-54.6054  4.80194e+20
-54.4881  4.88062e+20
-54.3708  4.92284e+20
-54.2535  4.93197e+20
-54.1362  4.91333e+20
-54.0189  4.8731e+20
-53.9016  4.81626e+20
-53.7842  4.74927e+20
-53.6669  4.6723e+20
-53.5496  4.58885e+20
-53.4323  4.49895e+20
-53.315  4.40365e+20
-53.1977  4.30511e+20
-53.0804  4.20573e+20
-52.9631  4.10883e+20
-52.8458  4.01817e+20
-52.7285  3.93711e+20
-52.6112  3.86909e+20
-52.4939  3.81772e+20
-52.3766  3.78633e+20
-52.2593  3.7795e+20
-52.142  3.80207e+20
-52.0247  3.85861e+20
-51.9074  3.95345e+20
-51.7901  4.08769e+20
-51.6728  4.25997e+20
-51.5555  4.46481e+20
-51.4381  4.68958e+20
-51.3208  4.92204e+20
-51.2035  5.14434e+20
-51.0862  5.34356e+20
-50.9689  5.50529e+20
-50.8516  5.62192e+20
-50.7343  5.69322e+20
-50.617  5.72296e+20
-50.4997  5.72052e+20
-50.3824  5.69892e+20
-50.2651  5.67182e+20
-50.1478  5.65383e+20
-50.0305  5.65376e+20
-49.9132  5.68e+20
-49.7959  5.73298e+20
-49.6786  5.81013e+20
-49.5613  5.90417e+20
-49.444  6.00534e+20
-49.3267  6.10079e+20
-49.2094  6.17768e+20
-49.092  6.22681e+20
-48.9747  6.23746e+20
-48.8574  6.20615e+20
-48.7401  6.13431e+20
-48.6228  6.02655e+20
-48.5055  5.89307e+20
-48.3882  5.74857e+20
-48.2709  5.60693e+20
-48.1536  5.48234e+20
-48.0363  5.38817e+20
-47.919  5.33326e+20
-47.8017  5.32329e+20
-47.6844  5.35763e+20
-47.5671  5.43246e+20
-47.4498  5.53969e+20
-47.3325  5.66652e+20
-47.2152  5.79948e+20
-47.0979  5.92189e+20
-46.9806  6.01924e+20
-46.8633  6.07837e+20
-46.7459  6.08907e+20
-46.6286  6.04859e+20
-46.5113  5.95694e+20
-46.394  5.82449e+20
-46.2767  5.66468e+20
-46.1594  5.49684e+20
-46.0421  5.34211e+20
-45.9248  5.22097e+20
-45.8075  5.14909e+20
-45.6902  5.13763e+20
-45.5729  5.18905e+20
-45.4556  5.30144e+20
-45.3383  5.46204e+20
-45.221  5.65911e+20
-45.1037  5.8734e+20
-44.9864  6.08987e+20
-44.8691  6.29194e+20
-44.7518  6.46724e+20
-44.6345  6.6058e+20
-44.5172  6.70336e+20
-44.3998  6.75882e+20
-44.2825  6.77297e+20
-44.1652  6.74989e+20
-44.0479  6.69908e+20
-43.9306  6.62941e+20
-43.8133  6.55185e+20
-43.696  6.48063e+20
-43.5787  6.42528e+20
-43.4614  6.3936e+20
-43.3441  6.39214e+20
-43.2268  6.42045e+20
-43.1095  6.47561e+20
-42.9922  6.54925e+20
-42.8749  6.63243e+20
-42.7576  6.71619e+20
-42.6403  6.79103e+20
-42.523  6.85288e+20
-42.4057  6.89769e+20
-42.2884  6.92758e+20
-42.171  6.94617e+20
-42.0537  6.95964e+20
-41.9364  6.97473e+20
-41.8191  6.99593e+20
-41.7018  7.02808e+20
-41.5845  7.07379e+20
-41.4672  7.13363e+20
-41.3499  7.2054e+20
-41.2326  7.28682e+20
-41.1153  7.3717e+20
-40.998  7.45404e+20
-40.8807  7.52704e+20
-40.7634  7.58377e+20
-40.6461  7.61794e+20
-40.5288  7.62614e+20
-40.4115  7.60628e+20
-40.2942  7.56343e+20
-40.1769  7.50019e+20
-40.0596  7.42442e+20
-39.9423  7.3456e+20
-39.825  7.27442e+20
-39.7076  7.22036e+20
-39.5903  7.19044e+20
-39.473  7.18974e+20
-39.3557  7.22347e+20
-39.2384  7.29198e+20
-39.1211  7.39525e+20
-39.0038  7.53345e+20
-38.8865  7.70236e+20
-38.7692  7.8977e+20
-38.6519  8.11481e+20
-38.5346  8.34534e+20
-38.4173  8.58208e+20
-38.3  8.81621e+20
-38.1827  9.04094e+20
-38.0654  9.25284e+20
-37.9481  9.45002e+20
-37.8308  9.63711e+20
-37.7135  9.8171e+20
-37.5962  9.99566e+20
-37.4789  1.01778e+21
-37.3615  1.03649e+21
-37.2442  1.05517e+21
-37.1269  1.07301e+21
-37.0096  1.08858e+21
-36.8923  1.10067e+21
-36.775  1.10792e+21
-36.6577  1.10949e+21
-36.5404  1.1052e+21
-36.4231  1.09547e+21
-36.3058  1.08122e+21
-36.1885  1.06409e+21
-36.0712  1.04542e+21
-35.9539  1.02685e+21
-35.8366  1.00941e+21
-35.7193  9.94125e+20
-35.602  9.81769e+20
-35.4847  9.72348e+20
-35.3674  9.66033e+20
-35.2501  9.62937e+20
-35.1328  9.62929e+20
-35.0154  9.66042e+20
-34.8981  9.71842e+20
-34.7808  9.79878e+20
-34.6635  9.89736e+20
-34.5462  1.00061e+21
-34.4289  1.01184e+21
-34.3116  1.02299e+21
-34.1943  1.03368e+21
-34.077  1.04397e+21
-33.9597  1.05433e+21
-33.8424  1.06515e+21
-33.7251  1.07727e+21
-33.6078  1.09112e+21
-33.4905  1.10714e+21
-33.3732  1.12545e+21
-33.2559  1.14592e+21
-33.1386  1.16833e+21
-33.0213  1.19221e+21
-32.904  1.21692e+21
-32.7867  1.24229e+21
-32.6693  1.26782e+21
-32.552  1.29323e+21
-32.4347  1.31827e+21
-32.3174  1.34253e+21
-32.2001  1.36605e+21
-32.0828  1.38868e+21
-31.9655  1.41056e+21
-31.8482  1.43193e+21
-31.7309  1.45325e+21
-31.6136  1.47516e+21
-31.4963  1.49829e+21
-31.379  1.52303e+21
-31.2617  1.5498e+21
-31.1444  1.57835e+21
-31.0271  1.60848e+21
-30.9098  1.63976e+21
-30.7925  1.67115e+21
-30.6752  1.70175e+21
-30.5579  1.73076e+21
-30.4406  1.75734e+21
-30.3232  1.78114e+21
-30.2059  1.80167e+21
-30.0886  1.81889e+21
-29.9713  1.83325e+21
-29.854  1.84522e+21
-29.7367  1.85549e+21
-29.6194  1.86529e+21
-29.5021  1.87568e+21
-29.3848  1.8879e+21
-29.2675  1.90328e+21
-29.1502  1.92241e+21
-29.0329  1.94595e+21
-28.9156  1.97384e+21
-28.7983  2.00559e+21
-28.681  2.0403e+21
-28.5637  2.07704e+21
-28.4464  2.11472e+21
-28.3291  2.15239e+21
-28.2118  2.18924e+21
-28.0944  2.22535e+21
-27.9771  2.26051e+21
-27.8598  2.2952e+21
-27.7425  2.32982e+21
-27.6252  2.36477e+21
-27.5079  2.40049e+21
-27.3906  2.43728e+21
-27.2733  2.47545e+21
-27.156  2.51505e+21
-27.0387  2.55608e+21
-26.9214  2.59888e+21
-26.8041  2.64319e+21
-26.6868  2.68913e+21
-26.5695  2.73647e+21
-26.4522  2.78486e+21
-26.3349  2.83401e+21
-26.2176  2.88369e+21
-26.1003  2.93312e+21
-25.983  2.9818e+21
-25.8657  3.02919e+21
-25.7483  3.07466e+21
-25.631  3.11775e+21
-25.5137  3.15769e+21
-25.3964  3.19367e+21
-25.2791  3.22513e+21
-25.1618  3.25143e+21
-25.0445  3.27181e+21
-24.9272  3.28627e+21
-24.8099  3.29465e+21
-24.6926  3.29767e+21
-24.5753  3.29665e+21
-24.458  3.29282e+21
-24.3407  3.28835e+21
-24.2234  3.28557e+21
-24.1061  3.28667e+21
-23.9888  3.29429e+21
-23.8715  3.31056e+21
-23.7542  3.33756e+21
-23.6369  3.37644e+21
-23.5196  3.4279e+21
-23.4023  3.49218e+21
-23.2849  3.56801e+21
-23.1676  3.65366e+21
-23.0503  3.7465e+21
-22.933  3.84295e+21
-22.8157  3.9395e+21
-22.6984  4.03241e+21
-22.5811  4.11843e+21
-22.4638  4.19506e+21
-22.3465  4.26046e+21
-22.2292  4.31446e+21
-22.1119  4.35749e+21
-21.9946  4.39148e+21
-21.8773  4.41862e+21
-21.76  4.44179e+21
-21.6427  4.46427e+21
-21.5254  4.48916e+21
-21.4081  4.51876e+21
-21.2908  4.55498e+21
-21.1735  4.59891e+21
-21.0561  4.65066e+21
-20.9388  4.70987e+21
-20.8215  4.77494e+21
-20.7042  4.84372e+21
-20.5869  4.91362e+21
-20.4696  4.98237e+21
-20.3523  5.04712e+21
-20.235  5.10627e+21
-20.1177  5.1584e+21
-20.0004  5.20345e+21
-19.8831  5.24278e+21
-19.7658  5.27791e+21
-19.6485  5.31183e+21
-19.5312  5.34802e+21
-19.4139  5.38972e+21
-19.2966  5.44051e+21
-19.1793  5.50268e+21
-19.062  5.57826e+21
-18.9447  5.66747e+21
-18.8274  5.76932e+21
-18.71  5.88218e+21
-18.5927  6.00238e+21
-18.4754  6.12573e+21
-18.3581  6.2477e+21
-18.2408  6.36288e+21
-18.1235  6.46689e+21
-18.0062  6.55562e+21
-17.8889  6.62618e+21
-17.7716  6.67753e+21
-17.6543  6.70942e+21
-17.537  6.72412e+21
-17.4197  6.72499e+21
-17.3024  6.71685e+21
-17.1851  6.70502e+21
-17.0678  6.69495e+21
-16.9505  6.69245e+21
-16.8332  6.70214e+21
-16.7159  6.72745e+21
-16.5986  6.77018e+21
-16.4813  6.83058e+21
-16.364  6.90749e+21
-16.2466  6.99853e+21
-16.1293  7.10016e+21
-16.012  7.20772e+21
-15.8947  7.31675e+21
-15.7774  7.42322e+21
-15.6601  7.52313e+21
-15.5428  7.61397e+21
-15.4255  7.69392e+21
-15.3082  7.76278e+21
-15.1909  7.82234e+21
-15.0736  7.87404e+21
-14.9563  7.9215e+21
-14.839  7.96806e+21
-14.7217  8.01738e+21
-14.6044  8.07225e+21
-14.4871  8.13468e+21
-14.3698  8.20593e+21
-14.2525  8.28549e+21
-14.1352  8.37159e+21
-14.0178  8.46265e+21
-13.9005  8.55554e+21
-13.7832  8.64723e+21
-13.6659  8.73558e+21
-13.5486  8.818e+21
-13.4313  8.89359e+21
-13.314  8.9619e+21
-13.1967  9.02324e+21
-13.0794  9.07956e+21
-12.9621  9.13195e+21
-12.8448  9.18356e+21
-12.7275  9.23666e+21
-12.6102  9.29385e+21
-12.4929  9.35724e+21
-12.3756  9.4278e+21
-12.2583  9.50644e+21
-12.141  9.59254e+21
-12.0237  9.68445e+21
-11.9064  9.77906e+21
-11.7891  9.87284e+21
-11.6718  9.96177e+21
-11.5544  1.00419e+22
-11.4371  1.01104e+22
-11.3198  1.01637e+22
-11.2025  1.02012e+22
-11.0852  1.02228e+22
-10.9679  1.02302e+22
-10.8506  1.02264e+22
-10.7333  1.02153e+22
-10.616  1.02012e+22
-10.4987  1.01901e+22
-10.3814  1.01856e+22
-10.2641  1.01924e+22
-10.1468  1.02138e+22
-10.0295  1.0252e+22
-9.91217  1.03074e+22
-9.79487  1.03795e+22
-9.67756  1.04664e+22
-9.56026  1.05649e+22
-9.44295  1.06708e+22
-9.32565  1.07805e+22
-9.20834  1.08899e+22
-9.09104  1.09953e+22
-8.97373  1.1095e+22
-8.85643  1.11872e+22
-8.73913  1.12721e+22
-8.62182  1.13508e+22
-8.50452  1.14249e+22
-8.38721  1.14974e+22
-8.26991  1.15697e+22
-8.1526  1.16446e+22
-8.03529  1.17226e+22
-7.91799  1.18037e+22
-7.80069  1.18867e+22
-7.68338  1.19689e+22
-7.56608  1.20473e+22
-7.44877  1.21174e+22
-7.33146  1.21753e+22
-7.21416  1.22166e+22
-7.09685  1.22379e+22
-6.97955  1.22374e+22
-6.86224  1.22143e+22
-6.74494  1.2171e+22
-6.62763  1.21094e+22
-6.51033  1.20354e+22
-6.39302  1.19551e+22
-6.27572  1.18755e+22
-6.15842  1.18039e+22
-6.04111  1.17474e+22
-5.92381  1.17116e+22
-5.8065  1.17021e+22
-5.68919  1.17205e+22
-5.57189  1.17681e+22
-5.45458  1.18435e+22
-5.33728  1.19436e+22
-5.21997  1.20629e+22
-5.10267  1.21954e+22
-4.98536  1.23339e+22
-4.86806  1.24711e+22
-4.75075  1.25999e+22
-4.63345  1.2715e+22
-4.51614  1.2812e+22
-4.39884  1.28885e+22
-4.28154  1.29449e+22
-4.16423  1.29826e+22
-4.04692  1.30054e+22
-3.92962  1.30176e+22
-3.81231  1.30249e+22
-3.69501  1.30323e+22
-3.5777  1.30437e+22
-3.4604  1.30633e+22
-3.34309  1.3092e+22
-3.22579  1.31298e+22
-3.10849  1.31745e+22
-2.99118  1.32231e+22
-2.87387  1.32718e+22
-2.75657  1.33152e+22
-2.63926  1.33491e+22
-2.52196  1.33696e+22
-2.40465  1.33738e+22
-2.28735  1.33606e+22
-2.17005  1.33303e+22
-2.05274  1.32862e+22
-1.93544  1.32313e+22
-1.81813  1.31716e+22
-1.70083  1.31132e+22
-1.58352  1.30624e+22
-1.46622  1.30256e+22
-1.34891  1.3008e+22
-1.2316  1.30134e+22
-1.1143  1.30436e+22
-0.996995  1.30978e+22
-0.87969  1.31736e+22
-0.762385  1.32655e+22
-0.64508  1.33672e+22
-0.527775  1.34701e+22
-0.41047  1.3566e+22
-0.293165  1.36461e+22
-0.17586  1.37037e+22
-0.058555  1.37334e+22
0.05875  1.37324e+22
0.176055  1.37007e+22
0.29336  1.36411e+22
0.410665  1.35593e+22
0.52797  1.3462e+22
0.645275  1.33578e+22
0.76258  1.32549e+22
0.879885  1.31621e+22
0.99719  1.30857e+22
1.1145  1.30308e+22
1.2318  1.30004e+22
1.3491  1.2995e+22
1.46641  1.30125e+22
1.58371  1.3049e+22
1.70102  1.30995e+22
1.81832  1.31581e+22
1.93563  1.32175e+22
2.05294  1.32721e+22
2.17024  1.33164e+22
2.28754  1.33463e+22
2.40485  1.33593e+22
2.52216  1.33548e+22
2.63946  1.33343e+22
2.75677  1.33001e+22
2.87407  1.32565e+22
2.99137  1.32077e+22
3.10868  1.31586e+22
3.22599  1.31133e+22
3.34329  1.30753e+22
3.4606  1.30462e+22
3.5779  1.30262e+22
3.69521  1.30136e+22
3.81251  1.30054e+22
3.92982  1.29969e+22
4.04712  1.29835e+22
4.16443  1.29595e+22
4.28173  1.29205e+22
4.39903  1.28628e+22
4.51634  1.2785e+22
4.63364  1.26872e+22
4.75095  1.25712e+22
4.86825  1.24415e+22
4.98556  1.23038e+22
5.10286  1.21652e+22
5.22017  1.20326e+22
5.33748  1.19133e+22
5.45478  1.18134e+22
5.57209  1.17383e+22
5.68939  1.16908e+22
5.8067  1.16724e+22
5.924  1.16823e+22
6.0413  1.17177e+22
6.15861  1.17739e+22
6.27591  1.18449e+22
6.39322  1.19238e+22
6.51052  1.20034e+22
6.62783  1.2076e+22
6.74514  1.21361e+22
6.86244  1.21786e+22
6.97975  1.22001e+22
7.09705  1.21996e+22
7.21436  1.2177e+22
7.33166  1.21349e+22
7.44897  1.20764e+22
7.56627  1.20057e+22
7.68358  1.19269e+22
7.80088  1.18444e+22
7.91819  1.17613e+22
8.03549  1.16804e+22
8.1528  1.16027e+22
8.2701  1.15281e+22
8.38741  1.14558e+22
8.50471  1.13837e+22
8.62202  1.13094e+22
8.73932  1.12308e+22
8.85662  1.1146e+22
8.97393  1.10537e+22
9.09123  1.0954e+22
9.20854  1.08482e+22
9.32584  1.07391e+22
9.44315  1.06292e+22
9.56045  1.0523e+22
9.67776  1.04245e+22
9.79506  1.03375e+22
9.91237  1.02654e+22
10.0297  1.02096e+22
10.147  1.01713e+22
10.2643  1.01496e+22
10.3816  1.0142e+22
10.4989  1.01458e+22
10.6162  1.01565e+22
10.7335  1.01693e+22
10.8508  1.01793e+22
10.9681  1.01821e+22
11.0854  1.01736e+22
11.2027  1.01509e+22
11.32  1.0112e+22
11.4373  1.00575e+22
11.5546  9.98838e+21
11.6719  9.90714e+21
11.7893  9.81764e+21
11.9066  9.72312e+21
12.0239  9.62819e+21
12.1412  9.53639e+21
12.2585  9.45015e+21
12.3758  9.37141e+21
12.4931  9.30083e+21
12.6104  9.23767e+21
12.7277  9.18069e+21
12.845  9.12805e+21
12.9623  9.0766e+21
13.0796  9.02439e+21
13.1969  8.96864e+21
13.3142  8.9074e+21
13.4315  8.83936e+21
13.5488  8.76413e+21
13.6661  8.68201e+21
13.7834  8.59396e+21
13.9007  8.50236e+21
14.018  8.41015e+21
14.1354  8.31938e+21
14.2527  8.23343e+21
14.37  8.1543e+21
14.4873  8.08333e+21
14.6046  8.02108e+21
14.7219  7.96625e+21
14.8392  7.91727e+21
14.9565  7.8707e+21
15.0738  7.82309e+21
15.1911  7.77133e+21
15.3084  7.71182e+21
15.4257  7.64265e+21
15.543  7.56246e+21
15.6603  7.47161e+21
15.7776  7.37186e+21
15.8949  7.26564e+21
16.0122  7.15647e+21
16.1295  7.04909e+21
16.2468  6.94786e+21
16.3641  6.85703e+21
16.4815  6.78044e+21
16.5988  6.72008e+21
16.7161  6.67748e+21
16.8334  6.65248e+21
16.9507  6.64266e+21
17.068  6.64485e+21
17.1853  6.65452e+21
17.3026  6.66594e+21
17.4199  6.67369e+21
17.5372  6.6725e+21
17.6545  6.65709e+21
17.7718  6.62486e+21
17.8891  6.57335e+21
18.0064  6.50263e+21
18.1237  6.41379e+21
18.241  6.31011e+21
18.3583  6.19527e+21
18.4756  6.07389e+21
18.5929  5.9511e+21
18.7102  5.83189e+21
18.8275  5.71988e+21
18.9449  5.61881e+21
19.0622  5.53046e+21
19.1795  5.45564e+21
19.2968  5.39407e+21
19.4141  5.34392e+21
19.5314  5.30276e+21
19.6487  5.26699e+21
19.766  5.23324e+21
19.8833  5.19843e+21
20.0006  5.15927e+21
20.1179  5.11424e+21
20.2352  5.06215e+21
20.3525  5.00317e+21
20.4698  4.93873e+21
20.5871  4.87045e+21
20.7044  4.80063e+21
20.8217  4.73209e+21
20.939  4.66734e+21
21.0563  4.60844e+21
21.1736  4.5569e+21
21.291  4.51318e+21
21.4083  4.47697e+21
21.5256  4.44763e+21
21.6429  4.42277e+21
21.7602  4.40008e+21
21.8775  4.37673e+21
21.9948  4.34937e+21
22.1121  4.31537e+21
22.2294  4.2723e+21
22.3467  4.2181e+21
22.464  4.15272e+21
22.5813  4.07623e+21
22.6986  3.99048e+21
22.8159  3.89785e+21
22.9332  3.80188e+21
23.0505  3.70603e+21
23.1678  3.61392e+21
23.2851  3.52902e+21
23.4024  3.45407e+21
23.5198  3.39056e+21
23.6371  3.33977e+21
23.7544  3.30158e+21
23.8717  3.27519e+21
23.989  3.25937e+21
24.1063  3.25219e+21
24.2236  3.25142e+21
24.3409  3.25452e+21
24.4582  3.25913e+21
24.5755  3.26319e+21
24.6928  3.26441e+21
24.8101  3.26144e+21
24.9274  3.25306e+21
25.0447  3.23886e+21
25.162  3.21875e+21
25.2793  3.19288e+21
25.3966  3.16165e+21
25.5139  3.12587e+21
25.6312  3.08626e+21
25.7485  3.04354e+21
25.8658  2.99845e+21
25.9832  2.95143e+21
26.1005  2.90305e+21
26.2178  2.8541e+21
26.3351  2.80488e+21
26.4524  2.75594e+21
26.5697  2.70786e+21
26.687  2.66091e+21
26.8043  2.61532e+21
26.9216  2.57141e+21
27.0389  2.52889e+21
27.1562  2.48809e+21
27.2735  2.44875e+21
27.3908  2.41086e+21
27.5081  2.3743e+21
27.6254  2.33878e+21
27.7427  2.30406e+21
27.86  2.26968e+21
27.9773  2.23525e+21
28.0946  2.20033e+21
28.212  2.16451e+21
28.3293  2.12786e+21
28.4466  2.09063e+21
28.5639  2.05337e+21
28.6812  2.01712e+21
28.7985  1.98289e+21
28.9158  1.95172e+21
29.0331  1.92447e+21
29.1504  1.90149e+21
29.2677  1.88295e+21
29.385  1.86819e+21
29.5023  1.85638e+21
29.6196  1.84631e+21
29.7369  1.83688e+21
29.8542  1.82692e+21
29.9715  1.81527e+21
30.0888  1.80113e+21
30.2061  1.78397e+21
30.3234  1.76357e+21
30.4407  1.73998e+21
30.558  1.71361e+21
30.6754  1.6848e+21
30.7927  1.65439e+21
30.91  1.62331e+21
31.0273  1.59247e+21
31.1446  1.56247e+21
31.2619  1.53422e+21
31.3792  1.50783e+21
31.4965  1.48336e+21
31.6138  1.46058e+21
31.7311  1.43885e+21
31.8484  1.41773e+21
31.9657  1.3965e+21
32.083  1.3748e+21
32.2003  1.35233e+21
32.3176  1.32892e+21
32.4349  1.30484e+21
32.5522  1.27999e+21
32.6695  1.25479e+21
32.7868  1.22955e+21
32.9042  1.20443e+21
33.0215  1.17995e+21
33.1388  1.15649e+21
33.2561  1.13446e+21
33.3734  1.11431e+21
33.4907  1.09632e+21
33.608  1.08068e+21
33.7253  1.06718e+21
33.8426  1.05529e+21
33.9599  1.04471e+21
34.0772  1.03457e+21
34.1945  1.02442e+21
34.3118  1.0138e+21
34.4291  1.00281e+21
34.5464  9.91732e+20
34.6637  9.80986e+20
34.781  9.71337e+20
34.8983  9.63385e+20
35.0156  9.57755e+20
35.1329  9.5496e+20
35.2503  9.55171e+20
35.3676  9.58466e+20
35.4849  9.64909e+20
35.6022  9.74577e+20
35.7195  9.87242e+20
35.8368  1.00254e+21
35.9541  1.02008e+21
36.0714  1.0387e+21
36.1887  1.05737e+21
36.306  1.07459e+21
36.4233  1.08861e+21
36.5406  1.09828e+21
36.6579  1.10242e+21
36.7752  1.10074e+21
36.8925  1.09343e+21
37.0098  1.08134e+21
37.1271  1.06589e+21
37.2444  1.04819e+21
37.3617  1.0297e+21
37.479  1.01137e+21
37.5964  9.9336e+20
37.7137  9.75743e+20
37.831  9.5801e+20
37.9483  9.39579e+20
38.0656  9.19936e+20
38.1829  8.98855e+20
38.3002  8.76535e+20
38.4175  8.53217e+20
38.5348  8.29581e+20
38.6521  8.06643e+20
38.7694  7.85009e+20
38.8867  7.65568e+20
39.004  7.48729e+20
39.1213  7.3513e+20
39.2386  7.24897e+20
39.3559  7.18208e+20
39.4732  7.15072e+20
39.5905  7.15206e+20
39.7078  7.18379e+20
39.8251  7.24091e+20
39.9425  7.31361e+20
40.0598  7.39319e+20
40.1771  7.46938e+20
40.2944  7.53428e+20
40.4117  7.57808e+20
40.529  7.59746e+20
40.6463  7.58948e+20
40.7636  7.55387e+20
40.8809  7.4969e+20
40.9982  7.42477e+20
41.1155  7.34122e+20
41.2328  7.25627e+20
41.3501  7.17524e+20
41.4674  7.10418e+20
41.5847  7.04459e+20
41.702  6.99986e+20
41.8193  6.96839e+20
41.9366  6.94767e+20
42.0539  6.93327e+20
42.1712  6.92061e+20
42.2885  6.90235e+20
42.4059  6.8725e+20
42.5232  6.82783e+20
42.6405  6.76618e+20
42.7578  6.69111e+20
42.8751  6.60729e+20
42.9924  6.52441e+20
43.1097  6.45064e+20
43.227  6.39597e+20
43.3443  6.36838e+20
43.4616  6.36994e+20
43.5789  6.40116e+20
43.6962  6.45663e+20
43.8135  6.52834e+20
43.9308  6.60496e+20
44.0481  6.67445e+20
44.1654  6.72534e+20
44.2827  6.7465e+20
44.4  6.73199e+20
44.5173  6.6776e+20
44.6347  6.57949e+20
44.752  6.44077e+20
44.8693  6.26539e+20
44.9866  6.06479e+20
45.1039  5.84902e+20
45.2212  5.63586e+20
45.3385  5.44105e+20
45.4558  5.28062e+20
45.5731  5.17101e+20
45.6904  5.12101e+20
45.8077  5.13344e+20
45.925  5.20597e+20
46.0423  5.32751e+20
46.1596  5.48181e+20
46.2769  5.64818e+20
46.3942  5.80685e+20
46.5115  5.93742e+20
46.6288  6.02645e+20
46.7461  6.06488e+20
46.8634  6.05151e+20
46.9808  5.99168e+20
47.0981  5.89288e+20
47.2154  5.77035e+20
47.3327  5.63725e+20
47.45  5.51165e+20
47.5673  5.40593e+20
47.6846  5.33255e+20
47.8019  5.29965e+20
47.9192  5.31135e+20
48.0365  5.3681e+20
48.1538  5.46311e+20
48.2711  5.58792e+20
48.3884  5.72982e+20
48.5057  5.87396e+20
48.623  6.00654e+20
48.7403  6.11295e+20
48.8576  6.18351e+20
48.9749  6.2123e+20
49.0922  6.19984e+20
49.2095  6.15062e+20
49.3269  6.0722e+20
49.4442  5.97725e+20
49.5615  5.87556e+20
49.6788  5.78184e+20
49.7961  5.7054e+20
49.9134  5.65373e+20
50.0307  5.62877e+20
50.148  5.6289e+20
50.2653  5.64833e+20
50.3826  5.67513e+20
50.4999  5.69621e+20
50.6172  5.69756e+20
50.7345  5.66702e+20
