#S 1 spectral density
#N 2
#UFWHM 23.3437
#L  abscissas [um]  spectral density
-58.5938  7.82297e+19
-58.4764  7.40225e+19
-58.3591  7.00362e+19
-58.2418  6.638e+19
-58.1245  6.32997e+19
-58.0072  6.11953e+19
-57.8899  6.05297e+19
-57.7726  6.17081e+19
-57.6553  6.49137e+19
-57.538  7.007e+19
-57.4207  7.67399e+19
-57.3034  8.42213e+19
-57.1861  9.17389e+19
-57.0688  9.85561e+19
-56.9515  1.04189e+20
-56.8342  1.08431e+20
-56.7169  1.11405e+20
-56.5996  1.13428e+20
-56.4823  1.14906e+20
-56.365  1.16085e+20
-56.2477  1.17057e+20
-56.1303  1.17567e+20
-56.013  1.17349e+20
-55.8957  1.15962e+20
-55.7784  1.13172e+20
-55.6611  1.08916e+20
-55.5438  1.03426e+20
-55.4265  9.73165e+19
-55.3092  9.11652e+19
-55.1919  8.56301e+19
-55.0746  8.12447e+19
-54.9573  7.82467e+19
-54.84  7.67414e+19
-54.7227  7.64881e+19
-54.6054  7.72953e+19
-54.4881  7.88503e+19
-54.3708  8.09711e+19
-54.2535  8.35024e+19
-54.1362  8.63286e+19
-54.0189  8.93533e+19
-53.9016  9.24288e+19
-53.7842  9.53254e+19
-53.6669  9.78639e+19
-53.5496  9.98118e+19
-53.4323  1.01168e+20
-53.315  1.02044e+20
-53.1977  1.02735e+20
-53.0804  1.03738e+20
-52.9631  1.05474e+20
-52.8458  1.08304e+20
-52.7285  1.12415e+20
-52.6112  1.17684e+20
-52.4939  1.23793e+20
-52.3766  1.30204e+20
-52.2593  1.36417e+20
-52.142  1.42043e+20
-52.0247  1.46771e+20
-51.9074  1.50637e+20
-51.7901  1.53722e+20
-51.6728  1.56324e+20
-51.5555  1.58595e+20
-51.4381  1.60676e+20
-51.3208  1.62515e+20
-51.2035  1.63865e+20
-51.0862  1.64503e+20
-50.9689  1.64134e+20
-50.8516  1.62602e+20
-50.7343  1.59961e+20
-50.617  1.56423e+20
-50.4997  1.52424e+20
-50.3824  1.48535e+20
-50.2651  1.45391e+20
-50.1478  1.43572e+20
-50.0305  1.43618e+20
-49.9132  1.45897e+20
-49.7959  1.50606e+20
-49.6786  1.5784e+20
-49.5613  1.67501e+20
-49.444  1.79365e+20
-49.3267  1.93164e+20
-49.2094  2.08572e+20
-49.092  2.25143e+20
-48.9747  2.42514e+20
-48.8574  2.60218e+20
-48.7401  2.77829e+20
-48.6228  2.94772e+20
-48.5055  3.10459e+20
-48.3882  3.24151e+20
-48.2709  3.35063e+20
-48.1536  3.42363e+20
-48.0363  3.45196e+20
-47.919  3.43033e+20
-47.8017  3.35514e+20
-47.6844  3.22761e+20
-47.5671  3.05288e+20
-47.4498  2.84048e+20
-47.3325  2.60369e+20
-47.2152  2.35705e+20
-47.0979  2.11573e+20
-46.9806  1.89186e+20
-46.8633  1.6956e+20
-46.7459  1.53444e+20
-46.6286  1.41159e+20
-46.5113  1.32867e+20
-46.394  1.28513e+20
-46.2767  1.28034e+20
-46.1594  1.31234e+20
-46.0421  1.37914e+20
-45.9248  1.47689e+20
-45.8075  1.60059e+20
-45.6902  1.74254e+20
-45.5729  1.89309e+20
-45.4556  2.0409e+20
-45.3383  2.17502e+20
-45.221  2.28485e+20
-45.1037  2.36378e+20
-44.9864  2.40738e+20
-44.8691  2.41692e+20
-44.7518  2.39646e+20
-44.6345  2.35394e+20
-44.5172  2.29891e+20
-44.3998  2.24157e+20
-44.2825  2.19268e+20
-44.1652  2.16188e+20
-44.0479  2.15754e+20
-43.9306  2.18702e+20
-43.8133  2.25521e+20
-43.696  2.36418e+20
-43.5787  2.51345e+20
-43.4614  2.69868e+20
-43.3441  2.91097e+20
-43.2268  3.13795e+20
-43.1095  3.36377e+20
-42.9922  3.57233e+20
-42.8749  3.74825e+20
-42.7576  3.87883e+20
-42.6403  3.95816e+20
-42.523  3.98414e+20
-42.4057  3.96346e+20
-42.2884  3.90637e+20
-42.171  3.82584e+20
-42.0537  3.73708e+20
-41.9364  3.65203e+20
-41.8191  3.58076e+20
-41.7018  3.52744e+20
-41.5845  3.49237e+20
-41.4672  3.47246e+20
-41.3499  3.46146e+20
-41.2326  3.45267e+20
-41.1153  3.44102e+20
-40.998  3.42334e+20
-40.8807  3.39916e+20
-40.7634  3.37225e+20
-40.6461  3.34899e+20
-40.5288  3.33838e+20
-40.4115  3.34974e+20
-40.2942  3.39056e+20
-40.1769  3.46719e+20
-40.0596  3.58108e+20
-39.9423  3.72836e+20
-39.825  3.89874e+20
-39.7076  4.07727e+20
-39.5903  4.24603e+20
-39.473  4.38667e+20
-39.3557  4.47964e+20
-39.2384  4.51251e+20
-39.1211  4.47897e+20
-39.0038  4.37775e+20
-38.8865  4.21653e+20
-38.7692  4.00928e+20
-38.6519  3.7708e+20
-38.5346  3.52036e+20
-38.4173  3.27265e+20
-38.3  3.04313e+20
-38.1827  2.84094e+20
-38.0654  2.673e+20
-37.9481  2.54319e+20
-37.8308  2.45161e+20
-37.7135  2.39706e+20
-37.5962  2.37656e+20
-37.4789  2.38411e+20
-37.3615  2.41186e+20
-37.2442  2.45044e+20
-37.1269  2.49026e+20
-37.0096  2.52308e+20
-36.8923  2.54287e+20
-36.775  2.54892e+20
-36.6577  2.545e+20
-36.5404  2.54208e+20
-36.4231  2.55392e+20
-36.3058  2.59456e+20
-36.1885  2.67775e+20
-36.0712  2.81181e+20
-35.9539  2.99822e+20
-35.8366  3.23107e+20
-35.7193  3.49596e+20
-35.602  3.77478e+20
-35.4847  4.04765e+20
-35.3674  4.29594e+20
-35.2501  4.5048e+20
-35.1328  4.66467e+20
-35.0154  4.77303e+20
-34.8981  4.83129e+20
-34.7808  4.84836e+20
-34.6635  4.83456e+20
-34.5462  4.8029e+20
-34.4289  4.76948e+20
-34.3116  4.74815e+20
-34.1943  4.75314e+20
-34.077  4.79479e+20
-33.9597  4.87961e+20
-33.8424  5.00884e+20
-33.7251  5.1766e+20
-33.6078  5.36928e+20
-33.4905  5.56791e+20
-33.3732  5.74957e+20
-33.2559  5.89061e+20
-33.1386  5.97044e+20
-33.0213  5.9747e+20
-32.904  5.89896e+20
-32.7867  5.7477e+20
-32.6693  5.53414e+20
-32.552  5.28076e+20
-32.4347  5.01074e+20
-32.3174  4.75272e+20
-32.2001  4.52951e+20
-32.0828  4.3619e+20
-31.9655  4.26379e+20
-31.8482  4.24364e+20
-31.7309  4.30303e+20
-31.6136  4.43759e+20
-31.4963  4.63804e+20
-31.379  4.89148e+20
-31.2617  5.18284e+20
-31.1444  5.49467e+20
-31.0271  5.80892e+20
-30.9098  6.11367e+20
-30.7925  6.39289e+20
-30.6752  6.63894e+20
-30.5579  6.84716e+20
-30.4406  7.0155e+20
-30.3232  7.14616e+20
-30.2059  7.23929e+20
-30.0886  7.29836e+20
-29.9713  7.3275e+20
-29.854  7.32715e+20
-29.7367  7.29774e+20
-29.6194  7.24274e+20
-29.5021  7.1639e+20
-29.3848  7.06421e+20
-29.2675  6.94958e+20
-29.1502  6.82564e+20
-29.0329  6.69992e+20
-28.9156  6.57838e+20
-28.7983  6.46701e+20
-28.681  6.37212e+20
-28.5637  6.29853e+20
-28.4464  6.25121e+20
-28.3291  6.23555e+20
-28.2118  6.2561e+20
-28.0944  6.31817e+20
-27.9771  6.42604e+20
-27.8598  6.58267e+20
-27.7425  6.78834e+20
-27.6252  7.04055e+20
-27.5079  7.33651e+20
-27.3906  7.67006e+20
-27.2733  8.03614e+20
-27.156  8.42635e+20
-27.0387  8.83619e+20
-26.9214  9.26006e+20
-26.8041  9.693e+20
-26.6868  1.01293e+21
-26.5695  1.05624e+21
-26.4522  1.0984e+21
-26.3349  1.13852e+21
-26.2176  1.17555e+21
-26.1003  1.20816e+21
-25.983  1.23534e+21
-25.8657  1.25601e+21
-25.7483  1.26948e+21
-25.631  1.27555e+21
-25.5137  1.2743e+21
-25.3964  1.26663e+21
-25.2791  1.25389e+21
-25.1618  1.23818e+21
-25.0445  1.22188e+21
-24.9272  1.208e+21
-24.8099  1.19942e+21
-24.6926  1.19907e+21
-24.5753  1.20904e+21
-24.458  1.2308e+21
-24.3407  1.26443e+21
-24.2234  1.30916e+21
-24.1061  1.36269e+21
-23.9888  1.42204e+21
-23.8715  1.48362e+21
-23.7542  1.54394e+21
-23.6369  1.59969e+21
-23.5196  1.64865e+21
-23.4023  1.68964e+21
-23.2849  1.72279e+21
-23.1676  1.74947e+21
-23.0503  1.77208e+21
-22.933  1.79379e+21
-22.8157  1.81801e+21
-22.6984  1.84814e+21
-22.5811  1.88693e+21
-22.4638  1.93642e+21
-22.3465  1.99766e+21
-22.2292  2.07031e+21
-22.1119  2.15293e+21
-21.9946  2.24316e+21
-21.8773  2.33763e+21
-21.76  2.4327e+21
-21.6427  2.52459e+21
-21.5254  2.60985e+21
-21.4081  2.68611e+21
-21.2908  2.7518e+21
-21.1735  2.80674e+21
-21.0561  2.85196e+21
-20.9388  2.88935e+21
-20.8215  2.92147e+21
-20.7042  2.95156e+21
-20.5869  2.98213e+21
-20.4696  3.016e+21
-20.3523  3.05502e+21
-20.235  3.10033e+21
-20.1177  3.15203e+21
-20.0004  3.21017e+21
-19.8831  3.27383e+21
-19.7658  3.34213e+21
-19.6485  3.41368e+21
-19.5312  3.48775e+21
-19.4139  3.56309e+21
-19.2966  3.63938e+21
-19.1793  3.71631e+21
-19.062  3.79407e+21
-18.9447  3.8728e+21
-18.8274  3.953e+21
-18.71  4.03553e+21
-18.5927  4.12069e+21
-18.4754  4.20879e+21
-18.3581  4.29976e+21
-18.2408  4.39322e+21
-18.1235  4.48806e+21
-18.0062  4.58293e+21
-17.8889  4.67589e+21
-17.7716  4.76549e+21
-17.6543  4.85002e+21
-17.537  4.92828e+21
-17.4197  4.99979e+21
-17.3024  5.06506e+21
-17.1851  5.12545e+21
-17.0678  5.18306e+21
-16.9505  5.24099e+21
-16.8332  5.30291e+21
-16.7159  5.37254e+21
-16.5986  5.45336e+21
-16.4813  5.54857e+21
-16.364  5.66048e+21
-16.2466  5.79017e+21
-16.1293  5.93714e+21
-16.012  6.09973e+21
-15.8947  6.27466e+21
-15.7774  6.45787e+21
-15.6601  6.64445e+21
-15.5428  6.82916e+21
-15.4255  7.00673e+21
-15.3082  7.17324e+21
-15.1909  7.32611e+21
-15.0736  7.46334e+21
-14.9563  7.58523e+21
-14.839  7.6935e+21
-14.7217  7.79035e+21
-14.6044  7.87888e+21
-14.4871  7.96279e+21
-14.3698  8.04483e+21
-14.2525  8.12707e+21
-14.1352  8.21048e+21
-14.0178  8.29594e+21
-13.9005  8.38228e+21
-13.7832  8.46807e+21
-13.6659  8.55139e+21
-13.5486  8.63018e+21
-13.4313  8.70243e+21
-13.314  8.76648e+21
-13.1967  8.8213e+21
-13.0794  8.86755e+21
-12.9621  8.90527e+21
-12.8448  8.93711e+21
-12.7275  8.96521e+21
-12.6102  8.99375e+21
-12.4929  9.02658e+21
-12.3756  9.0675e+21
-12.2583  9.12076e+21
-12.141  9.18953e+21
-12.0237  9.27559e+21
-11.9064  9.37942e+21
-11.7891  9.50035e+21
-11.6718  9.63609e+21
-11.5544  9.78355e+21
-11.4371  9.93907e+21
-11.3198  1.00978e+22
-11.2025  1.02562e+22
-11.0852  1.04105e+22
-10.9679  1.05584e+22
-10.8506  1.06984e+22
-10.7333  1.08303e+22
-10.616  1.09554e+22
-10.4987  1.10767e+22
-10.3814  1.11966e+22
-10.2641  1.13195e+22
-10.1468  1.14498e+22
-10.0295  1.15913e+22
-9.91217  1.17473e+22
-9.79487  1.19202e+22
-9.67756  1.21106e+22
-9.56026  1.2318e+22
-9.44295  1.25396e+22
-9.32565  1.27732e+22
-9.20834  1.30138e+22
-9.09104  1.32566e+22
-8.97373  1.34976e+22
-8.85643  1.37324e+22
-8.73913  1.39573e+22
-8.62182  1.41699e+22
-8.50452  1.43686e+22
-8.38721  1.45531e+22
-8.26991  1.47217e+22
-8.1526  1.48755e+22
-8.03529  1.50133e+22
-7.91799  1.51352e+22
-7.80069  1.524e+22
-7.68338  1.53264e+22
-7.56608  1.53936e+22
-7.44877  1.54397e+22
-7.33146  1.54638e+22
-7.21416  1.54649e+22
-7.09685  1.54429e+22
-6.97955  1.53992e+22
-6.86224  1.53364e+22
-6.74494  1.52595e+22
-6.62763  1.51723e+22
-6.51033  1.50826e+22
-6.39302  1.49976e+22
-6.27572  1.49248e+22
-6.15842  1.48721e+22
-6.04111  1.48465e+22
-5.92381  1.48533e+22
-5.8065  1.48976e+22
-5.68919  1.49807e+22
-5.57189  1.5103e+22
-5.45458  1.52623e+22
-5.33728  1.5455e+22
-5.21997  1.56745e+22
-5.10267  1.59138e+22
-4.98536  1.61647e+22
-4.86806  1.64187e+22
-4.75075  1.66679e+22
-4.63345  1.69061e+22
-4.51614  1.71276e+22
-4.39884  1.73294e+22
-4.28154  1.75116e+22
-4.16423  1.76746e+22
-4.04692  1.78218e+22
-3.92962  1.7957e+22
-3.81231  1.8085e+22
-3.69501  1.82102e+22
-3.5777  1.83351e+22
-3.4604  1.84614e+22
-3.34309  1.85886e+22
-3.22579  1.87133e+22
-3.10849  1.88313e+22
-2.99118  1.89358e+22
-2.87387  1.90204e+22
-2.75657  1.90781e+22
-2.63926  1.91028e+22
-2.52196  1.90902e+22
-2.40465  1.90385e+22
-2.28735  1.89482e+22
-2.17005  1.88229e+22
-2.05274  1.867e+22
-1.93544  1.84969e+22
-1.81813  1.83153e+22
-1.70083  1.81359e+22
-1.58352  1.79699e+22
-1.46622  1.78276e+22
-1.34891  1.77172e+22
-1.2316  1.76439e+22
-1.1143  1.76111e+22
-0.996995  1.76171e+22
-0.87969  1.76587e+22
-0.762385  1.7728e+22
-0.64508  1.78171e+22
-0.527775  1.79147e+22
-0.41047  1.80095e+22
-0.293165  1.80912e+22
-0.17586  1.81508e+22
-0.058555  1.8182e+22
0.05875  1.81812e+22
0.176055  1.81481e+22
0.29336  1.80866e+22
0.410665  1.80034e+22
0.52797  1.7907e+22
0.645275  1.78083e+22
0.76258  1.77183e+22
0.879885  1.7648e+22
0.99719  1.76059e+22
1.1145  1.75993e+22
1.2318  1.76317e+22
1.3491  1.77046e+22
1.46641  1.78145e+22
1.58371  1.79562e+22
1.70102  1.81214e+22
1.81832  1.82998e+22
1.93563  1.84802e+22
2.05294  1.86516e+22
2.17024  1.88034e+22
2.28754  1.89269e+22
2.40485  1.90154e+22
2.52216  1.90653e+22
2.63946  1.90761e+22
2.75677  1.90493e+22
2.87407  1.89899e+22
2.99137  1.89032e+22
3.10868  1.87967e+22
3.22599  1.8677e+22
3.34329  1.85506e+22
3.4606  1.8422e+22
3.5779  1.82939e+22
3.69521  1.81669e+22
3.81251  1.80404e+22
3.92982  1.79101e+22
4.04712  1.77729e+22
4.16443  1.76242e+22
4.28173  1.74593e+22
4.39903  1.72757e+22
4.51634  1.70722e+22
4.63364  1.68498e+22
4.75095  1.66108e+22
4.86825  1.63609e+22
4.98556  1.61066e+22
5.10286  1.58559e+22
5.22017  1.5617e+22
5.33748  1.53981e+22
5.45478  1.52063e+22
5.57209  1.50481e+22
5.68939  1.49265e+22
5.8067  1.48443e+22
5.924  1.48009e+22
6.0413  1.47945e+22
6.15861  1.48203e+22
6.27591  1.48729e+22
6.39322  1.49455e+22
6.51052  1.50301e+22
6.62783  1.51186e+22
6.74514  1.52043e+22
6.86244  1.52804e+22
6.97975  1.53412e+22
7.09705  1.53832e+22
7.21436  1.54035e+22
7.33166  1.54007e+22
7.44897  1.53751e+22
7.56627  1.53274e+22
7.68358  1.52588e+22
7.80088  1.51707e+22
7.91819  1.50645e+22
8.03549  1.49417e+22
8.1528  1.48033e+22
8.2701  1.46487e+22
8.38741  1.44789e+22
8.50471  1.42942e+22
8.62202  1.40947e+22
8.73932  1.38812e+22
8.85662  1.3656e+22
8.97393  1.3421e+22
9.09123  1.31797e+22
9.20854  1.29366e+22
9.32584  1.26962e+22
9.44315  1.24625e+22
9.56045  1.22404e+22
9.67776  1.20333e+22
9.79506  1.18425e+22
9.91237  1.16696e+22
10.0297  1.15134e+22
10.147  1.13717e+22
10.2643  1.12413e+22
10.3816  1.11179e+22
10.4989  1.09978e+22
10.6162  1.08766e+22
10.7335  1.07512e+22
10.8508  1.06191e+22
10.9681  1.04791e+22
11.0854  1.03318e+22
11.2027  1.0178e+22
11.32  1.00202e+22
11.4373  9.862e+21
11.5546  9.70754e+21
11.6719  9.56084e+21
11.7893  9.42614e+21
11.9066  9.30634e+21
12.0239  9.20319e+21
12.1412  9.11817e+21
12.2585  9.0502e+21
12.3758  8.9974e+21
12.4931  8.95667e+21
12.6104  8.924e+21
12.7277  8.89559e+21
12.845  8.86746e+21
12.9623  8.83538e+21
13.0796  8.79747e+21
13.1969  8.75112e+21
13.3142  8.69604e+21
13.4315  8.63177e+21
13.5488  8.55954e+21
13.6661  8.48087e+21
13.7834  8.39756e+21
13.9007  8.3119e+21
14.018  8.22603e+21
14.1354  8.14077e+21
14.2527  8.05742e+21
14.37  7.97568e+21
14.4873  7.89384e+21
14.6046  7.8102e+21
14.7219  7.72151e+21
14.8392  7.62487e+21
14.9565  7.51682e+21
15.0738  7.39472e+21
15.1911  7.25767e+21
15.3084  7.10498e+21
15.4257  6.93845e+21
15.543  6.76113e+21
15.6603  6.57702e+21
15.7776  6.39135e+21
15.8949  6.20885e+21
16.0122  6.03484e+21
16.1295  5.8732e+21
16.2468  5.72719e+21
16.3641  5.59859e+21
16.4815  5.48772e+21
16.5988  5.39347e+21
16.7161  5.31319e+21
16.8334  5.24451e+21
16.9507  5.18318e+21
17.068  5.12579e+21
17.1853  5.0686e+21
17.3026  5.00871e+21
17.4199  4.94386e+21
17.5372  4.87283e+21
17.6545  4.79486e+21
17.7718  4.71103e+21
17.8891  4.62197e+21
18.0064  4.52961e+21
18.1237  4.43551e+21
18.241  4.34137e+21
18.3583  4.24874e+21
18.4756  4.15846e+21
18.5929  4.07107e+21
18.7102  3.98669e+21
18.8275  3.90493e+21
18.9449  3.82538e+21
19.0622  3.74749e+21
19.1795  3.6705e+21
19.2968  3.59423e+21
19.4141  3.51864e+21
19.5314  3.44405e+21
19.6487  3.37084e+21
19.766  3.29994e+21
19.8833  3.23255e+21
20.0006  3.1695e+21
20.1179  3.11205e+21
20.2352  3.06093e+21
20.3525  3.01631e+21
20.4698  2.97797e+21
20.5871  2.94458e+21
20.7044  2.91434e+21
20.8217  2.88468e+21
20.939  2.85279e+21
21.0563  2.81566e+21
21.1736  2.77069e+21
21.291  2.71608e+21
21.4083  2.65062e+21
21.5256  2.57489e+21
21.6429  2.4901e+21
21.7602  2.39902e+21
21.8775  2.30482e+21
21.9948  2.21133e+21
22.1121  2.1222e+21
22.2294  2.04062e+21
22.3467  1.96911e+21
22.464  1.90907e+21
22.5813  1.8605e+21
22.6986  1.82267e+21
22.8159  1.79337e+21
22.9332  1.76972e+21
23.0505  1.74843e+21
23.1678  1.7262e+21
23.2851  1.6998e+21
23.4024  1.66682e+21
23.5198  1.62606e+21
23.6371  1.57744e+21
23.7544  1.52204e+21
23.8717  1.46227e+21
23.989  1.40128e+21
24.1063  1.34274e+21
24.2236  1.29012e+21
24.3409  1.2464e+21
24.4582  1.21373e+21
24.5755  1.19297e+21
24.6928  1.18388e+21
24.8101  1.18506e+21
24.9274  1.19423e+21
25.0447  1.2086e+21
25.162  1.22528e+21
25.2793  1.24134e+21
25.3966  1.25419e+21
25.5139  1.26196e+21
25.6312  1.26318e+21
25.7485  1.25714e+21
25.8658  1.24367e+21
25.9832  1.22299e+21
26.1005  1.19592e+21
26.2178  1.16348e+21
26.3351  1.12671e+21
26.4524  1.08675e+21
26.5697  1.04489e+21
26.687  1.00196e+21
26.8043  9.58698e+20
26.9216  9.15895e+20
27.0389  8.73927e+20
27.1562  8.33417e+20
27.2735  7.94779e+20
27.3908  7.5872e+20
27.5081  7.25802e+20
27.6254  6.96646e+20
27.7427  6.71882e+20
27.86  6.51747e+20
27.9773  6.36508e+20
28.0946  6.26079e+20
28.212  6.20196e+20
28.3293  6.18442e+20
28.4466  6.20295e+20
28.5639  6.25267e+20
28.6812  6.32813e+20
28.7985  6.42529e+20
28.9158  6.53858e+20
29.0331  6.66177e+20
29.1504  6.78918e+20
29.2677  6.91476e+20
29.385  7.03075e+20
29.5023  7.1318e+20
29.6196  7.21164e+20
29.7369  7.26806e+20
29.8542  7.29822e+20
29.9715  7.29991e+20
30.0888  7.27218e+20
30.2061  7.21223e+20
30.3234  7.11903e+20
30.4407  6.98975e+20
30.558  6.82093e+20
30.6754  6.61265e+20
30.7927  6.36528e+20
30.91  6.08616e+20
31.0273  5.78276e+20
31.1446  5.46764e+20
31.2619  5.15752e+20
31.3792  4.8674e+20
31.4965  4.61587e+20
31.6138  4.41829e+20
31.7311  4.28627e+20
31.8484  4.22998e+20
31.9657  4.25328e+20
32.083  4.3543e+20
32.2003  4.52427e+20
32.3176  4.7493e+20
32.4349  5.00875e+20
32.5522  5.27838e+20
32.6695  5.53095e+20
32.7868  5.74235e+20
32.9042  5.89163e+20
33.0215  5.96415e+20
33.1388  5.95764e+20
33.2561  5.87485e+20
33.3734  5.73269e+20
33.4907  5.55003e+20
33.608  5.35128e+20
33.7253  5.15972e+20
33.8426  4.99294e+20
33.9599  4.86557e+20
34.0772  4.78198e+20
34.1945  4.74166e+20
34.3118  4.73805e+20
34.4291  4.76037e+20
34.5464  4.7948e+20
34.6637  4.82528e+20
34.781  4.83915e+20
34.8983  4.82129e+20
35.0156  4.76152e+20
35.1329  4.65239e+20
35.2503  4.49088e+20
35.3676  4.28176e+20
35.4849  4.03193e+20
35.6022  3.75832e+20
35.7195  3.47966e+20
35.8368  3.21601e+20
35.9541  2.98444e+20
36.0714  2.79945e+20
36.1887  2.66701e+20
36.306  2.585e+20
36.4233  2.54493e+20
36.5406  2.53393e+20
36.6579  2.5372e+20
36.7752  2.54041e+20
36.8925  2.53375e+20
37.0098  2.51375e+20
37.1271  2.48037e+20
37.2444  2.44062e+20
37.3617  2.40228e+20
37.479  2.37485e+20
37.5964  2.368e+20
37.7137  2.38916e+20
37.831  2.44446e+20
37.9483  2.53644e+20
38.0656  2.66718e+20
38.1829  2.83568e+20
38.3002  3.03812e+20
38.4175  3.26848e+20
38.5348  3.51586e+20
38.6521  3.76623e+20
38.7694  4.00365e+20
38.8867  4.20996e+20
39.004  4.36944e+20
39.1213  4.46846e+20
39.2386  4.50044e+20
39.3559  4.46522e+20
39.4732  4.37042e+20
39.5905  4.22943e+20
39.7078  4.05999e+20
39.8251  3.88053e+20
39.9425  3.7103e+20
40.0598  3.56437e+20
40.1771  3.45116e+20
40.2944  3.37494e+20
40.4117  3.33434e+20
40.529  3.32403e+20
40.6463  3.33458e+20
40.7636  3.35799e+20
40.8809  3.38443e+20
40.9982  3.40792e+20
41.1155  3.42572e+20
41.2328  3.43752e+20
41.3501  3.44612e+20
41.4674  3.4574e+20
41.5847  3.47797e+20
41.702  3.51338e+20
41.8193  3.56695e+20
41.9366  3.63891e+20
42.0539  3.72407e+20
42.1712  3.8125e+20
42.2885  3.89174e+20
42.4059  3.94794e+20
42.5232  3.96668e+20
42.6405  3.93885e+20
42.7578  3.8576e+20
42.8751  3.72547e+20
42.9924  3.54866e+20
43.1097  3.33959e+20
43.227  3.11412e+20
43.3443  2.88818e+20
43.4616  2.67754e+20
43.5789  2.4942e+20
43.6962  2.34683e+20
43.8135  2.23942e+20
43.9308  2.17307e+20
44.0481  2.14509e+20
44.1654  2.15028e+20
44.2827  2.18207e+20
44.4  2.23121e+20
44.5173  2.28831e+20
44.6347  2.34316e+20
44.752  2.38493e+20
44.8693  2.40464e+20
44.9866  2.39429e+20
45.1039  2.34967e+20
45.2212  2.27017e+20
45.3385  2.15982e+20
45.4558  2.02602e+20
45.5731  1.87824e+20
45.6904  1.7284e+20
45.8077  1.58774e+20
45.925  1.46534e+20
46.0423  1.36874e+20
46.1596  1.30346e+20
46.2769  1.27284e+20
46.3942  1.27889e+20
46.5115  1.32371e+20
46.6288  1.40786e+20
46.7461  1.53194e+20
46.8634  1.69421e+20
46.9808  1.89115e+20
47.0981  2.11586e+20
47.2154  2.35747e+20
47.3327  2.60416e+20
47.45  2.83972e+20
47.5673  3.05057e+20
47.6846  3.22392e+20
47.8019  3.34963e+20
47.9192  3.42292e+20
48.0365  3.44242e+20
48.1538  3.41229e+20
48.2711  3.33823e+20
48.3884  3.22809e+20
48.5057  3.09053e+20
48.623  2.93284e+20
48.7403  2.76298e+20
48.8576  2.58659e+20
48.9749  2.40962e+20
49.0922  2.23641e+20
49.2095  2.07087e+20
49.3269  1.91754e+20
49.4442  1.77976e+20
49.5615  1.66198e+20
49.6788  1.56652e+20
49.7961  1.49519e+20
49.9134  1.44884e+20
50.0307  1.42722e+20
50.148  1.42752e+20
50.2653  1.44624e+20
50.3826  1.47813e+20
50.4999  1.51726e+20
50.6172  1.55721e+20
50.7345  1.5925e+20
50.8518  1.6187e+20
