#S 1 spectral density
#N 2
#UFWHM 22.6399
#L  abscissas [um]  spectral density
-58.5938  8.29084e+19
-58.4764  7.68658e+19
-58.3591  6.97624e+19
-58.2418  6.17113e+19
-58.1245  5.31717e+19
-58.0072  4.4948e+19
-57.8899  3.80165e+19
-57.7726  3.33503e+19
-57.6553  3.17041e+19
-57.538  3.3453e+19
-57.4207  3.84563e+19
-57.3034  4.61176e+19
-57.1861  5.5567e+19
-57.0688  6.58209e+19
-56.9515  7.60259e+19
-56.8342  8.55776e+19
-56.7169  9.41667e+19
-56.5996  1.01827e+20
-56.4823  1.087e+20
-56.365  1.14901e+20
-56.2477  1.20526e+20
-56.1303  1.25287e+20
-56.013  1.28935e+20
-55.8957  1.31008e+20
-55.7784  1.31167e+20
-55.6611  1.2919e+20
-55.5438  1.25078e+20
-55.4265  1.19208e+20
-55.3092  1.11955e+20
-55.1919  1.03902e+20
-55.0746  9.5641e+19
-54.9573  8.76483e+19
-54.84  8.04548e+19
-54.7227  7.43641e+19
-54.6054  6.98288e+19
-54.4881  6.71435e+19
-54.3708  6.66039e+19
-54.2535  6.8365e+19
-54.1362  7.23524e+19
-54.0189  7.8222e+19
-53.9016  8.53568e+19
-53.7842  9.28608e+19
-53.6669  9.97815e+19
-53.5496  1.05177e+20
-53.4323  1.0843e+20
-53.315  1.09282e+20
-53.1977  1.07918e+20
-53.0804  1.0499e+20
-52.9631  1.01341e+20
-52.8458  9.79148e+19
-52.7285  9.55512e+19
-52.6112  9.4755e+19
-52.4939  9.57636e+19
-52.3766  9.83902e+19
-52.2593  1.0233e+20
-52.142  1.07159e+20
-52.0247  1.12441e+20
-51.9074  1.17963e+20
-51.7901  1.23552e+20
-51.6728  1.29274e+20
-51.5555  1.35149e+20
-51.4381  1.41197e+20
-51.3208  1.47394e+20
-51.2035  1.53518e+20
-51.0862  1.5937e+20
-50.9689  1.64644e+20
-50.8516  1.69102e+20
-50.7343  1.7264e+20
-50.617  1.75237e+20
-50.4997  1.77045e+20
-50.3824  1.78351e+20
-50.2651  1.79505e+20
-50.1478  1.80921e+20
-50.0305  1.82964e+20
-49.9132  1.85973e+20
-49.7959  1.90113e+20
-49.6786  1.95521e+20
-49.5613  2.02093e+20
-49.444  2.09623e+20
-49.3267  2.17802e+20
-49.2094  2.26251e+20
-49.092  2.34501e+20
-48.9747  2.42221e+20
-48.8574  2.49084e+20
-48.7401  2.54966e+20
-48.6228  2.59773e+20
-48.5055  2.63567e+20
-48.3882  2.66428e+20
-48.2709  2.68424e+20
-48.1536  2.69589e+20
-48.0363  2.6981e+20
-47.919  2.69049e+20
-47.8017  2.67163e+20
-47.6844  2.64087e+20
-47.5671  2.59778e+20
-47.4498  2.5429e+20
-47.3325  2.47744e+20
-47.2152  2.40266e+20
-47.0979  2.31957e+20
-46.9806  2.22749e+20
-46.8633  2.12599e+20
-46.7459  2.01531e+20
-46.6286  1.89534e+20
-46.5113  1.76827e+20
-46.394  1.6384e+20
-46.2767  1.51309e+20
-46.1594  1.40092e+20
-46.0421  1.312e+20
-45.9248  1.25504e+20
-45.8075  1.23705e+20
-45.6902  1.26109e+20
-45.5729  1.32651e+20
-45.4556  1.42826e+20
-45.3383  1.559e+20
-45.221  1.70879e+20
-45.1037  1.86832e+20
-44.9864  2.02796e+20
-44.8691  2.18064e+20
-44.7518  2.31991e+20
-44.6345  2.44147e+20
-44.5172  2.54198e+20
-44.3998  2.6188e+20
-44.2825  2.67155e+20
-44.1652  2.70123e+20
-44.0479  2.71114e+20
-43.9306  2.70793e+20
-43.8133  2.70015e+20
-43.696  2.6978e+20
-43.5787  2.71163e+20
-43.4614  2.75025e+20
-43.3441  2.81865e+20
-43.2268  2.91644e+20
-43.1095  3.0377e+20
-42.9922  3.17175e+20
-42.8749  3.30471e+20
-42.7576  3.42089e+20
-42.6403  3.50794e+20
-42.523  3.55532e+20
-42.4057  3.56025e+20
-42.2884  3.52465e+20
-42.171  3.45546e+20
-42.0537  3.3651e+20
-41.9364  3.26617e+20
-41.8191  3.1727e+20
-41.7018  3.09489e+20
-41.5845  3.04022e+20
-41.4672  3.01198e+20
-41.3499  3.00853e+20
-41.2326  3.02451e+20
-41.1153  3.0527e+20
-40.998  3.08458e+20
-40.8807  3.11132e+20
-40.7634  3.12712e+20
-40.6461  3.12899e+20
-40.5288  3.11843e+20
-40.4115  3.10062e+20
-40.2942  3.08291e+20
-40.1769  3.0763e+20
-40.0596  3.09081e+20
-39.9423  3.13425e+20
-39.825  3.20983e+20
-39.7076  3.31565e+20
-39.5903  3.44505e+20
-39.473  3.58711e+20
-39.3557  3.72537e+20
-39.2384  3.84533e+20
-39.1211  3.93364e+20
-39.0038  3.97845e+20
-38.8865  3.97381e+20
-38.7692  3.91945e+20
-38.6519  3.81649e+20
-38.5346  3.67284e+20
-38.4173  3.49533e+20
-38.3  3.29549e+20
-38.1827  3.08321e+20
-38.0654  2.86986e+20
-37.9481  2.66752e+20
-37.8308  2.48649e+20
-37.7135  2.33722e+20
-37.5962  2.22788e+20
-37.4789  2.16224e+20
-37.3615  2.14022e+20
-37.2442  2.15679e+20
-37.1269  2.20315e+20
-37.0096  2.2683e+20
-36.8923  2.34002e+20
-36.775  2.40887e+20
-36.6577  2.46811e+20
-36.5404  2.51813e+20
-36.4231  2.56286e+20
-36.3058  2.60931e+20
-36.1885  2.66757e+20
-36.0712  2.74689e+20
-35.9539  2.85427e+20
-35.8366  2.99348e+20
-35.7193  3.16295e+20
-35.602  3.35912e+20
-35.4847  3.5765e+20
-35.3674  3.80786e+20
-35.2501  4.04604e+20
-35.1328  4.28293e+20
-35.0154  4.51102e+20
-34.8981  4.72066e+20
-34.7808  4.90433e+20
-34.6635  5.05253e+20
-34.5462  5.15793e+20
-34.4289  5.2184e+20
-34.3116  5.23365e+20
-34.1943  5.21103e+20
-34.077  5.16209e+20
-33.9597  5.10205e+20
-33.8424  5.04901e+20
-33.7251  5.018e+20
-33.6078  5.01965e+20
-33.4905  5.05827e+20
-33.3732  5.1304e+20
-33.2559  5.22603e+20
-33.1386  5.32959e+20
-33.0213  5.42357e+20
-32.904  5.49227e+20
-32.7867  5.52261e+20
-32.6693  5.50611e+20
-32.552  5.44266e+20
-32.4347  5.33452e+20
-32.3174  5.19413e+20
-32.2001  5.03362e+20
-32.0828  4.87041e+20
-31.9655  4.72158e+20
-31.8482  4.60412e+20
-31.7309  4.53188e+20
-31.6136  4.51435e+20
-31.4963  4.55507e+20
-31.379  4.65195e+20
-31.2617  4.7967e+20
-31.1444  4.97493e+20
-31.0271  5.16789e+20
-30.9098  5.36019e+20
-30.7925  5.53163e+20
-30.6752  5.67062e+20
-30.5579  5.77005e+20
-30.4406  5.82892e+20
-30.3232  5.8528e+20
-30.2059  5.84852e+20
-30.0886  5.82803e+20
-29.9713  5.80415e+20
-29.854  5.78558e+20
-29.7367  5.77885e+20
-29.6194  5.78955e+20
-29.5021  5.81812e+20
-29.3848  5.86191e+20
-29.2675  5.91768e+20
-29.1502  5.97958e+20
-29.0329  6.0422e+20
-28.9156  6.09832e+20
-28.7983  6.14292e+20
-28.681  6.17321e+20
-28.5637  6.18843e+20
-28.4464  6.19172e+20
-28.3291  6.18955e+20
-28.2118  6.19107e+20
-28.0944  6.20809e+20
-27.9771  6.25259e+20
-27.8598  6.33557e+20
-27.7425  6.46386e+20
-27.6252  6.64074e+20
-27.5079  6.86658e+20
-27.3906  7.13596e+20
-27.2733  7.44244e+20
-27.156  7.77414e+20
-27.0387  8.1222e+20
-26.9214  8.47589e+20
-26.8041  8.82624e+20
-26.6868  9.16489e+20
-26.5695  9.48557e+20
-26.4522  9.78313e+20
-26.3349  1.00549e+21
-26.2176  1.02996e+21
-26.1003  1.05152e+21
-25.983  1.07038e+21
-25.8657  1.08659e+21
-25.7483  1.10044e+21
-25.631  1.11227e+21
-25.5137  1.12232e+21
-25.3964  1.13108e+21
-25.2791  1.13901e+21
-25.1618  1.14694e+21
-25.0445  1.15565e+21
-24.9272  1.16652e+21
-24.8099  1.18086e+21
-24.6926  1.20035e+21
-24.5753  1.22635e+21
-24.458  1.26006e+21
-24.3407  1.30188e+21
-24.2234  1.35182e+21
-24.1061  1.40859e+21
-23.9888  1.47043e+21
-23.8715  1.53471e+21
-23.7542  1.59863e+21
-23.6369  1.65902e+21
-23.5196  1.71318e+21
-23.4023  1.75892e+21
-23.2849  1.7949e+21
-23.1676  1.82072e+21
-23.0503  1.83716e+21
-22.933  1.84597e+21
-22.8157  1.84983e+21
-22.6984  1.85213e+21
-22.5811  1.85654e+21
-22.4638  1.86686e+21
-22.3465  1.88659e+21
-22.2292  1.9183e+21
-22.1119  1.96353e+21
-21.9946  2.02269e+21
-21.8773  2.0945e+21
-21.76  2.17657e+21
-21.6427  2.26536e+21
-21.5254  2.35664e+21
-21.4081  2.44624e+21
-21.2908  2.53018e+21
-21.1735  2.60548e+21
-21.0561  2.67038e+21
-20.9388  2.72434e+21
-20.8215  2.7682e+21
-20.7042  2.80436e+21
-20.5869  2.83545e+21
-20.4696  2.8653e+21
-20.3523  2.89759e+21
-20.235  2.93569e+21
-20.1177  2.98213e+21
-20.0004  3.03913e+21
-19.8831  3.10747e+21
-19.7658  3.18714e+21
-19.6485  3.27674e+21
-19.5312  3.37454e+21
-19.4139  3.47751e+21
-19.2966  3.58284e+21
-19.1793  3.6874e+21
-19.062  3.78854e+21
-18.9447  3.88387e+21
-18.8274  3.97209e+21
-18.71  4.05301e+21
-18.5927  4.12706e+21
-18.4754  4.1956e+21
-18.3581  4.26069e+21
-18.2408  4.32478e+21
-18.1235  4.39006e+21
-18.0062  4.45855e+21
-17.8889  4.53133e+21
-17.7716  4.60939e+21
-17.6543  4.69241e+21
-17.537  4.77946e+21
-17.4197  4.86913e+21
-17.3024  4.95982e+21
-17.1851  5.04989e+21
-17.0678  5.13781e+21
-16.9505  5.22286e+21
-16.8332  5.3052e+21
-16.7159  5.38567e+21
-16.5986  5.46594e+21
-16.4813  5.54878e+21
-16.364  5.63724e+21
-16.2466  5.73451e+21
-16.1293  5.84331e+21
-16.012  5.96583e+21
-15.8947  6.1028e+21
-15.7774  6.25398e+21
-15.6601  6.41749e+21
-15.5428  6.59013e+21
-15.4255  6.7672e+21
-15.3082  6.94411e+21
-15.1909  7.11631e+21
-15.0736  7.27893e+21
-14.9563  7.42873e+21
-14.839  7.56394e+21
-14.7217  7.6836e+21
-14.6044  7.7885e+21
-14.4871  7.88119e+21
-14.3698  7.96445e+21
-14.2525  8.04167e+21
-14.1352  8.11614e+21
-14.0178  8.19165e+21
-13.9005  8.2703e+21
-13.7832  8.35359e+21
-13.6659  8.44189e+21
-13.5486  8.53437e+21
-13.4313  8.6291e+21
-13.314  8.72309e+21
-13.1967  8.8129e+21
-13.0794  8.89576e+21
-12.9621  8.96781e+21
-12.8448  9.0277e+21
-12.7275  9.07389e+21
-12.6102  9.10788e+21
-12.4929  9.13182e+21
-12.3756  9.14937e+21
-12.2583  9.16614e+21
-12.141  9.18812e+21
-12.0237  9.22112e+21
-11.9064  9.27064e+21
-11.7891  9.34144e+21
-11.6718  9.43674e+21
-11.5544  9.55829e+21
-11.4371  9.70628e+21
-11.3198  9.87842e+21
-11.2025  1.00716e+22
-11.0852  1.02813e+22
-10.9679  1.0502e+22
-10.8506  1.07275e+22
-10.7333  1.09517e+22
-10.616  1.11689e+22
-10.4987  1.1375e+22
-10.3814  1.15658e+22
-10.2641  1.17397e+22
-10.1468  1.1897e+22
-10.0295  1.20391e+22
-9.91217  1.2169e+22
-9.79487  1.22914e+22
-9.67756  1.2411e+22
-9.56026  1.25333e+22
-9.44295  1.26626e+22
-9.32565  1.28041e+22
-9.20834  1.29603e+22
-9.09104  1.31329e+22
-8.97373  1.3323e+22
-8.85643  1.35292e+22
-8.73913  1.37489e+22
-8.62182  1.39782e+22
-8.50452  1.42124e+22
-8.38721  1.44463e+22
-8.26991  1.46727e+22
-8.1526  1.48863e+22
-8.03529  1.50803e+22
-7.91799  1.52497e+22
-7.80069  1.53899e+22
-7.68338  1.54973e+22
-7.56608  1.55709e+22
-7.44877  1.56102e+22
-7.33146  1.56168e+22
-7.21416  1.5593e+22
-7.09685  1.55432e+22
-6.97955  1.54721e+22
-6.86224  1.53861e+22
-6.74494  1.52926e+22
-6.62763  1.51969e+22
-6.51033  1.5107e+22
-6.39302  1.5029e+22
-6.27572  1.49688e+22
-6.15842  1.49313e+22
-6.04111  1.49206e+22
-5.92381  1.49389e+22
-5.8065  1.49885e+22
-5.68919  1.50687e+22
-5.57189  1.51786e+22
-5.45458  1.53159e+22
-5.33728  1.54778e+22
-5.21997  1.566e+22
-5.10267  1.5858e+22
-4.98536  1.60671e+22
-4.86806  1.62827e+22
-4.75075  1.65004e+22
-4.63345  1.67173e+22
-4.51614  1.69303e+22
-4.39884  1.7138e+22
-4.28154  1.7341e+22
-4.16423  1.7539e+22
-4.04692  1.77337e+22
-3.92962  1.79265e+22
-3.81231  1.81188e+22
-3.69501  1.83113e+22
-3.5777  1.85032e+22
-3.4604  1.8693e+22
-3.34309  1.88774e+22
-3.22579  1.90516e+22
-3.10849  1.92101e+22
-2.99118  1.93465e+22
-2.87387  1.94549e+22
-2.75657  1.95296e+22
-2.63926  1.95662e+22
-2.52196  1.9562e+22
-2.40465  1.95167e+22
-2.28735  1.94317e+22
-2.17005  1.93115e+22
-2.05274  1.91633e+22
-1.93544  1.89942e+22
-1.81813  1.88151e+22
-1.70083  1.86356e+22
-1.58352  1.8466e+22
-1.46622  1.83157e+22
-1.34891  1.81922e+22
-1.2316  1.81006e+22
-1.1143  1.80447e+22
-0.996995  1.80234e+22
-0.87969  1.80349e+22
-0.762385  1.80726e+22
-0.64508  1.81303e+22
-0.527775  1.81985e+22
-0.41047  1.82675e+22
-0.293165  1.83285e+22
-0.17586  1.83737e+22
-0.058555  1.83976e+22
0.05875  1.83969e+22
0.176055  1.83716e+22
0.29336  1.83248e+22
0.410665  1.82627e+22
0.52797  1.81924e+22
0.645275  1.81234e+22
0.76258  1.80649e+22
0.879885  1.80263e+22
0.99719  1.80142e+22
1.1145  1.80348e+22
1.2318  1.80901e+22
1.3491  1.8181e+22
1.46641  1.83036e+22
1.58371  1.84528e+22
1.70102  1.86212e+22
1.81832  1.87992e+22
1.93563  1.89765e+22
2.05294  1.91433e+22
2.17024  1.92899e+22
2.28754  1.94078e+22
2.40485  1.94904e+22
2.52216  1.95335e+22
2.63946  1.95354e+22
2.75677  1.94964e+22
2.87407  1.94196e+22
2.99137  1.93089e+22
3.10868  1.91704e+22
3.22599  1.901e+22
3.34329  1.88343e+22
3.4606  1.86487e+22
3.5779  1.84576e+22
3.69521  1.82641e+22
3.81251  1.80708e+22
3.92982  1.7877e+22
4.04712  1.76831e+22
4.16443  1.74876e+22
4.28173  1.72885e+22
4.39903  1.70847e+22
4.51634  1.68759e+22
4.63364  1.66625e+22
4.75095  1.64451e+22
4.86825  1.62267e+22
4.98556  1.60108e+22
5.10286  1.58015e+22
5.22017  1.56035e+22
5.33748  1.54216e+22
5.45478  1.526e+22
5.57209  1.51232e+22
5.68939  1.50135e+22
5.8067  1.49338e+22
5.924  1.48848e+22
6.0413  1.48667e+22
6.15861  1.48776e+22
6.27591  1.49149e+22
6.39322  1.49752e+22
6.51052  1.5053e+22
6.62783  1.51421e+22
6.74514  1.52366e+22
6.86244  1.53295e+22
6.97975  1.54138e+22
7.09705  1.54831e+22
7.21436  1.55312e+22
7.33166  1.5553e+22
7.44897  1.55447e+22
7.56627  1.55034e+22
7.68358  1.54279e+22
7.80088  1.53184e+22
7.91819  1.51764e+22
8.03549  1.50059e+22
8.1528  1.48111e+22
8.2701  1.45966e+22
8.38741  1.43693e+22
8.50471  1.41355e+22
8.62202  1.3901e+22
8.73932  1.36715e+22
8.85662  1.34522e+22
8.97393  1.32463e+22
9.09123  1.30564e+22
9.20854  1.28838e+22
9.32584  1.27279e+22
9.44315  1.25862e+22
9.56045  1.24563e+22
9.67776  1.23338e+22
9.79506  1.22131e+22
9.91237  1.209e+22
10.0297  1.1959e+22
10.147  1.1816e+22
10.2643  1.1658e+22
10.3816  1.1483e+22
10.4989  1.12917e+22
10.6162  1.10855e+22
10.7335  1.08681e+22
10.8508  1.06442e+22
10.9681  1.04193e+22
11.0854  1.01998e+22
11.2027  9.9915e+21
11.32  9.79966e+21
11.4373  9.62895e+21
11.5546  9.48279e+21
11.6719  9.36265e+21
11.7893  9.2689e+21
11.9066  9.19951e+21
12.0239  9.15077e+21
12.1412  9.11878e+21
12.2585  9.09742e+21
12.3758  9.08076e+21
12.4931  9.06295e+21
12.6104  9.03871e+21
12.7277  9.00444e+21
12.845  8.95773e+21
12.9623  8.89722e+21
13.0796  8.82468e+21
13.1969  8.74153e+21
13.3142  8.65143e+21
13.4315  8.55719e+21
13.5488  8.46261e+21
13.6661  8.37037e+21
13.7834  8.28228e+21
13.9007  8.19932e+21
14.018  8.1213e+21
14.1354  8.04616e+21
14.2527  7.97186e+21
14.37  7.89522e+21
14.4873  7.81222e+21
14.6046  7.71984e+21
14.7219  7.61487e+21
14.8392  7.49548e+21
14.9565  7.36063e+21
15.0738  7.21078e+21
15.1911  7.04854e+21
15.3084  6.8767e+21
15.4257  6.69994e+21
15.543  6.52325e+21
15.6603  6.35131e+21
15.7776  6.18871e+21
15.8949  6.03816e+21
16.0122  5.90194e+21
16.1295  5.78013e+21
16.2468  5.67196e+21
16.3641  5.5754e+21
16.4815  5.48764e+21
16.5988  5.40548e+21
16.7161  5.32547e+21
16.8334  5.2458e+21
16.9507  5.16405e+21
17.068  5.07962e+21
17.1853  4.99233e+21
17.3026  4.90307e+21
17.4199  4.81313e+21
17.5372  4.72428e+21
17.6545  4.63785e+21
17.7718  4.55578e+21
17.8891  4.47845e+21
18.0064  4.40635e+21
18.1237  4.33862e+21
18.241  4.27391e+21
18.3583  4.2104e+21
18.4756  4.14573e+21
18.5929  4.07756e+21
18.7102  4.004e+21
18.8275  3.92358e+21
18.9449  3.83584e+21
19.0622  3.74122e+21
19.1795  3.64086e+21
19.2968  3.53708e+21
19.4141  3.43265e+21
19.5314  3.33071e+21
19.6487  3.23407e+21
19.766  3.14548e+21
19.8833  3.06702e+21
20.0006  2.99955e+21
20.1179  2.94343e+21
20.2352  2.89769e+21
20.3525  2.8603e+21
20.4698  2.82865e+21
20.5871  2.79918e+21
20.7044  2.76833e+21
20.8217  2.7325e+21
20.939  2.68879e+21
21.0563  2.63509e+21
21.1736  2.57052e+21
21.291  2.49569e+21
21.4083  2.41224e+21
21.5256  2.32345e+21
21.6429  2.23299e+21
21.7602  2.14531e+21
21.8775  2.06438e+21
21.9948  1.99376e+21
22.1121  1.93583e+21
22.2294  1.8916e+21
22.3467  1.86092e+21
22.464  1.84214e+21
22.5813  1.83242e+21
22.6986  1.82858e+21
22.8159  1.82672e+21
22.9332  1.82305e+21
23.0505  1.81431e+21
23.1678  1.79803e+21
23.2851  1.77229e+21
23.4024  1.73642e+21
23.5198  1.69088e+21
23.6371  1.63711e+21
23.7544  1.57717e+21
23.8717  1.51389e+21
23.989  1.45026e+21
24.1063  1.38929e+21
24.2236  1.3334e+21
24.3409  1.28445e+21
24.4582  1.24351e+21
24.5755  1.21072e+21
24.6928  1.18553e+21
24.8101  1.1668e+21
24.9274  1.15304e+21
25.0447  1.14272e+21
25.162  1.13449e+21
25.2793  1.12706e+21
25.3966  1.11941e+21
25.5139  1.11098e+21
25.6312  1.10112e+21
25.7485  1.08953e+21
25.8658  1.07588e+21
25.9832  1.05981e+21
26.1005  1.04115e+21
26.2178  1.01981e+21
26.3351  9.95603e+20
26.4524  9.68526e+20
26.5697  9.38994e+20
26.687  9.0719e+20
26.8043  8.73567e+20
26.9216  8.38931e+20
27.0389  8.03883e+20
27.1562  7.69473e+20
27.2735  7.36629e+20
27.3908  7.06484e+20
27.5081  6.79943e+20
27.6254  6.57774e+20
27.7427  6.40515e+20
27.86  6.2807e+20
27.9773  6.20136e+20
28.0946  6.15973e+20
28.212  6.14503e+20
28.3293  6.14537e+20
28.4466  6.14916e+20
28.5639  6.14705e+20
28.6812  6.13255e+20
28.7985  6.10347e+20
28.9158  6.06018e+20
29.0331  6.00517e+20
29.1504  5.94425e+20
29.2677  5.88435e+20
29.385  5.83049e+20
29.5023  5.78894e+20
29.6196  5.76261e+20
29.7369  5.75438e+20
29.8542  5.76319e+20
29.9715  5.78385e+20
30.0888  5.80976e+20
30.2061  5.82993e+20
30.3234  5.83415e+20
30.4407  5.8115e+20
30.558  5.752e+20
30.6754  5.65214e+20
30.7927  5.51176e+20
30.91  5.34035e+20
31.0273  5.14942e+20
31.1446  4.956e+20
31.2619  4.77971e+20
31.3792  4.63641e+20
31.4965  4.54154e+20
31.6138  4.50317e+20
31.7311  4.52253e+20
31.8484  4.59655e+20
31.9657  4.71551e+20
32.083  4.86514e+20
32.2003  5.02841e+20
32.3176  5.18854e+20
32.4349  5.32836e+20
32.5522  5.43463e+20
32.6695  5.4965e+20
32.7868  5.51081e+20
32.9042  5.47921e+20
33.0215  5.40868e+20
33.1388  5.31434e+20
33.2561  5.21002e+20
33.3734  5.11542e+20
33.4907  5.0439e+20
33.608  5.00631e+20
33.7253  5.00611e+20
33.8426  5.03772e+20
33.9599  5.09168e+20
34.0772  5.15112e+20
34.1945  5.1994e+20
34.3118  5.22114e+20
34.4291  5.20482e+20
34.5464  5.14378e+20
34.6637  5.03617e+20
34.781  4.88763e+20
34.8983  4.70363e+20
35.0156  4.49352e+20
35.1329  4.26601e+20
35.2503  4.02923e+20
35.3676  3.79248e+20
35.4849  3.56116e+20
35.6022  3.34444e+20
35.7195  3.14919e+20
35.8368  2.98136e+20
35.9541  2.84349e+20
36.0714  2.73718e+20
36.1887  2.65886e+20
36.306  2.60104e+20
36.4233  2.55453e+20
36.5406  2.50998e+20
36.6579  2.46008e+20
36.7752  2.39998e+20
36.8925  2.33063e+20
37.0098  2.259e+20
37.1271  2.19366e+20
37.2444  2.14782e+20
37.3617  2.13193e+20
37.479  2.15455e+20
37.5964  2.22101e+20
37.7137  2.33109e+20
37.831  2.48079e+20
37.9483  2.66175e+20
38.0656  2.86416e+20
38.1829  3.07713e+20
38.3002  3.28894e+20
38.4175  3.48859e+20
38.5348  3.66516e+20
38.6521  3.80813e+20
38.7694  3.90974e+20
38.8867  3.96327e+20
39.004  3.96666e+20
39.1213  3.92039e+20
39.2386  3.8315e+20
39.3559  3.71043e+20
39.4732  3.57153e+20
39.5905  3.43019e+20
39.7078  3.30098e+20
39.8251  3.1948e+20
39.9425  3.11954e+20
40.0598  3.07708e+20
40.1771  3.06287e+20
40.2944  3.0692e+20
40.4117  3.08628e+20
40.529  3.10427e+20
40.6463  3.11403e+20
40.7636  3.11201e+20
40.8809  3.09558e+20
40.9982  3.06837e+20
41.1155  3.0372e+20
41.2328  3.00962e+20
41.3501  2.99409e+20
41.4674  2.99839e+20
41.5847  3.0278e+20
41.702  3.08303e+20
41.8193  3.16111e+20
41.9366  3.25514e+20
42.0539  3.35393e+20
42.1712  3.4438e+20
42.2885  3.51149e+20
42.4059  3.54635e+20
42.5232  3.53967e+20
42.6405  3.49122e+20
42.7578  3.40289e+20
42.8751  3.28606e+20
42.9924  3.15314e+20
43.1097  3.01931e+20
43.227  2.89896e+20
43.3443  2.80211e+20
43.4616  2.73501e+20
43.5789  2.69722e+20
43.6962  2.68405e+20
43.8135  2.68627e+20
43.9308  2.69411e+20
44.0481  2.69702e+20
44.1654  2.68624e+20
44.2827  2.65635e+20
44.4  2.603e+20
44.5173  2.5256e+20
44.6347  2.42518e+20
44.752  2.30346e+20
44.8693  2.16448e+20
44.9866  2.01231e+20
45.1039  1.85324e+20
45.2212  1.69459e+20
45.3385  1.54582e+20
45.4558  1.41665e+20
45.5731  1.31601e+20
45.6904  1.25208e+20
45.8077  1.22956e+20
45.925  1.24879e+20
46.0423  1.30649e+20
46.1596  1.39615e+20
46.2769  1.50848e+20
46.3942  1.63368e+20
46.5115  1.76327e+20
46.6288  1.88976e+20
46.7461  2.00946e+20
46.8634  2.11986e+20
46.9808  2.221e+20
47.0981  2.31329e+20
47.2154  2.39655e+20
47.3327  2.4719e+20
47.45  2.53703e+20
47.5673  2.59174e+20
47.6846  2.63517e+20
47.8019  2.66596e+20
47.9192  2.68483e+20
48.0365  2.69206e+20
48.1538  2.68956e+20
48.2711  2.67793e+20
48.3884  2.65762e+20
48.5057  2.62874e+20
48.623  2.58984e+20
48.7403  2.54099e+20
48.8576  2.48134e+20
48.9749  2.41191e+20
49.0922  2.33441e+20
49.2095  2.25129e+20
49.3269  2.16669e+20
49.4442  2.08437e+20
49.5615  2.00934e+20
49.6788  1.94411e+20
49.7961  1.89053e+20
49.9134  1.84934e+20
50.0307  1.8201e+20
50.148  1.79987e+20
50.2653  1.78605e+20
50.3826  1.7746e+20
50.4999  1.76167e+20
50.6172  1.74348e+20
50.7345  1.71746e+20
50.8518  1.68196e+20
50.9691  1.63735e+20
