#S 1 spectral density
#N 2
#UFWHM 31.555
#L  abscissas [um]  spectral density
-58.5938  2.07387e+20
-58.4764  2.13768e+20
-58.3591  2.21206e+20
-58.2418  2.28957e+20
-58.1245  2.3622e+20
-58.0072  2.42203e+20
-57.8899  2.46305e+20
-57.7726  2.48057e+20
-57.6553  2.47163e+20
-57.538  2.43433e+20
-57.4207  2.3683e+20
-57.3034  2.27431e+20
-57.1861  2.15459e+20
-57.0688  2.01424e+20
-56.9515  1.8607e+20
-56.8342  1.70408e+20
-56.7169  1.55572e+20
-56.5996  1.42765e+20
-56.4823  1.32981e+20
-56.365  1.26876e+20
-56.2477  1.2471e+20
-56.1303  1.2631e+20
-56.013  1.31014e+20
-55.8957  1.38042e+20
-55.7784  1.46434e+20
-55.6611  1.55394e+20
-55.5438  1.64257e+20
-55.4265  1.72483e+20
-55.3092  1.79815e+20
-55.1919  1.86129e+20
-55.0746  1.91368e+20
-54.9573  1.95565e+20
-54.84  1.98773e+20
-54.7227  2.01321e+20
-54.6054  2.03552e+20
-54.4881  2.05978e+20
-54.3708  2.09163e+20
-54.2535  2.13635e+20
-54.1362  2.19718e+20
-54.0189  2.2737e+20
-53.9016  2.36314e+20
-53.7842  2.4567e+20
-53.6669  2.54659e+20
-53.5496  2.62216e+20
-53.4323  2.67517e+20
-53.315  2.70151e+20
-53.1977  2.70127e+20
-53.0804  2.67892e+20
-52.9631  2.64278e+20
-52.8458  2.60398e+20
-52.7285  2.57199e+20
-52.6112  2.55576e+20
-52.4939  2.55998e+20
-52.3766  2.58754e+20
-52.2593  2.63616e+20
-52.142  2.70196e+20
-52.0247  2.78047e+20
-51.9074  2.86496e+20
-51.7901  2.95021e+20
-51.6728  3.03143e+20
-51.5555  3.10477e+20
-51.4381  3.16866e+20
-51.3208  3.22158e+20
-51.2035  3.26652e+20
-51.0862  3.30623e+20
-50.9689  3.34694e+20
-50.8516  3.39478e+20
-50.7343  3.45565e+20
-50.617  3.53413e+20
-50.4997  3.6328e+20
-50.3824  3.74868e+20
-50.2651  3.87663e+20
-50.1478  4.00667e+20
-50.0305  4.12873e+20
-49.9132  4.22994e+20
-49.7959  4.30137e+20
-49.6786  4.3353e+20
-49.5613  4.32944e+20
-49.444  4.28657e+20
-49.3267  4.21325e+20
-49.2094  4.11734e+20
-49.092  4.0104e+20
-48.9747  3.90267e+20
-48.8574  3.80452e+20
-48.7401  3.72133e+20
-48.6228  3.65715e+20
-48.5055  3.61211e+20
-48.3882  3.58061e+20
-48.2709  3.55733e+20
-48.1536  3.53412e+20
-48.0363  3.50147e+20
-47.919  3.45257e+20
-47.8017  3.38245e+20
-47.6844  3.29062e+20
-47.5671  3.18026e+20
-47.4498  3.05909e+20
-47.3325  2.9385e+20
-47.2152  2.83164e+20
-47.0979  2.75278e+20
-46.9806  2.71508e+20
-46.8633  2.72983e+20
-46.7459  2.80275e+20
-46.6286  2.9385e+20
-46.5113  3.13533e+20
-46.394  3.38992e+20
-46.2767  3.6926e+20
-46.1594  4.03109e+20
-46.0421  4.39054e+20
-45.9248  4.75238e+20
-45.8075  5.09589e+20
-45.6902  5.40065e+20
-45.5729  5.64598e+20
-45.4556  5.81763e+20
-45.3383  5.90538e+20
-45.221  5.9085e+20
-45.1037  5.83355e+20
-44.9864  5.6955e+20
-44.8691  5.51684e+20
-44.7518  5.32423e+20
-44.6345  5.14283e+20
-44.5172  4.99304e+20
-44.3998  4.89181e+20
-44.2825  4.84402e+20
-44.1652  4.84921e+20
-44.0479  4.89694e+20
-43.9306  4.97344e+20
-43.8133  5.06163e+20
-43.696  5.14632e+20
-43.5787  5.21495e+20
-43.4614  5.26004e+20
-43.3441  5.28033e+20
-43.2268  5.27905e+20
-43.1095  5.26445e+20
-42.9922  5.24737e+20
-42.8749  5.23975e+20
-42.7576  5.25236e+20
-42.6403  5.29257e+20
-42.523  5.36505e+20
-42.4057  5.46704e+20
-42.2884  5.59354e+20
-42.171  5.73342e+20
-42.0537  5.86985e+20
-41.9364  5.98836e+20
-41.8191  6.07013e+20
-41.7018  6.10433e+20
-41.5845  6.08066e+20
-41.4672  5.99801e+20
-41.3499  5.86124e+20
-41.2326  5.68146e+20
-41.1153  5.47407e+20
-40.998  5.25665e+20
-40.8807  5.0459e+20
-40.7634  4.85875e+20
-40.6461  4.70428e+20
-40.5288  4.59079e+20
-40.4115  4.51649e+20
-40.2942  4.47978e+20
-40.1769  4.47121e+20
-40.0596  4.48145e+20
-39.9423  4.49895e+20
-39.825  4.51292e+20
-39.7076  4.51472e+20
-39.5903  4.49718e+20
-39.473  4.45746e+20
-39.3557  4.39839e+20
-39.2384  4.32579e+20
-39.1211  4.25012e+20
-39.0038  4.18581e+20
-38.8865  4.14589e+20
-38.7692  4.14254e+20
-38.6519  4.18458e+20
-38.5346  4.27576e+20
-38.4173  4.4126e+20
-38.3  4.58651e+20
-38.1827  4.78452e+20
-38.0654  4.99266e+20
-37.9481  5.19601e+20
-37.8308  5.38434e+20
-37.7135  5.54909e+20
-37.5962  5.68831e+20
-37.4789  5.80232e+20
-37.3615  5.89629e+20
-37.2442  5.97549e+20
-37.1269  6.04569e+20
-37.0096  6.11421e+20
-36.8923  6.18731e+20
-36.775  6.2721e+20
-36.6577  6.3749e+20
-36.5404  6.50197e+20
-36.4231  6.65768e+20
-36.3058  6.84179e+20
-36.1885  7.05162e+20
-36.0712  7.27706e+20
-35.9539  7.50421e+20
-35.8366  7.71414e+20
-35.7193  7.88795e+20
-35.602  8.01176e+20
-35.4847  8.07245e+20
-35.3674  8.06817e+20
-35.2501  8.00633e+20
-35.1328  7.90278e+20
-35.0154  7.77811e+20
-34.8981  7.65532e+20
-34.7808  7.55617e+20
-34.6635  7.49836e+20
-34.5462  7.49106e+20
-34.4289  7.53697e+20
-34.3116  7.63153e+20
-34.1943  7.7646e+20
-34.077  7.92257e+20
-33.9597  8.0907e+20
-33.8424  8.25594e+20
-33.7251  8.40692e+20
-33.6078  8.5353e+20
-33.4905  8.63636e+20
-33.3732  8.70929e+20
-33.2559  8.75812e+20
-33.1386  8.79028e+20
-33.0213  8.81663e+20
-32.904  8.84877e+20
-32.7867  8.90007e+20
-32.6693  8.98307e+20
-32.552  9.10591e+20
-32.4347  9.27241e+20
-32.3174  9.48214e+20
-32.2001  9.72929e+20
-32.0828  1.00048e+21
-31.9655  1.02962e+21
-31.8482  1.0592e+21
-31.7309  1.08818e+21
-31.6136  1.11572e+21
-31.4963  1.1413e+21
-31.379  1.16458e+21
-31.2617  1.18578e+21
-31.1444  1.20483e+21
-31.0271  1.22213e+21
-30.9098  1.23822e+21
-30.7925  1.25341e+21
-30.6752  1.26822e+21
-30.5579  1.28324e+21
-30.4406  1.29883e+21
-30.3232  1.31532e+21
-30.2059  1.33256e+21
-30.0886  1.35048e+21
-29.9713  1.36856e+21
-29.854  1.38625e+21
-29.7367  1.40278e+21
-29.6194  1.41755e+21
-29.5021  1.43018e+21
-29.3848  1.44059e+21
-29.2675  1.44895e+21
-29.1502  1.45572e+21
-29.0329  1.46152e+21
-28.9156  1.46718e+21
-28.7983  1.47322e+21
-28.681  1.48036e+21
-28.5637  1.4892e+21
-28.4464  1.50008e+21
-28.3291  1.5133e+21
-28.2118  1.52916e+21
-28.0944  1.54784e+21
-27.9771  1.56949e+21
-27.8598  1.59413e+21
-27.7425  1.62163e+21
-27.6252  1.65206e+21
-27.5079  1.68526e+21
-27.3906  1.72118e+21
-27.2733  1.75991e+21
-27.156  1.80149e+21
-27.0387  1.84615e+21
-26.9214  1.89399e+21
-26.8041  1.94471e+21
-26.6868  1.99809e+21
-26.5695  2.05324e+21
-26.4522  2.10896e+21
-26.3349  2.16374e+21
-26.2176  2.21608e+21
-26.1003  2.26421e+21
-25.983  2.30717e+21
-25.8657  2.34432e+21
-25.7483  2.37575e+21
-25.631  2.4026e+21
-25.5137  2.4261e+21
-25.3964  2.44873e+21
-25.2791  2.47274e+21
-25.1618  2.50079e+21
-25.0445  2.53483e+21
-24.9272  2.57678e+21
-24.8099  2.62732e+21
-24.6926  2.68664e+21
-24.5753  2.75352e+21
-24.458  2.82614e+21
-24.3407  2.90147e+21
-24.2234  2.97617e+21
-24.1061  3.04621e+21
-23.9888  3.10796e+21
-23.8715  3.15816e+21
-23.7542  3.1944e+21
-23.6369  3.21538e+21
-23.5196  3.221e+21
-23.4023  3.21292e+21
-23.2849  3.19368e+21
-23.1676  3.16693e+21
-23.0503  3.13704e+21
-22.933  3.10891e+21
-22.8157  3.08731e+21
-22.6984  3.07684e+21
-22.5811  3.08141e+21
-22.4638  3.10422e+21
-22.3465  3.14706e+21
-22.2292  3.21073e+21
-22.1119  3.29439e+21
-21.9946  3.39629e+21
-21.8773  3.51296e+21
-21.76  3.64031e+21
-21.6427  3.7736e+21
-21.5254  3.90825e+21
-21.4081  4.03955e+21
-21.2908  4.16407e+21
-21.1735  4.2795e+21
-21.0561  4.38493e+21
-20.9388  4.48133e+21
-20.8215  4.57023e+21
-20.7042  4.65479e+21
-20.5869  4.73828e+21
-20.4696  4.8243e+21
-20.3523  4.91547e+21
-20.235  5.01415e+21
-20.1177  5.12069e+21
-20.0004  5.23472e+21
-19.8831  5.35453e+21
-19.7658  5.47686e+21
-19.6485  5.59776e+21
-19.5312  5.71333e+21
-19.4139  5.81887e+21
-19.2966  5.91085e+21
-19.1793  5.98653e+21
-19.062  6.0446e+21
-18.9447  6.08486e+21
-18.8274  6.10859e+21
-18.71  6.11918e+21
-18.5927  6.12028e+21
-18.4754  6.11635e+21
-18.3581  6.11218e+21
-18.2408  6.11181e+21
-18.1235  6.11904e+21
-18.0062  6.13613e+21
-17.8889  6.16413e+21
-17.7716  6.20358e+21
-17.6543  6.25258e+21
-17.537  6.30961e+21
-17.4197  6.37194e+21
-17.3024  6.43715e+21
-17.1851  6.50266e+21
-17.0678  6.56646e+21
-16.9505  6.62758e+21
-16.8332  6.68602e+21
-16.7159  6.74239e+21
-16.5986  6.79816e+21
-16.4813  6.85572e+21
-16.364  6.91807e+21
-16.2466  6.98812e+21
-16.1293  7.06872e+21
-16.012  7.16153e+21
-15.8947  7.26768e+21
-15.7774  7.38705e+21
-15.6601  7.518e+21
-15.5428  7.65785e+21
-15.4255  7.80224e+21
-15.3082  7.94679e+21
-15.1909  8.08764e+21
-15.0736  8.21946e+21
-14.9563  8.33886e+21
-14.839  8.44386e+21
-14.7217  8.53283e+21
-14.6044  8.60618e+21
-14.4871  8.66581e+21
-14.3698  8.71467e+21
-14.2525  8.75621e+21
-14.1352  8.79435e+21
-14.0178  8.83399e+21
-13.9005  8.87854e+21
-13.7832  8.93083e+21
-13.6659  8.9932e+21
-13.5486  9.06541e+21
-13.4313  9.147e+21
-13.314  9.2351e+21
-13.1967  9.326e+21
-13.0794  9.41582e+21
-12.9621  9.49903e+21
-12.8448  9.57201e+21
-12.7275  9.63096e+21
-12.6102  9.67451e+21
-12.4929  9.70237e+21
-12.3756  9.71595e+21
-12.2583  9.71941e+21
-12.141  9.71791e+21
-12.0237  9.71711e+21
-11.9064  9.72317e+21
-11.7891  9.74199e+21
-11.6718  9.7787e+21
-11.5544  9.83686e+21
-11.4371  9.91914e+21
-11.3198  1.00247e+22
-11.2025  1.01525e+22
-11.0852  1.02987e+22
-10.9679  1.04582e+22
-10.8506  1.06246e+22
-10.7333  1.07905e+22
-10.616  1.09486e+22
-10.4987  1.10932e+22
-10.3814  1.12173e+22
-10.2641  1.13174e+22
-10.1468  1.13912e+22
-10.0295  1.14393e+22
-9.91217  1.14633e+22
-9.79487  1.1468e+22
-9.67756  1.14592e+22
-9.56026  1.14437e+22
-9.44295  1.14284e+22
-9.32565  1.14212e+22
-9.20834  1.14276e+22
-9.09104  1.14528e+22
-8.97373  1.15008e+22
-8.85643  1.15724e+22
-8.73913  1.16677e+22
-8.62182  1.17844e+22
-8.50452  1.19187e+22
-8.38721  1.2066e+22
-8.26991  1.22195e+22
-8.1526  1.23742e+22
-8.03529  1.25234e+22
-7.91799  1.26622e+22
-7.80069  1.27862e+22
-7.68338  1.28918e+22
-7.56608  1.29783e+22
-7.44877  1.30456e+22
-7.33146  1.30948e+22
-7.21416  1.31283e+22
-7.09685  1.31492e+22
-6.97955  1.31609e+22
-6.86224  1.31672e+22
-6.74494  1.31729e+22
-6.62763  1.31797e+22
-6.51033  1.3191e+22
-6.39302  1.32084e+22
-6.27572  1.32329e+22
-6.15842  1.32644e+22
-6.04111  1.33022e+22
-5.92381  1.33447e+22
-5.8065  1.33912e+22
-5.68919  1.34388e+22
-5.57189  1.34866e+22
-5.45458  1.35326e+22
-5.33728  1.35768e+22
-5.21997  1.36179e+22
-5.10267  1.36566e+22
-4.98536  1.36929e+22
-4.86806  1.37278e+22
-4.75075  1.37619e+22
-4.63345  1.37971e+22
-4.51614  1.38338e+22
-4.39884  1.38734e+22
-4.28154  1.39174e+22
-4.16423  1.39658e+22
-4.04692  1.40191e+22
-3.92962  1.4077e+22
-3.81231  1.41391e+22
-3.69501  1.42042e+22
-3.5777  1.42702e+22
-3.4604  1.43358e+22
-3.34309  1.43984e+22
-3.22579  1.44564e+22
-3.10849  1.45075e+22
-2.99118  1.45504e+22
-2.87387  1.45844e+22
-2.75657  1.46087e+22
-2.63926  1.46239e+22
-2.52196  1.46304e+22
-2.40465  1.46291e+22
-2.28735  1.4621e+22
-2.17005  1.46075e+22
-2.05274  1.45909e+22
-1.93544  1.45714e+22
-1.81813  1.45513e+22
-1.70083  1.45317e+22
-1.58352  1.45141e+22
-1.46622  1.44996e+22
-1.34891  1.44897e+22
-1.2316  1.4485e+22
-1.1143  1.44865e+22
-0.996995  1.44939e+22
-0.87969  1.45073e+22
-0.762385  1.45255e+22
-0.64508  1.45474e+22
-0.527775  1.45709e+22
-0.41047  1.45935e+22
-0.293165  1.4613e+22
-0.17586  1.46271e+22
-0.058555  1.46345e+22
0.05875  1.46342e+22
0.176055  1.4626e+22
0.29336  1.46108e+22
0.410665  1.45908e+22
0.52797  1.45675e+22
0.645275  1.45435e+22
0.76258  1.45208e+22
0.879885  1.4502e+22
0.99719  1.44878e+22
1.1145  1.44796e+22
1.2318  1.44775e+22
1.3491  1.44815e+22
1.46641  1.44906e+22
1.58371  1.45039e+22
1.70102  1.45204e+22
1.81832  1.4539e+22
1.93563  1.45576e+22
2.05294  1.45757e+22
2.17024  1.45916e+22
2.28754  1.46035e+22
2.40485  1.46102e+22
2.52216  1.46102e+22
2.63946  1.46027e+22
2.75677  1.45861e+22
2.87407  1.45606e+22
2.99137  1.45255e+22
3.10868  1.44814e+22
3.22599  1.44294e+22
3.34329  1.4371e+22
3.4606  1.4308e+22
3.5779  1.42421e+22
3.69521  1.41754e+22
3.81251  1.41104e+22
3.92982  1.4048e+22
4.04712  1.39898e+22
4.16443  1.39366e+22
4.28173  1.38881e+22
4.39903  1.38441e+22
4.51634  1.3804e+22
4.63364  1.37671e+22
4.75095  1.37317e+22
4.86825  1.36968e+22
4.98556  1.36613e+22
5.10286  1.36243e+22
5.22017  1.35851e+22
5.33748  1.35431e+22
5.45478  1.34983e+22
5.57209  1.34515e+22
5.68939  1.34031e+22
5.8067  1.33548e+22
5.924  1.33081e+22
6.0413  1.32651e+22
6.15861  1.32269e+22
6.27591  1.3195e+22
6.39322  1.31703e+22
6.51052  1.31528e+22
6.62783  1.31408e+22
6.74514  1.31333e+22
6.86244  1.31276e+22
6.97975  1.31201e+22
7.09705  1.31076e+22
7.21436  1.30857e+22
7.33166  1.30512e+22
7.44897  1.30008e+22
7.56627  1.29325e+22
7.68358  1.28445e+22
7.80088  1.27374e+22
7.91819  1.26125e+22
8.03549  1.2473e+22
8.1528  1.23233e+22
8.2701  1.21682e+22
8.38741  1.20139e+22
8.50471  1.18669e+22
8.62202  1.17324e+22
8.73932  1.16159e+22
8.85662  1.1521e+22
8.97393  1.14496e+22
9.09123  1.14019e+22
9.20854  1.13765e+22
9.32584  1.13702e+22
9.44315  1.13772e+22
9.56045  1.13916e+22
9.67776  1.14065e+22
9.79506  1.14141e+22
9.91237  1.14082e+22
10.0297  1.13828e+22
10.147  1.13336e+22
10.2643  1.12586e+22
10.3816  1.11573e+22
10.4989  1.10325e+22
10.6162  1.08876e+22
10.7335  1.07289e+22
10.8508  1.05627e+22
10.9681  1.03967e+22
11.0854  1.02381e+22
11.2027  1.00929e+22
11.32  9.96596e+21
11.4373  9.86116e+21
11.5546  9.78016e+21
11.6719  9.72276e+21
11.7893  9.68709e+21
11.9066  9.66886e+21
12.0239  9.66302e+21
12.1412  9.66414e+21
12.2585  9.66563e+21
12.3758  9.6615e+21
12.4931  9.64707e+21
12.6104  9.61844e+21
12.7277  9.57425e+21
12.845  9.51452e+21
12.9623  9.44054e+21
13.0796  9.35658e+21
13.1969  9.26645e+21
13.3142  9.17495e+21
13.4315  9.08653e+21
13.5488  9.00497e+21
13.6661  8.93268e+21
13.7834  8.87045e+21
13.9007  8.81817e+21
14.018  8.77418e+21
14.1354  8.73454e+21
14.2527  8.69625e+21
14.37  8.65489e+21
14.4873  8.60594e+21
14.6046  8.54617e+21
14.7219  8.47252e+21
14.8392  8.38349e+21
14.9565  8.27865e+21
15.0738  8.15871e+21
15.1911  8.02697e+21
15.3084  7.88619e+21
15.4257  7.74133e+21
15.543  7.5967e+21
15.6603  7.45715e+21
15.7776  7.32659e+21
15.8949  7.20749e+21
16.0122  7.10143e+21
16.1295  7.0087e+21
16.2468  6.92833e+21
16.3641  6.85839e+21
16.4815  6.79633e+21
16.5988  6.73889e+21
16.7161  6.68304e+21
16.8334  6.62721e+21
16.9507  6.56903e+21
17.068  6.50807e+21
17.1853  6.44447e+21
17.3026  6.37919e+21
17.4199  6.31441e+21
17.5372  6.25265e+21
17.6545  6.19578e+21
17.7718  6.14725e+21
17.8891  6.10844e+21
18.0064  6.08072e+21
18.1237  6.0639e+21
18.241  6.05701e+21
18.3583  6.05748e+21
18.4756  6.06173e+21
18.5929  6.06568e+21
18.7102  6.06472e+21
18.8275  6.05386e+21
18.9449  6.02995e+21
19.0622  5.98972e+21
19.1795  5.93164e+21
19.2968  5.85601e+21
19.4141  5.76406e+21
19.5314  5.65891e+21
19.6487  5.54393e+21
19.766  5.42336e+21
19.8833  5.30176e+21
20.0006  5.18256e+21
20.1179  5.06902e+21
20.2352  4.96293e+21
20.3525  4.86485e+21
20.4698  4.77415e+21
20.5871  4.68855e+21
20.7044  4.6053e+21
20.8217  4.52084e+21
20.939  4.43196e+21
21.0563  4.3358e+21
21.1736  4.23052e+21
21.291  4.11545e+21
21.4083  3.99121e+21
21.5256  3.86069e+21
21.6429  3.72693e+21
21.7602  3.59458e+21
21.8775  3.46831e+21
21.9948  3.35277e+21
22.1121  3.25219e+21
22.2294  3.16978e+21
22.3467  3.10718e+21
22.464  3.06547e+21
22.5813  3.04357e+21
22.6986  3.0398e+21
22.8159  3.05076e+21
22.9332  3.07272e+21
23.0505  3.10108e+21
23.1678  3.13102e+21
23.2851  3.15775e+21
23.4024  3.1769e+21
23.5198  3.1848e+21
23.6371  3.17894e+21
23.7544  3.15796e+21
23.8717  3.12169e+21
23.989  3.07155e+21
24.1063  3.01005e+21
24.2236  2.94041e+21
24.3409  2.86621e+21
24.4582  2.79147e+21
24.5755  2.71964e+21
24.6928  2.65332e+21
24.8101  2.59472e+21
24.9274  2.54479e+21
25.0447  2.50339e+21
25.162  2.46987e+21
25.2793  2.44232e+21
25.3966  2.41866e+21
25.5139  2.39625e+21
25.6312  2.37274e+21
25.7485  2.34608e+21
25.8658  2.31465e+21
25.9832  2.2777e+21
26.1005  2.23472e+21
26.2178  2.18677e+21
26.3351  2.13478e+21
26.4524  2.0803e+21
26.5697  2.02501e+21
26.687  1.97035e+21
26.8043  1.91752e+21
26.9216  1.8673e+21
27.0389  1.82011e+21
27.1562  1.77609e+21
27.2735  1.73499e+21
27.3908  1.69693e+21
27.5081  1.66156e+21
27.6254  1.62889e+21
27.7427  1.59899e+21
27.86  1.57197e+21
27.9773  1.54786e+21
28.0946  1.52665e+21
28.212  1.50838e+21
28.3293  1.49288e+21
28.4466  1.47998e+21
28.5639  1.46941e+21
28.6812  1.46082e+21
28.7985  1.45389e+21
28.9158  1.448e+21
29.0331  1.44256e+21
29.1504  1.43689e+21
29.2677  1.4303e+21
29.385  1.42208e+21
29.5023  1.41183e+21
29.6196  1.39937e+21
29.7369  1.38481e+21
29.8542  1.36858e+21
29.9715  1.35121e+21
30.0888  1.3335e+21
30.2061  1.31593e+21
30.3234  1.29899e+21
30.4407  1.28289e+21
30.558  1.26764e+21
30.6754  1.25293e+21
30.7927  1.23829e+21
30.91  1.22338e+21
31.0273  1.20759e+21
31.1446  1.19041e+21
31.2619  1.17154e+21
31.3792  1.15065e+21
31.4965  1.12747e+21
31.6138  1.10216e+21
31.7311  1.07486e+21
31.8484  1.04621e+21
31.9657  1.01691e+21
32.083  9.88194e+20
32.2003  9.61109e+20
32.3176  9.36802e+20
32.4349  9.16308e+20
32.5522  9.00064e+20
32.6695  8.88215e+20
32.7868  8.80294e+20
32.9042  8.75409e+20
33.0215  8.72465e+20
33.1388  8.70033e+20
33.2561  8.67012e+20
33.3734  8.62186e+20
33.4907  8.54925e+20
33.608  8.44965e+20
33.7253  8.32235e+20
33.8426  8.17279e+20
33.9599  8.00918e+20
34.0772  7.84303e+20
34.1945  7.68831e+20
34.3118  7.55873e+20
34.4291  7.46838e+20
34.5464  7.42621e+20
34.6637  7.43685e+20
34.781  7.49873e+20
34.8983  7.6005e+20
35.0156  7.72543e+20
35.1329  7.85197e+20
35.2503  7.95634e+20
35.3676  8.01732e+20
35.4849  8.02028e+20
35.6022  7.9596e+20
35.7195  7.83638e+20
35.8368  7.66186e+20
35.9541  7.45337e+20
36.0714  7.22746e+20
36.1887  7.0041e+20
36.306  6.79787e+20
36.4233  6.61537e+20
36.5406  6.46264e+20
36.6579  6.3379e+20
36.7752  6.23763e+20
36.8925  6.15408e+20
37.0098  6.0821e+20
37.1271  6.01468e+20
37.2444  5.94452e+20
37.3617  5.86523e+20
37.479  5.77132e+20
37.5964  5.65656e+20
37.7137  5.51686e+20
37.831  5.35153e+20
37.9483  5.16319e+20
38.0656  4.95985e+20
38.1829  4.75255e+20
38.3002  4.55657e+20
38.4175  4.38426e+20
38.5348  4.25006e+20
38.6521  4.162e+20
38.7694  4.12207e+20
38.8867  4.12789e+20
39.004  4.17002e+20
39.1213  4.23663e+20
39.2386  4.31331e+20
39.3559  4.38646e+20
39.4732  4.44609e+20
39.5905  4.48495e+20
39.7078  4.50222e+20
39.8251  4.50141e+20
39.9425  4.48694e+20
40.0598  4.4705e+20
40.1771  4.46008e+20
40.2944  4.46979e+20
40.4117  4.50793e+20
40.529  4.58338e+20
40.6463  4.69916e+20
40.7636  4.8537e+20
40.8809  5.04275e+20
40.9982  5.25383e+20
41.1155  5.4712e+20
41.2328  5.67812e+20
41.3501  5.85687e+20
41.4674  5.99196e+20
41.5847  6.0725e+20
41.702  6.09467e+20
41.8193  6.05876e+20
41.9366  5.97508e+20
42.0539  5.85558e+20
42.1712  5.71763e+20
42.2885  5.57876e+20
42.4059  5.45175e+20
42.5232  5.35033e+20
42.6405  5.27795e+20
42.7578  5.23889e+20
42.8751  5.22726e+20
42.9924  5.23513e+20
43.1097  5.25223e+20
43.227  5.26672e+20
43.3443  5.26815e+20
43.4616  5.24754e+20
43.5789  5.20148e+20
43.6962  5.13251e+20
43.8135  5.04748e+20
43.9308  4.96012e+20
44.0481  4.88428e+20
44.1654  4.8374e+20
44.2827  4.83339e+20
44.4  4.88205e+20
44.5173  4.9842e+20
44.6347  5.13373e+20
44.752  5.31647e+20
44.8693  5.50787e+20
44.9866  5.6839e+20
45.1039  5.81969e+20
45.2212  5.89253e+20
45.3385  5.88653e+20
45.4558  5.79658e+20
45.5731  5.6231e+20
45.6904  5.37578e+20
45.8077  5.07078e+20
45.925  4.72733e+20
46.0423  4.36688e+20
46.1596  4.00864e+20
46.2769  3.67176e+20
46.3942  3.37181e+20
46.5115  3.11962e+20
46.6288  2.92523e+20
46.7461  2.79174e+20
46.8634  2.72042e+20
46.9808  2.70779e+20
47.0981  2.7464e+20
47.2154  2.82604e+20
47.3327  2.93265e+20
47.45  3.05321e+20
47.5673  3.17359e+20
47.6846  3.28235e+20
47.8019  3.37329e+20
47.9192  3.44192e+20
48.0365  3.48986e+20
48.1538  3.52157e+20
48.2711  3.54451e+20
48.3884  3.56766e+20
48.5057  3.59848e+20
48.623  3.64486e+20
48.7403  3.70897e+20
48.8576  3.79258e+20
48.9749  3.89174e+20
49.0922  3.99926e+20
49.2095  4.10561e+20
49.3269  4.20088e+20
49.4442  4.27441e+20
49.5615  4.31618e+20
49.6788  4.32001e+20
49.7961  4.28537e+20
49.9134  4.21281e+20
50.0307  4.11029e+20
50.148  3.98835e+20
50.2653  3.85786e+20
50.3826  3.72987e+20
50.4999  3.61412e+20
50.6172  3.51616e+20
50.7345  3.43778e+20
50.8518  3.37712e+20
