#S 1 spectral density
#N 2
#UFWHM 36.1299
#L  abscissas [um]  spectral density
-58.5938  3.2965e+20
-58.4764  3.23088e+20
-58.3591  3.19366e+20
-58.2418  3.19639e+20
-58.1245  3.24643e+20
-58.0072  3.34762e+20
-57.8899  3.50036e+20
-57.7726  3.6981e+20
-57.6553  3.92964e+20
-57.538  4.17734e+20
-57.4207  4.4201e+20
-57.3034  4.63475e+20
-57.1861  4.79998e+20
-57.0688  4.89869e+20
-56.9515  4.92193e+20
-56.8342  4.86869e+20
-56.7169  4.74628e+20
-56.5996  4.57103e+20
-56.4823  4.36168e+20
-56.365  4.13973e+20
-56.2477  3.92703e+20
-56.1303  3.73737e+20
-56.013  3.58381e+20
-55.8957  3.47138e+20
-55.7784  3.40329e+20
-55.6611  3.37617e+20
-55.5438  3.38522e+20
-55.4265  3.42443e+20
-55.3092  3.48508e+20
-55.1919  3.55935e+20
-55.0746  3.63832e+20
-54.9573  3.71355e+20
-54.84  3.78031e+20
-54.7227  3.83512e+20
-54.6054  3.87885e+20
-54.4881  3.91418e+20
-54.3708  3.94694e+20
-54.2535  3.98545e+20
-54.1362  4.03695e+20
-54.0189  4.10468e+20
-53.9016  4.18955e+20
-53.7842  4.29022e+20
-53.6669  4.39793e+20
-53.5496  4.50505e+20
-53.4323  4.60219e+20
-53.315  4.68152e+20
-53.1977  4.73797e+20
-53.0804  4.77042e+20
-52.9631  4.77928e+20
-52.8458  4.76838e+20
-52.7285  4.74338e+20
-52.6112  4.71004e+20
-52.4939  4.67497e+20
-52.3766  4.64477e+20
-52.2593  4.62517e+20
-52.142  4.62229e+20
-52.0247  4.64024e+20
-51.9074  4.68162e+20
-51.7901  4.74591e+20
-51.6728  4.82978e+20
-51.5555  4.92585e+20
-51.4381  5.02147e+20
-51.3208  5.10531e+20
-51.2035  5.16158e+20
-51.0862  5.18004e+20
-50.9689  5.15086e+20
-50.8516  5.07103e+20
-50.7343  4.94513e+20
-50.617  4.7806e+20
-50.4997  4.59064e+20
-50.3824  4.39096e+20
-50.2651  4.19634e+20
-50.1478  4.02288e+20
-50.0305  3.87928e+20
-49.9132  3.77484e+20
-49.7959  3.71068e+20
-49.6786  3.68584e+20
-49.5613  3.69462e+20
-49.444  3.72971e+20
-49.3267  3.78022e+20
-49.2094  3.8371e+20
-49.092  3.89125e+20
-48.9747  3.93494e+20
-48.8574  3.96352e+20
-48.7401  3.97646e+20
-48.6228  3.97674e+20
-48.5055  3.96987e+20
-48.3882  3.96696e+20
-48.2709  3.97684e+20
-48.1536  4.01079e+20
-48.0363  4.07859e+20
-47.919  4.18701e+20
-47.8017  4.34062e+20
-47.6844  4.53869e+20
-47.5671  4.77715e+20
-47.4498  5.04753e+20
-47.3325  5.33678e+20
-47.2152  5.62835e+20
-47.0979  5.90289e+20
-46.9806  6.1408e+20
-46.8633  6.32268e+20
-46.7459  6.43198e+20
-46.6286  6.4589e+20
-46.5113  6.39814e+20
-46.394  6.25553e+20
-46.2767  6.04228e+20
-46.1594  5.77857e+20
-46.0421  5.48833e+20
-45.9248  5.19768e+20
-45.8075  4.92938e+20
-45.6902  4.70318e+20
-45.5729  4.53083e+20
-45.4556  4.41909e+20
-45.3383  4.36366e+20
-45.221  4.35872e+20
-45.1037  4.39182e+20
-44.9864  4.45167e+20
-44.8691  4.52419e+20
-44.7518  4.59861e+20
-44.6345  4.66737e+20
-44.5172  4.72628e+20
-44.3998  4.77362e+20
-44.2825  4.81178e+20
-44.1652  4.84412e+20
-44.0479  4.87887e+20
-43.9306  4.92314e+20
-43.8133  4.98576e+20
-43.696  5.07609e+20
-43.5787  5.19947e+20
-43.4614  5.35799e+20
-43.3441  5.55126e+20
-43.2268  5.77311e+20
-43.1095  6.01401e+20
-42.9922  6.26039e+20
-42.8749  6.49921e+20
-42.7576  6.71808e+20
-42.6403  6.90647e+20
-42.523  7.05948e+20
-42.4057  7.17392e+20
-42.2884  7.25302e+20
-42.171  7.30159e+20
-42.0537  7.32775e+20
-41.9364  7.33952e+20
-41.8191  7.34285e+20
-41.7018  7.34474e+20
-41.5845  7.34903e+20
-41.4672  7.35928e+20
-41.3499  7.37598e+20
-41.2326  7.40145e+20
-41.1153  7.43443e+20
-40.998  7.47407e+20
-40.8807  7.51904e+20
-40.7634  7.56745e+20
-40.6461  7.61756e+20
-40.5288  7.66683e+20
-40.4115  7.71446e+20
-40.2942  7.76121e+20
-40.1769  7.80583e+20
-40.0596  7.84856e+20
-39.9423  7.89193e+20
-39.825  7.9353e+20
-39.7076  7.97925e+20
-39.5903  8.02216e+20
-39.473  8.06288e+20
-39.3557  8.10165e+20
-39.2384  8.13696e+20
-39.1211  8.1698e+20
-39.0038  8.2029e+20
-38.8865  8.23795e+20
-38.7692  8.27684e+20
-38.6519  8.32226e+20
-38.5346  8.37422e+20
-38.4173  8.43172e+20
-38.3  8.49367e+20
-38.1827  8.55806e+20
-38.0654  8.62623e+20
-37.9481  8.70002e+20
-37.8308  8.78623e+20
-37.7135  8.88955e+20
-37.5962  9.01714e+20
-37.4789  9.17393e+20
-37.3615  9.36142e+20
-37.2442  9.57421e+20
-37.1269  9.80261e+20
-37.0096  1.00331e+21
-36.8923  1.02511e+21
-36.775  1.04425e+21
-36.6577  1.05975e+21
-36.5404  1.0713e+21
-36.4231  1.07922e+21
-36.3058  1.08433e+21
-36.1885  1.08798e+21
-36.0712  1.09146e+21
-35.9539  1.0962e+21
-35.8366  1.10299e+21
-35.7193  1.11241e+21
-35.602  1.12471e+21
-35.4847  1.1395e+21
-35.3674  1.15644e+21
-35.2501  1.175e+21
-35.1328  1.1946e+21
-35.0154  1.21471e+21
-34.8981  1.23449e+21
-34.7808  1.25344e+21
-34.6635  1.27096e+21
-34.5462  1.2865e+21
-34.4289  1.29972e+21
-34.3116  1.31068e+21
-34.1943  1.31964e+21
-34.077  1.32738e+21
-33.9597  1.33485e+21
-33.8424  1.34313e+21
-33.7251  1.3533e+21
-33.6078  1.36613e+21
-33.4905  1.38183e+21
-33.3732  1.40036e+21
-33.2559  1.42114e+21
-33.1386  1.44339e+21
-33.0213  1.4661e+21
-32.904  1.48823e+21
-32.7867  1.50923e+21
-32.6693  1.52854e+21
-32.552  1.54603e+21
-32.4347  1.56173e+21
-32.3174  1.57608e+21
-32.2001  1.58971e+21
-32.0828  1.60344e+21
-31.9655  1.61824e+21
-31.8482  1.63506e+21
-31.7309  1.65498e+21
-31.6136  1.67875e+21
-31.4963  1.70701e+21
-31.379  1.73988e+21
-31.2617  1.77724e+21
-31.1444  1.81821e+21
-31.0271  1.86169e+21
-30.9098  1.9066e+21
-30.7925  1.95118e+21
-30.6752  1.99432e+21
-30.5579  2.035e+21
-30.4406  2.07267e+21
-30.3232  2.10742e+21
-30.2059  2.1393e+21
-30.0886  2.16919e+21
-29.9713  2.19813e+21
-29.854  2.22724e+21
-29.7367  2.25762e+21
-29.6194  2.29055e+21
-29.5021  2.32682e+21
-29.3848  2.36705e+21
-29.2675  2.41145e+21
-29.1502  2.4596e+21
-29.0329  2.51064e+21
-28.9156  2.56317e+21
-28.7983  2.61535e+21
-28.681  2.66524e+21
-28.5637  2.71105e+21
-28.4464  2.75134e+21
-28.3291  2.78517e+21
-28.2118  2.81225e+21
-28.0944  2.83341e+21
-27.9771  2.84968e+21
-27.8598  2.8629e+21
-27.7425  2.87495e+21
-27.6252  2.88775e+21
-27.5079  2.90304e+21
-27.3906  2.92226e+21
-27.2733  2.94649e+21
-27.156  2.97615e+21
-27.0387  3.01113e+21
-26.9214  3.05119e+21
-26.8041  3.09512e+21
-26.6868  3.14188e+21
-26.5695  3.1898e+21
-26.4522  3.23703e+21
-26.3349  3.28195e+21
-26.2176  3.3234e+21
-26.1003  3.35982e+21
-25.983  3.39075e+21
-25.8657  3.41625e+21
-25.7483  3.43673e+21
-25.631  3.45367e+21
-25.5137  3.4683e+21
-25.3964  3.48222e+21
-25.2791  3.49732e+21
-25.1618  3.51499e+21
-25.0445  3.5362e+21
-24.9272  3.56193e+21
-24.8099  3.59217e+21
-24.6926  3.62678e+21
-24.5753  3.66548e+21
-24.458  3.70723e+21
-24.3407  3.75116e+21
-24.2234  3.79633e+21
-24.1061  3.84187e+21
-23.9888  3.88735e+21
-23.8715  3.93285e+21
-23.7542  3.9789e+21
-23.6369  4.02633e+21
-23.5196  4.07628e+21
-23.4023  4.13054e+21
-23.2849  4.19015e+21
-23.1676  4.25623e+21
-23.0503  4.32909e+21
-22.933  4.40824e+21
-22.8157  4.49268e+21
-22.6984  4.58067e+21
-22.5811  4.67004e+21
-22.4638  4.75856e+21
-22.3465  4.84345e+21
-22.2292  4.92314e+21
-22.1119  4.99563e+21
-21.9946  5.06011e+21
-21.8773  5.11593e+21
-21.76  5.16306e+21
-21.6427  5.20238e+21
-21.5254  5.23516e+21
-21.4081  5.26244e+21
-21.2908  5.28577e+21
-21.1735  5.30687e+21
-21.0561  5.32688e+21
-20.9388  5.34729e+21
-20.8215  5.36864e+21
-20.7042  5.39109e+21
-20.5869  5.41452e+21
-20.4696  5.43852e+21
-20.3523  5.46182e+21
-20.235  5.48395e+21
-20.1177  5.50392e+21
-20.0004  5.52139e+21
-19.8831  5.53727e+21
-19.7658  5.55205e+21
-19.6485  5.56753e+21
-19.5312  5.58609e+21
-19.4139  5.6101e+21
-19.2966  5.64252e+21
-19.1793  5.68587e+21
-19.062  5.74266e+21
-18.9447  5.81418e+21
-18.8274  5.90106e+21
-18.71  6.00347e+21
-18.5927  6.11974e+21
-18.4754  6.2475e+21
-18.3581  6.38358e+21
-18.2408  6.52343e+21
-18.1235  6.66287e+21
-18.0062  6.79714e+21
-17.8889  6.922e+21
-17.7716  7.03427e+21
-17.6543  7.13106e+21
-17.537  7.21186e+21
-17.4197  7.27699e+21
-17.3024  7.32838e+21
-17.1851  7.36904e+21
-17.0678  7.40256e+21
-16.9505  7.43388e+21
-16.8332  7.46707e+21
-16.7159  7.50594e+21
-16.5986  7.55324e+21
-16.4813  7.61051e+21
-16.364  7.67797e+21
-16.2466  7.75446e+21
-16.1293  7.83772e+21
-16.012  7.9235e+21
-15.8947  8.00751e+21
-15.7774  8.08519e+21
-15.6601  8.15136e+21
-15.5428  8.20222e+21
-15.4255  8.23428e+21
-15.3082  8.24575e+21
-15.1909  8.23729e+21
-15.0736  8.20971e+21
-14.9563  8.16645e+21
-14.839  8.11206e+21
-14.7217  8.05192e+21
-14.6044  7.99163e+21
-14.4871  7.93676e+21
-14.3698  7.89263e+21
-14.2525  7.86299e+21
-14.1352  7.85035e+21
-14.0178  7.85697e+21
-13.9005  7.88292e+21
-13.7832  7.92724e+21
-13.6659  7.98899e+21
-13.5486  8.06521e+21
-13.4313  8.15379e+21
-13.314  8.25176e+21
-13.1967  8.35634e+21
-13.0794  8.46549e+21
-12.9621  8.57644e+21
-12.8448  8.68851e+21
-12.7275  8.80074e+21
-12.6102  8.91315e+21
-12.4929  9.02623e+21
-12.3756  9.14047e+21
-12.2583  9.25743e+21
-12.141  9.3776e+21
-12.0237  9.50153e+21
-11.9064  9.62847e+21
-11.7891  9.75709e+21
-11.6718  9.88545e+21
-11.5544  1.00107e+22
-11.4371  1.01304e+22
-11.3198  1.02401e+22
-11.2025  1.0337e+22
-11.0852  1.04183e+22
-10.9679  1.04813e+22
-10.8506  1.05246e+22
-10.7333  1.0547e+22
-10.616  1.05485e+22
-10.4987  1.05308e+22
-10.3814  1.04945e+22
-10.2641  1.04429e+22
-10.1468  1.03789e+22
-10.0295  1.03062e+22
-9.91217  1.02285e+22
-9.79487  1.01499e+22
-9.67756  1.0074e+22
-9.56026  1.00043e+22
-9.44295  9.94321e+21
-9.32565  9.89391e+21
-9.20834  9.85809e+21
-9.09104  9.83722e+21
-8.97373  9.83343e+21
-8.85643  9.84711e+21
-8.73913  9.87951e+21
-8.62182  9.93087e+21
-8.50452  1.00014e+22
-8.38721  1.0091e+22
-8.26991  1.01977e+22
-8.1526  1.03205e+22
-8.03529  1.04563e+22
-7.91799  1.06017e+22
-7.80069  1.07526e+22
-7.68338  1.09042e+22
-7.56608  1.1052e+22
-7.44877  1.11909e+22
-7.33146  1.13171e+22
-7.21416  1.14266e+22
-7.09685  1.15165e+22
-6.97955  1.15859e+22
-6.86224  1.16347e+22
-6.74494  1.16654e+22
-6.62763  1.16798e+22
-6.51033  1.16829e+22
-6.39302  1.16796e+22
-6.27572  1.16752e+22
-6.15842  1.16746e+22
-6.04111  1.16823e+22
-5.92381  1.17016e+22
-5.8065  1.17353e+22
-5.68919  1.17828e+22
-5.57189  1.18438e+22
-5.45458  1.19153e+22
-5.33728  1.19936e+22
-5.21997  1.20737e+22
-5.10267  1.215e+22
-4.98536  1.22169e+22
-4.86806  1.22691e+22
-4.75075  1.23023e+22
-4.63345  1.23135e+22
-4.51614  1.23013e+22
-4.39884  1.22663e+22
-4.28154  1.22115e+22
-4.16423  1.21403e+22
-4.04692  1.20587e+22
-3.92962  1.19722e+22
-3.81231  1.18874e+22
-3.69501  1.18102e+22
-3.5777  1.17445e+22
-3.4604  1.16944e+22
-3.34309  1.16608e+22
-3.22579  1.16436e+22
-3.10849  1.16405e+22
-2.99118  1.16487e+22
-2.87387  1.16642e+22
-2.75657  1.16826e+22
-2.63926  1.17002e+22
-2.52196  1.17134e+22
-2.40465  1.17202e+22
-2.28735  1.172e+22
-2.17005  1.17136e+22
-2.05274  1.17041e+22
-1.93544  1.16945e+22
-1.81813  1.16903e+22
-1.70083  1.16964e+22
-1.58352  1.17184e+22
-1.46622  1.17607e+22
-1.34891  1.1827e+22
-1.2316  1.19189e+22
-1.1143  1.20365e+22
-0.996995  1.21765e+22
-0.87969  1.23346e+22
-0.762385  1.25035e+22
-0.64508  1.26748e+22
-0.527775  1.28386e+22
-0.41047  1.29848e+22
-0.293165  1.31038e+22
-0.17586  1.31878e+22
-0.058555  1.3231e+22
0.05875  1.32302e+22
0.176055  1.31853e+22
0.29336  1.30996e+22
0.410665  1.29791e+22
0.52797  1.28317e+22
0.645275  1.26671e+22
0.76258  1.24948e+22
0.879885  1.23252e+22
0.99719  1.21667e+22
1.1145  1.20262e+22
1.2318  1.19088e+22
1.3491  1.18168e+22
1.46641  1.17506e+22
1.58371  1.1708e+22
1.70102  1.16859e+22
1.81832  1.16796e+22
1.93563  1.16836e+22
2.05294  1.16927e+22
2.17024  1.17022e+22
2.28754  1.1708e+22
2.40485  1.17078e+22
2.52216  1.17004e+22
2.63946  1.16869e+22
2.75677  1.1669e+22
2.87407  1.16501e+22
2.99137  1.16342e+22
3.10868  1.16256e+22
3.22599  1.16281e+22
3.34329  1.16452e+22
3.4606  1.16786e+22
3.5779  1.17287e+22
3.69521  1.17936e+22
3.81251  1.18705e+22
3.92982  1.19544e+22
4.04712  1.20402e+22
4.16443  1.21212e+22
4.28173  1.21915e+22
4.39903  1.22455e+22
4.51634  1.22794e+22
4.63364  1.2291e+22
4.75095  1.22791e+22
4.86825  1.22452e+22
4.98556  1.21924e+22
5.10286  1.21251e+22
5.22017  1.20487e+22
5.33748  1.19684e+22
5.45478  1.189e+22
5.57209  1.18186e+22
5.68939  1.17577e+22
5.8067  1.17101e+22
5.924  1.16767e+22
6.0413  1.16571e+22
6.15861  1.16492e+22
6.27591  1.16494e+22
6.39322  1.16534e+22
6.51052  1.1656e+22
6.62783  1.16517e+22
6.74514  1.16361e+22
6.86244  1.16047e+22
6.97975  1.15544e+22
7.09705  1.14839e+22
7.21436  1.13924e+22
7.33166  1.12821e+22
7.44897  1.11551e+22
7.56627  1.10152e+22
7.68358  1.08667e+22
7.80088  1.07145e+22
7.91819  1.05633e+22
8.03549  1.04179e+22
8.1528  1.02824e+22
8.2701  1.01599e+22
8.38741  1.00533e+22
8.50471  9.96445e+21
8.62202  9.89415e+21
8.73932  9.84331e+21
8.85662  9.8115e+21
8.97393  9.79815e+21
9.09123  9.80233e+21
9.20854  9.82315e+21
9.32584  9.85934e+21
9.44315  9.90848e+21
9.56045  9.96906e+21
9.67776  1.00384e+22
9.79506  1.01136e+22
9.91237  1.01915e+22
10.0297  1.0268e+22
10.147  1.03397e+22
10.2643  1.04027e+22
10.3816  1.0453e+22
10.4989  1.0488e+22
10.6162  1.05049e+22
10.7335  1.0502e+22
10.8508  1.04785e+22
10.9681  1.04345e+22
11.0854  1.03709e+22
11.2027  1.02893e+22
11.32  1.01916e+22
11.4373  1.00816e+22
11.5546  9.96205e+21
11.6719  9.83643e+21
11.7893  9.70821e+21
11.9066  9.57933e+21
12.0239  9.45255e+21
12.1412  9.32894e+21
12.2585  9.20867e+21
12.3758  9.09151e+21
12.4931  8.97694e+21
12.6104  8.86373e+21
12.7277  8.75122e+21
12.845  8.6391e+21
12.9623  8.52674e+21
13.0796  8.41569e+21
13.1969  8.30683e+21
13.3142  8.20229e+21
13.4315  8.10455e+21
13.5488  8.01643e+21
13.6661  7.94061e+21
13.7834  7.87951e+21
13.9007  7.83556e+21
14.018  7.81058e+21
14.1354  7.80442e+21
14.2527  7.81743e+21
14.37  7.8476e+21
14.4873  7.89203e+21
14.6046  7.94697e+21
14.7219  8.00711e+21
14.8392  8.06732e+21
14.9565  8.1214e+21
15.0738  8.16398e+21
15.1911  8.19119e+21
15.3084  8.19918e+21
15.4257  8.1869e+21
15.543  8.15412e+21
15.6603  8.10278e+21
15.7776  8.03636e+21
15.8949  7.95867e+21
16.0122  7.87415e+21
16.1295  7.78821e+21
16.2468  7.70504e+21
16.3641  7.62841e+21
16.4815  7.56101e+21
16.5988  7.50357e+21
16.7161  7.4561e+21
16.8334  7.41722e+21
16.9507  7.38373e+21
17.068  7.35188e+21
17.1853  7.3177e+21
17.3026  7.27646e+21
17.4199  7.22459e+21
17.5372  7.15913e+21
17.6545  7.07762e+21
17.7718  6.98049e+21
17.8891  6.86812e+21
18.0064  6.7432e+21
18.1237  6.60898e+21
18.241  6.46997e+21
18.3583  6.33057e+21
18.4756  6.19521e+21
18.5929  6.06811e+21
18.7102  5.9529e+21
18.8275  5.85129e+21
18.9449  5.76528e+21
19.0622  5.69461e+21
19.1795  5.63859e+21
19.2968  5.59585e+21
19.4141  5.56399e+21
19.5314  5.54056e+21
19.6487  5.52243e+21
19.766  5.50704e+21
19.8833  5.49257e+21
20.0006  5.47676e+21
20.1179  5.45917e+21
20.2352  5.439e+21
20.3525  5.41683e+21
20.4698  5.39352e+21
20.5871  5.36968e+21
20.7044  5.34602e+21
20.8217  5.3233e+21
20.939  5.30182e+21
21.0563  5.2813e+21
21.1736  5.26114e+21
21.291  5.23997e+21
21.4083  5.21625e+21
21.5256  5.18899e+21
21.6429  5.15621e+21
21.7602  5.11667e+21
21.8775  5.06942e+21
21.9948  5.01359e+21
22.1121  4.9493e+21
22.2294  4.87714e+21
22.3467  4.7976e+21
22.464  4.71303e+21
22.5813  4.62501e+21
22.6986  4.53615e+21
22.8159  4.44864e+21
22.9332  4.36475e+21
23.0505  4.28621e+21
23.1678  4.21388e+21
23.2851  4.1483e+21
23.4024  4.08924e+21
23.5198  4.03532e+21
23.6371  3.98565e+21
23.7544  3.93855e+21
23.8717  3.89273e+21
23.989  3.84741e+21
24.1063  3.8021e+21
24.2236  3.75688e+21
24.3409  3.71202e+21
24.4582  3.66836e+21
24.5755  3.62704e+21
24.6928  3.58868e+21
24.8101  3.55433e+21
24.9274  3.52428e+21
25.0447  3.49895e+21
25.162  3.4781e+21
25.2793  3.46081e+21
25.3966  3.44594e+21
25.5139  3.43203e+21
25.6312  3.41751e+21
25.7485  3.40073e+21
25.8658  3.38029e+21
25.9832  3.35494e+21
26.1005  3.32397e+21
26.2178  3.28774e+21
26.3351  3.24663e+21
26.4524  3.20178e+21
26.5697  3.1548e+21
26.687  3.10726e+21
26.8043  3.06091e+21
26.9216  3.01744e+21
27.0389  2.97774e+21
27.1562  2.94316e+21
27.2735  2.91384e+21
27.3908  2.89e+21
27.5081  2.87097e+21
27.6254  2.85582e+21
27.7427  2.84318e+21
27.86  2.8312e+21
27.9773  2.81804e+21
28.0946  2.80177e+21
28.212  2.78059e+21
28.3293  2.75341e+21
28.4466  2.71973e+21
28.5639  2.67951e+21
28.6812  2.63388e+21
28.7985  2.58428e+21
28.9158  2.53249e+21
29.0331  2.48047e+21
29.1504  2.42993e+21
29.2677  2.3824e+21
29.385  2.33859e+21
29.5023  2.29892e+21
29.6196  2.26316e+21
29.7369  2.23079e+21
29.8542  2.20095e+21
29.9715  2.17233e+21
30.0888  2.14383e+21
30.2061  2.11423e+21
30.3234  2.08254e+21
30.4407  2.0482e+21
30.558  2.01082e+21
30.6754  1.97048e+21
30.7927  1.92752e+21
30.91  1.88327e+21
31.0273  1.83887e+21
31.1446  1.7956e+21
31.2619  1.75501e+21
31.3792  1.71805e+21
31.4965  1.68551e+21
31.6138  1.65765e+21
31.7311  1.63412e+21
31.8484  1.61457e+21
31.9657  1.59796e+21
32.083  1.58347e+21
32.2003  1.56994e+21
32.3176  1.55647e+21
32.4349  1.54237e+21
32.5522  1.52683e+21
32.6695  1.5096e+21
32.7868  1.49055e+21
32.9042  1.46977e+21
33.0215  1.44782e+21
33.1388  1.42545e+21
33.2561  1.40348e+21
33.3734  1.38296e+21
33.4907  1.36471e+21
33.608  1.34927e+21
33.7253  1.33675e+21
33.8426  1.32671e+21
33.9599  1.31859e+21
34.0772  1.31122e+21
34.1945  1.3036e+21
34.3118  1.29467e+21
34.4291  1.28385e+21
34.5464  1.27077e+21
34.6637  1.25539e+21
34.781  1.23809e+21
34.8983  1.21936e+21
35.0156  1.1998e+21
35.1329  1.18007e+21
35.2503  1.16079e+21
35.3676  1.14256e+21
35.4849  1.12581e+21
35.6022  1.11133e+21
35.7195  1.09939e+21
35.8368  1.09012e+21
35.9541  1.08351e+21
36.0714  1.07894e+21
36.1887  1.07551e+21
36.306  1.07195e+21
36.4233  1.06681e+21
36.5406  1.05895e+21
36.6579  1.04744e+21
36.7752  1.03203e+21
36.8925  1.01307e+21
37.0098  9.91514e+20
37.1271  9.68856e+20
37.2444  9.46401e+20
37.3617  9.25613e+20
37.479  9.07456e+20
37.5964  8.92164e+20
37.7137  8.7986e+20
37.831  8.69899e+20
37.9483  8.61686e+20
38.0656  8.54452e+20
38.1829  8.47756e+20
38.3002  8.41471e+20
38.4175  8.35358e+20
38.5348  8.29581e+20
38.6521  8.24419e+20
38.7694  8.19871e+20
38.8867  8.15988e+20
39.004  8.12463e+20
39.1213  8.09253e+20
39.2386  8.05949e+20
39.3559  8.02487e+20
39.4732  7.98784e+20
39.5905  7.94766e+20
39.7078  7.90645e+20
39.8251  7.86494e+20
39.9425  7.82361e+20
40.0598  7.78193e+20
40.1771  7.74002e+20
40.2944  7.69763e+20
40.4117  7.65293e+20
40.529  7.60634e+20
40.6463  7.55816e+20
40.7636  7.50862e+20
40.8809  7.461e+20
40.9982  7.41735e+20
41.1155  7.37801e+20
41.2328  7.34611e+20
41.3501  7.3221e+20
41.4674  7.30693e+20
41.5847  7.29809e+20
41.702  7.29542e+20
41.8193  7.29571e+20
41.9366  7.29365e+20
42.0539  7.28337e+20
42.1712  7.25874e+20
42.2885  7.21057e+20
42.4059  7.13231e+20
42.5232  7.01843e+20
42.6405  6.86602e+20
42.7578  6.67747e+20
42.8751  6.45888e+20
42.9924  6.22131e+20
43.1097  5.97539e+20
43.227  5.7361e+20
43.3443  5.51626e+20
43.4616  5.32441e+20
43.5789  5.16777e+20
43.6962  5.04627e+20
43.8135  4.95829e+20
43.9308  4.89664e+20
44.0481  4.85381e+20
44.1654  4.82082e+20
44.2827  4.78835e+20
44.4  4.75098e+20
44.5173  4.70479e+20
44.6347  4.64622e+20
44.752  4.5774e+20
44.8693  4.50305e+20
44.9866  4.43188e+20
45.1039  4.37276e+20
45.2212  4.3408e+20
45.3385  4.34741e+20
45.4558  4.40282e+20
45.5731  4.51669e+20
45.6904  4.69022e+20
45.8077  4.91679e+20
45.925  5.18505e+20
46.0423  5.47551e+20
46.1596  5.76485e+20
46.2769  6.02616e+20
46.3942  6.2371e+20
46.5115  6.37737e+20
46.6288  6.43522e+20
46.7461  6.40566e+20
46.8634  6.29401e+20
46.9808  6.11143e+20
47.0981  5.87246e+20
47.2154  5.59837e+20
47.3327  5.30712e+20
47.45  5.01982e+20
47.5673  4.75191e+20
47.6846  4.51573e+20
47.8019  4.31993e+20
47.9192  4.16891e+20
48.0365  4.06293e+20
48.1538  3.99696e+20
48.2711  3.96426e+20
48.3884  3.95517e+20
48.5057  3.95928e+20
48.623  3.96583e+20
48.7403  3.96586e+20
48.8576  3.95246e+20
48.9749  3.92279e+20
49.0922  3.87836e+20
49.2095  3.82476e+20
49.3269  3.76747e+20
49.4442  3.7175e+20
49.5615  3.68245e+20
49.6788  3.67457e+20
49.7961  3.70013e+20
49.9134  3.76565e+20
50.0307  3.87145e+20
50.148  4.01492e+20
50.2653  4.18986e+20
50.3826  4.38429e+20
50.4999  4.58345e+20
50.6172  4.77236e+20
50.7345  4.93554e+20
50.8518  5.05994e+20
