#S 1 spectral density
#N 2
#UFWHM 36.2472
#L  abscissas [um]  spectral density
-58.5938  3.45623e+20
-58.4764  3.47498e+20
-58.3591  3.53334e+20
-58.2418  3.63465e+20
-58.1245  3.77691e+20
-58.0072  3.95404e+20
-57.8899  4.15786e+20
-57.7726  4.37509e+20
-57.6553  4.59074e+20
-57.538  4.78681e+20
-57.4207  4.94535e+20
-57.3034  5.04929e+20
-57.1861  5.08586e+20
-57.0688  5.04819e+20
-56.9515  4.93768e+20
-56.8342  4.76286e+20
-56.7169  4.53928e+20
-56.5996  4.28849e+20
-56.4823  4.03214e+20
-56.365  3.79132e+20
-56.2477  3.5847e+20
-56.1303  3.42101e+20
-56.013  3.30668e+20
-55.8957  3.23951e+20
-55.7784  3.21603e+20
-55.6611  3.22715e+20
-55.5438  3.26426e+20
-55.4265  3.3199e+20
-55.3092  3.386e+20
-55.1919  3.45737e+20
-55.0746  3.52959e+20
-54.9573  3.59954e+20
-54.84  3.66788e+20
-54.7227  3.73593e+20
-54.6054  3.8079e+20
-54.4881  3.88786e+20
-54.3708  3.98083e+20
-54.2535  4.09179e+20
-54.1362  4.22281e+20
-54.0189  4.37035e+20
-53.9016  4.52794e+20
-53.7842  4.68712e+20
-53.6669  4.8328e+20
-53.5496  4.95306e+20
-53.4323  5.03656e+20
-53.315  5.07622e+20
-53.1977  5.07031e+20
-53.0804  5.02335e+20
-52.9631  4.94304e+20
-52.8458  4.84107e+20
-52.7285  4.73107e+20
-52.6112  4.62543e+20
-52.4939  4.53562e+20
-52.3766  4.47061e+20
-52.2593  4.43591e+20
-52.142  4.43496e+20
-52.0247  4.46702e+20
-51.9074  4.52856e+20
-51.7901  4.61254e+20
-51.6728  4.70947e+20
-51.5555  4.80719e+20
-51.4381  4.89048e+20
-51.3208  4.94763e+20
-51.2035  4.96508e+20
-51.0862  4.93719e+20
-50.9689  4.86038e+20
-50.8516  4.73862e+20
-50.7343  4.58372e+20
-50.617  4.40938e+20
-50.4997  4.23321e+20
-50.3824  4.07322e+20
-50.2651  3.94374e+20
-50.1478  3.85795e+20
-50.0305  3.81932e+20
-49.9132  3.83036e+20
-49.7959  3.88445e+20
-49.6786  3.97294e+20
-49.5613  4.08318e+20
-49.444  4.20244e+20
-49.3267  4.31625e+20
-49.2094  4.41446e+20
-49.092  4.4889e+20
-48.9747  4.53456e+20
-48.8574  4.55087e+20
-48.7401  4.54229e+20
-48.6228  4.51634e+20
-48.5055  4.48275e+20
-48.3882  4.4555e+20
-48.2709  4.44464e+20
-48.1536  4.46087e+20
-48.0363  4.51184e+20
-47.919  4.60083e+20
-47.8017  4.72821e+20
-47.6844  4.88879e+20
-47.5671  5.0747e+20
-47.4498  5.2748e+20
-47.3325  5.4753e+20
-47.2152  5.66074e+20
-47.0979  5.81521e+20
-46.9806  5.92446e+20
-46.8633  5.97612e+20
-46.7459  5.96149e+20
-46.6286  5.87906e+20
-46.5113  5.73093e+20
-46.394  5.52926e+20
-46.2767  5.28954e+20
-46.1594  5.03374e+20
-46.0421  4.78518e+20
-45.9248  4.56687e+20
-45.8075  4.39646e+20
-45.6902  4.28716e+20
-45.5729  4.24346e+20
-45.4556  4.26453e+20
-45.3383  4.33956e+20
-45.221  4.45713e+20
-45.1037  4.60076e+20
-44.9864  4.75704e+20
-44.8691  4.91104e+20
-44.7518  5.05255e+20
-44.6345  5.1753e+20
-44.5172  5.27667e+20
-44.3998  5.35657e+20
-44.2825  5.4181e+20
-44.1652  5.46472e+20
-44.0479  5.50387e+20
-43.9306  5.54102e+20
-43.8133  5.58306e+20
-43.696  5.63737e+20
-43.5787  5.70767e+20
-43.4614  5.79522e+20
-43.3441  5.90054e+20
-43.2268  6.01919e+20
-43.1095  6.14542e+20
-42.9922  6.27036e+20
-42.8749  6.38698e+20
-42.7576  6.4891e+20
-42.6403  6.57262e+20
-42.523  6.63812e+20
-42.4057  6.68697e+20
-42.2884  6.72528e+20
-42.171  6.75894e+20
-42.0537  6.79497e+20
-41.9364  6.83891e+20
-41.8191  6.89246e+20
-41.7018  6.95739e+20
-41.5845  7.03189e+20
-41.4672  7.11393e+20
-41.3499  7.19898e+20
-41.2326  7.28551e+20
-41.1153  7.36975e+20
-40.998  7.45002e+20
-40.8807  7.52576e+20
-40.7634  7.5971e+20
-40.6461  7.66544e+20
-40.5288  7.73187e+20
-40.4115  7.79921e+20
-40.2942  7.87128e+20
-40.1769  7.9488e+20
-40.0596  8.03247e+20
-39.9423  8.12379e+20
-39.825  8.2196e+20
-39.7076  8.31631e+20
-39.5903  8.40759e+20
-39.473  8.48722e+20
-39.3557  8.55072e+20
-39.2384  8.59299e+20
-39.1211  8.61306e+20
-39.0038  8.61353e+20
-38.8865  8.59834e+20
-38.7692  8.5733e+20
-38.6519  8.54702e+20
-38.5346  8.52571e+20
-38.4173  8.51545e+20
-38.3  8.52091e+20
-38.1827  8.54486e+20
-38.0654  8.59126e+20
-37.9481  8.66257e+20
-37.8308  8.76366e+20
-37.7135  8.89552e+20
-37.5962  9.06009e+20
-37.4789  9.2564e+20
-37.3615  9.48019e+20
-37.2442  9.72107e+20
-37.1269  9.96603e+20
-37.0096  1.01997e+21
-36.8923  1.0408e+21
-36.775  1.0579e+21
-36.6577  1.07062e+21
-36.5404  1.07914e+21
-36.4231  1.08416e+21
-36.3058  1.08697e+21
-36.1885  1.08919e+21
-36.0712  1.09228e+21
-35.9539  1.09768e+21
-35.8366  1.10604e+21
-35.7193  1.11774e+21
-35.602  1.13269e+21
-35.4847  1.15026e+21
-35.3674  1.16983e+21
-35.2501  1.19072e+21
-35.1328  1.21229e+21
-35.0154  1.23409e+21
-34.8981  1.25544e+21
-34.7808  1.27612e+21
-34.6635  1.2958e+21
-34.5462  1.31416e+21
-34.4289  1.33103e+21
-34.3116  1.34654e+21
-34.1943  1.36083e+21
-34.077  1.37445e+21
-33.9597  1.38795e+21
-33.8424  1.40188e+21
-33.7251  1.41676e+21
-33.6078  1.43276e+21
-33.4905  1.44954e+21
-33.3732  1.46661e+21
-33.2559  1.48309e+21
-33.1386  1.49809e+21
-33.0213  1.51064e+21
-32.904  1.52001e+21
-32.7867  1.52609e+21
-32.6693  1.5289e+21
-32.552  1.52904e+21
-32.4347  1.52728e+21
-32.3174  1.52483e+21
-32.2001  1.52299e+21
-32.0828  1.52322e+21
-31.9655  1.52693e+21
-31.8482  1.53538e+21
-31.7309  1.54979e+21
-31.6136  1.57086e+21
-31.4963  1.59908e+21
-31.379  1.63428e+21
-31.2617  1.67594e+21
-31.1444  1.72277e+21
-31.0271  1.77327e+21
-30.9098  1.82598e+21
-30.7925  1.87883e+21
-30.6752  1.93044e+21
-30.5579  1.97961e+21
-30.4406  2.02565e+21
-30.3232  2.06857e+21
-30.2059  2.1083e+21
-30.0886  2.14557e+21
-29.9713  2.18131e+21
-29.854  2.21642e+21
-29.7367  2.25177e+21
-29.6194  2.28845e+21
-29.5021  2.32702e+21
-29.3848  2.36797e+21
-29.2675  2.4115e+21
-29.1502  2.45735e+21
-29.0329  2.50494e+21
-28.9156  2.55334e+21
-28.7983  2.60127e+21
-28.681  2.64745e+21
-28.5637  2.69074e+21
-28.4464  2.7303e+21
-28.3291  2.76559e+21
-28.2118  2.79652e+21
-28.0944  2.8238e+21
-27.9771  2.84807e+21
-27.8598  2.87051e+21
-27.7425  2.89204e+21
-27.6252  2.91354e+21
-27.5079  2.93567e+21
-27.3906  2.95885e+21
-27.2733  2.98339e+21
-27.156  3.00928e+21
-27.0387  3.03638e+21
-26.9214  3.06485e+21
-26.8041  3.09438e+21
-26.6868  3.12513e+21
-26.5695  3.15694e+21
-26.4522  3.18957e+21
-26.3349  3.22299e+21
-26.2176  3.25741e+21
-26.1003  3.29217e+21
-25.983  3.3273e+21
-25.8657  3.36273e+21
-25.7483  3.39811e+21
-25.631  3.43358e+21
-25.5137  3.4686e+21
-25.3964  3.50269e+21
-25.2791  3.53555e+21
-25.1618  3.56654e+21
-25.0445  3.59488e+21
-24.9272  3.6204e+21
-24.8099  3.64262e+21
-24.6926  3.66164e+21
-24.5753  3.67831e+21
-24.458  3.69333e+21
-24.3407  3.70818e+21
-24.2234  3.72461e+21
-24.1061  3.74457e+21
-23.9888  3.77029e+21
-23.8715  3.80398e+21
-23.7542  3.84778e+21
-23.6369  3.90316e+21
-23.5196  3.9711e+21
-23.4023  4.05223e+21
-23.2849  4.1456e+21
-23.1676  4.24971e+21
-23.0503  4.36183e+21
-22.933  4.47827e+21
-22.8157  4.59502e+21
-22.6984  4.70778e+21
-22.5811  4.81249e+21
-22.4638  4.9059e+21
-22.3465  4.98516e+21
-22.2292  5.04955e+21
-22.1119  5.09878e+21
-21.9946  5.13434e+21
-21.8773  5.15837e+21
-21.76  5.17369e+21
-21.6427  5.18393e+21
-21.5254  5.19262e+21
-21.4081  5.20252e+21
-21.2908  5.21605e+21
-21.1735  5.23501e+21
-21.0561  5.25983e+21
-20.9388  5.29055e+21
-20.8215  5.32584e+21
-20.7042  5.36363e+21
-20.5869  5.40155e+21
-20.4696  5.43719e+21
-20.3523  5.4677e+21
-20.235  5.49165e+21
-20.1177  5.50779e+21
-20.0004  5.51622e+21
-19.8831  5.51893e+21
-19.7658  5.51806e+21
-19.6485  5.5173e+21
-19.5312  5.52106e+21
-19.4139  5.53357e+21
-19.2966  5.55929e+21
-19.1793  5.60169e+21
-19.062  5.66357e+21
-18.9447  5.74582e+21
-18.8274  5.84797e+21
-18.71  5.96866e+21
-18.5927  6.10427e+21
-18.4754  6.25034e+21
-18.3581  6.4018e+21
-18.2408  6.55245e+21
-18.1235  6.69704e+21
-18.0062  6.83039e+21
-17.8889  6.9485e+21
-17.7716  7.04911e+21
-17.6543  7.13082e+21
-17.537  7.19494e+21
-17.4197  7.24381e+21
-17.3024  7.28127e+21
-17.1851  7.31196e+21
-17.0678  7.34054e+21
-16.9505  7.37249e+21
-16.8332  7.41167e+21
-16.7159  7.46105e+21
-16.5986  7.52201e+21
-16.4813  7.59434e+21
-16.364  7.6763e+21
-16.2466  7.76495e+21
-16.1293  7.85643e+21
-16.012  7.94548e+21
-15.8947  8.02736e+21
-15.7774  8.0978e+21
-15.6601  8.15255e+21
-15.5428  8.18931e+21
-15.4255  8.20649e+21
-15.3082  8.20445e+21
-15.1909  8.18585e+21
-15.0736  8.15331e+21
-14.9563  8.11156e+21
-14.839  8.06573e+21
-14.7217  8.02108e+21
-14.6044  7.98235e+21
-14.4871  7.95349e+21
-14.3698  7.9377e+21
-14.2525  7.93619e+21
-14.1352  7.94887e+21
-14.0178  7.97554e+21
-13.9005  8.01422e+21
-13.7832  8.06249e+21
-13.6659  8.11876e+21
-13.5486  8.1803e+21
-13.4313  8.24602e+21
-13.314  8.31485e+21
-13.1967  8.38645e+21
-13.0794  8.46166e+21
-12.9621  8.54064e+21
-12.8448  8.62552e+21
-12.7275  8.71761e+21
-12.6102  8.81849e+21
-12.4929  8.92937e+21
-12.3756  9.0504e+21
-12.2583  9.18191e+21
-12.141  9.32222e+21
-12.0237  9.46912e+21
-11.9064  9.61867e+21
-11.7891  9.76634e+21
-11.6718  9.90724e+21
-11.5544  1.00362e+22
-11.4371  1.01494e+22
-11.3198  1.02418e+22
-11.2025  1.03117e+22
-11.0852  1.03579e+22
-10.9679  1.03806e+22
-10.8506  1.03819e+22
-10.7333  1.03646e+22
-10.616  1.03324e+22
-10.4987  1.02909e+22
-10.3814  1.02434e+22
-10.2641  1.01951e+22
-10.1468  1.01498e+22
-10.0295  1.01107e+22
-9.91217  1.00797e+22
-9.79487  1.00582e+22
-9.67756  1.00463e+22
-9.56026  1.00434e+22
-9.44295  1.00474e+22
-9.32565  1.00574e+22
-9.20834  1.00715e+22
-9.09104  1.00884e+22
-8.97373  1.01081e+22
-8.85643  1.01303e+22
-8.73913  1.01565e+22
-8.62182  1.01884e+22
-8.50452  1.02283e+22
-8.38721  1.02791e+22
-8.26991  1.03418e+22
-8.1526  1.04191e+22
-8.03529  1.05108e+22
-7.91799  1.06165e+22
-7.80069  1.0734e+22
-7.68338  1.08599e+22
-7.56608  1.09905e+22
-7.44877  1.11204e+22
-7.33146  1.1245e+22
-7.21416  1.13588e+22
-7.09685  1.14572e+22
-6.97955  1.15373e+22
-6.86224  1.15971e+22
-6.74494  1.16376e+22
-6.62763  1.16593e+22
-6.51033  1.16664e+22
-6.39302  1.16637e+22
-6.27572  1.16567e+22
-6.15842  1.16514e+22
-6.04111  1.16534e+22
-5.92381  1.16673e+22
-5.8065  1.16974e+22
-5.68919  1.17443e+22
-5.57189  1.18087e+22
-5.45458  1.18882e+22
-5.33728  1.19794e+22
-5.21997  1.20765e+22
-5.10267  1.21733e+22
-4.98536  1.22629e+22
-4.86806  1.23385e+22
-4.75075  1.23941e+22
-4.63345  1.24254e+22
-4.51614  1.24294e+22
-4.39884  1.24058e+22
-4.28154  1.23567e+22
-4.16423  1.22855e+22
-4.04692  1.21983e+22
-3.92962  1.21013e+22
-3.81231  1.20019e+22
-3.69501  1.19074e+22
-3.5777  1.18229e+22
-3.4604  1.17537e+22
-3.34309  1.1702e+22
-3.22579  1.16685e+22
-3.10849  1.1652e+22
-2.99118  1.16497e+22
-2.87387  1.16579e+22
-2.75657  1.16721e+22
-2.63926  1.16879e+22
-2.52196  1.17014e+22
-2.40465  1.17098e+22
-2.28735  1.17119e+22
-2.17005  1.17078e+22
-2.05274  1.17001e+22
-1.93544  1.16914e+22
-1.81813  1.1687e+22
-1.70083  1.16919e+22
-1.58352  1.17116e+22
-1.46622  1.17508e+22
-1.34891  1.18135e+22
-1.2316  1.19016e+22
-1.1143  1.20157e+22
-0.996995  1.21524e+22
-0.87969  1.23079e+22
-0.762385  1.24747e+22
-0.64508  1.26446e+22
-0.527775  1.28076e+22
-0.41047  1.29534e+22
-0.293165  1.30723e+22
-0.17586  1.31564e+22
-0.058555  1.31996e+22
0.05875  1.31989e+22
0.176055  1.3154e+22
0.29336  1.30682e+22
0.410665  1.29479e+22
0.52797  1.28009e+22
0.645275  1.26372e+22
0.76258  1.24663e+22
0.879885  1.22989e+22
0.99719  1.21431e+22
1.1145  1.20059e+22
1.2318  1.18921e+22
1.3491  1.1804e+22
1.46641  1.17415e+22
1.58371  1.1702e+22
1.70102  1.16823e+22
1.81832  1.16774e+22
1.93563  1.16816e+22
2.05294  1.16899e+22
2.17024  1.16977e+22
2.28754  1.17013e+22
2.40485  1.1699e+22
2.52216  1.169e+22
2.63946  1.16763e+22
2.75677  1.16601e+22
2.87407  1.16455e+22
2.99137  1.16368e+22
3.10868  1.16386e+22
3.22599  1.16545e+22
3.34329  1.16876e+22
3.4606  1.17389e+22
3.5779  1.18076e+22
3.69521  1.18911e+22
3.81251  1.19849e+22
3.92982  1.20829e+22
4.04712  1.21789e+22
4.16443  1.22651e+22
4.28173  1.2335e+22
4.39903  1.23829e+22
4.51634  1.24053e+22
4.63364  1.24004e+22
4.75095  1.23684e+22
4.86825  1.23121e+22
4.98556  1.2236e+22
5.10286  1.21463e+22
5.22017  1.20497e+22
5.33748  1.19527e+22
5.45478  1.18618e+22
5.57209  1.17828e+22
5.68939  1.17187e+22
5.8067  1.1672e+22
5.924  1.16424e+22
6.0413  1.16284e+22
6.15861  1.16263e+22
6.27591  1.16313e+22
6.39322  1.16378e+22
6.51052  1.16398e+22
6.62783  1.16315e+22
6.74514  1.16085e+22
6.86244  1.15673e+22
6.97975  1.1506e+22
7.09705  1.14248e+22
7.21436  1.1325e+22
7.33166  1.12104e+22
7.44897  1.10853e+22
7.56627  1.09546e+22
7.68358  1.08235e+22
7.80088  1.0697e+22
7.91819  1.05794e+22
8.03549  1.04738e+22
8.1528  1.03824e+22
8.2701  1.03052e+22
8.38741  1.02423e+22
8.50471  1.01918e+22
8.62202  1.01517e+22
8.73932  1.01198e+22
8.85662  1.00936e+22
8.97393  1.00712e+22
9.09123  1.00514e+22
9.20854  1.00342e+22
9.32584  1.00203e+22
9.44315  1.001e+22
9.56045  1.00056e+22
9.67776  1.00084e+22
9.79506  1.002e+22
9.91237  1.00413e+22
10.0297  1.00716e+22
10.147  1.01105e+22
10.2643  1.01554e+22
10.3816  1.02029e+22
10.4989  1.02497e+22
10.6162  1.02908e+22
10.7335  1.03218e+22
10.8508  1.03382e+22
10.9681  1.0336e+22
11.0854  1.03125e+22
11.2027  1.02656e+22
11.32  1.01946e+22
11.4373  1.01012e+22
11.5546  9.98777e+21
11.6719  9.85797e+21
11.7893  9.71686e+21
11.9066  9.56866e+21
12.0239  9.41912e+21
12.1412  9.27255e+21
12.2585  9.13224e+21
12.3758  9.00076e+21
12.4931  8.87971e+21
12.6104  8.76904e+21
12.7277  8.66841e+21
12.845  8.57675e+21
12.9623  8.49188e+21
13.0796  8.41298e+21
13.1969  8.33817e+21
13.3142  8.26658e+21
13.4315  8.19788e+21
13.5488  8.13239e+21
13.6661  8.07097e+21
13.7834  8.01501e+21
13.9007  7.96674e+21
14.018  7.92865e+21
14.1354  7.90208e+21
14.2527  7.88945e+21
14.37  7.89123e+21
14.4873  7.90715e+21
14.6046  7.93596e+21
14.7219  7.9745e+21
14.8392  8.01922e+21
14.9565  8.0648e+21
15.0738  8.10599e+21
15.1911  8.13826e+21
15.3084  8.15655e+21
15.4257  8.15794e+21
15.543  8.14017e+21
15.6603  8.10308e+21
15.7776  8.04818e+21
15.8949  7.97786e+21
16.0122  7.89558e+21
16.1295  7.80649e+21
16.2468  7.71523e+21
16.3641  7.6266e+21
16.4815  7.54487e+21
16.5988  7.47257e+21
16.7161  7.41165e+21
16.8334  7.36246e+21
16.9507  7.3232e+21
17.068  7.29091e+21
17.1853  7.26183e+21
17.3026  7.23073e+21
17.4199  7.19287e+21
17.5372  7.14371e+21
17.6545  7.07887e+21
17.7718  6.9968e+21
17.8891  6.89599e+21
18.0064  6.77772e+21
18.1237  6.64431e+21
18.241  6.50001e+21
18.3583  6.34971e+21
18.4756  6.19889e+21
18.5929  6.05341e+21
18.7102  5.91882e+21
18.8275  5.7989e+21
18.9449  5.69756e+21
19.0622  5.61615e+21
19.1795  5.55501e+21
19.2968  5.51314e+21
19.4141  5.48788e+21
19.5314  5.47582e+21
19.6487  5.47234e+21
19.766  5.47302e+21
19.8833  5.47403e+21
20.0006  5.47122e+21
20.1179  5.46252e+21
20.2352  5.4461e+21
20.3525  5.42205e+21
20.4698  5.39154e+21
20.5871  5.35616e+21
20.7044  5.31816e+21
20.8217  5.28033e+21
20.939  5.24517e+21
21.0563  5.2146e+21
21.1736  5.1899e+21
21.291  5.1711e+21
21.4083  5.15737e+21
21.5256  5.14762e+21
21.6429  5.13894e+21
21.7602  5.12841e+21
21.8775  5.11278e+21
21.9948  5.08848e+21
22.1121  5.05276e+21
22.2294  5.0035e+21
22.3467  4.93886e+21
22.464  4.85956e+21
22.5813  4.76632e+21
22.6986  4.66188e+21
22.8159  4.54944e+21
22.9332  4.4332e+21
23.0505  4.31743e+21
23.1678  4.206e+21
23.2851  4.10263e+21
23.4024  4.01012e+21
23.5198  3.9297e+21
23.6371  3.86239e+21
23.7544  3.80766e+21
23.8717  3.76438e+21
23.989  3.73105e+21
24.1063  3.70564e+21
24.2236  3.686e+21
24.3409  3.66979e+21
24.4582  3.65505e+21
24.5755  3.64026e+21
24.6928  3.62372e+21
24.8101  3.6047e+21
24.9274  3.58248e+21
25.0447  3.55718e+21
25.162  3.52909e+21
25.2793  3.49848e+21
25.3966  3.46589e+21
25.5139  3.43193e+21
25.6312  3.39722e+21
25.7485  3.36215e+21
25.8658  3.32708e+21
25.9832  3.29207e+21
26.1005  3.25712e+21
26.2178  3.22274e+21
26.3351  3.18882e+21
26.4524  3.15553e+21
26.5697  3.12314e+21
26.687  3.09163e+21
26.8043  3.06116e+21
26.9216  3.03192e+21
27.0389  3.00358e+21
27.1562  2.97668e+21
27.2735  2.95093e+21
27.3908  2.92658e+21
27.5081  2.90345e+21
27.6254  2.88137e+21
27.7427  2.85998e+21
27.86  2.83851e+21
27.9773  2.81619e+21
28.0946  2.792e+21
28.212  2.7648e+21
28.3293  2.7339e+21
28.4466  2.69886e+21
28.5639  2.65951e+21
28.6812  2.6165e+21
28.7985  2.5707e+21
28.9158  2.52321e+21
29.0331  2.47536e+21
29.1504  2.42828e+21
29.2677  2.38305e+21
29.385  2.34008e+21
29.5023  2.29965e+21
29.6196  2.26155e+21
29.7369  2.2254e+21
29.8542  2.19052e+21
29.9715  2.15586e+21
30.0888  2.12051e+21
30.2061  2.08345e+21
30.3234  2.0439e+21
30.4407  2.00136e+21
30.558  1.95559e+21
30.6754  1.90675e+21
30.7927  1.85536e+21
30.91  1.80289e+21
31.0273  1.75075e+21
31.1446  1.70056e+21
31.2619  1.6542e+21
31.3792  1.61305e+21
31.4965  1.57832e+21
31.6138  1.55062e+21
31.7311  1.52989e+21
31.8484  1.51593e+21
31.9657  1.50774e+21
32.083  1.50436e+21
32.2003  1.50432e+21
32.3176  1.50625e+21
32.4349  1.50886e+21
32.5522  1.51065e+21
32.6695  1.51063e+21
32.7868  1.50792e+21
32.9042  1.5019e+21
33.0215  1.49255e+21
33.1388  1.48019e+21
33.2561  1.46535e+21
33.3734  1.44903e+21
33.4907  1.43218e+21
33.608  1.41564e+21
33.7253  1.39993e+21
33.8426  1.3852e+21
33.9599  1.37146e+21
34.0772  1.3581e+21
34.1945  1.34464e+21
34.3118  1.33042e+21
34.4291  1.31508e+21
34.5464  1.29837e+21
34.6637  1.28017e+21
34.781  1.2607e+21
34.8983  1.24021e+21
35.0156  1.21903e+21
35.1329  1.19759e+21
35.2503  1.17631e+21
35.3676  1.15574e+21
35.4849  1.13638e+21
35.6022  1.11916e+21
35.7195  1.10461e+21
35.8368  1.09314e+21
35.9541  1.08505e+21
36.0714  1.07991e+21
36.1887  1.07697e+21
36.306  1.07492e+21
36.4233  1.07214e+21
36.5406  1.06718e+21
36.6579  1.05872e+21
36.7752  1.04605e+21
36.8925  1.02909e+21
37.0098  1.00842e+21
37.1271  9.85371e+20
37.2444  9.6119e+20
37.3617  9.37534e+20
37.479  9.15715e+20
37.5964  8.9646e+20
37.7137  8.80481e+20
37.831  8.67721e+20
37.9483  8.58085e+20
38.0656  8.51195e+20
38.1829  8.46761e+20
38.3002  8.44601e+20
38.4175  8.44196e+20
38.5348  8.45241e+20
38.6521  8.47396e+20
38.7694  8.49984e+20
38.8867  8.5242e+20
39.004  8.5383e+20
39.1213  8.5377e+20
39.2386  8.51629e+20
39.3559  8.47362e+20
39.4732  8.4109e+20
39.5905  8.33111e+20
39.7078  8.2411e+20
39.8251  8.14665e+20
39.9425  8.05306e+20
40.0598  7.96379e+20
40.1771  7.88149e+20
40.2944  7.8069e+20
40.4117  7.73755e+20
40.529  7.67181e+20
40.6463  7.6069e+20
40.7636  7.53938e+20
40.8809  7.46897e+20
40.9982  7.39466e+20
41.1155  7.31454e+20
41.2328  7.23108e+20
41.3501  7.14593e+20
41.4674  7.06233e+20
41.5847  6.98182e+20
41.702  6.90909e+20
41.8193  6.84678e+20
41.9366  6.79518e+20
42.0539  6.75355e+20
42.1712  6.71998e+20
42.2885  6.68785e+20
42.4059  6.6513e+20
42.5232  6.60378e+20
42.6405  6.53939e+20
42.7578  6.45612e+20
42.8751  6.3543e+20
42.9924  6.23865e+20
43.1097  6.11344e+20
43.227  5.98784e+20
43.3443  5.86993e+20
43.4616  5.76478e+20
43.5789  5.67754e+20
43.6962  5.60778e+20
43.8135  5.55451e+20
43.9308  5.51232e+20
44.0481  5.47559e+20
44.1654  5.43748e+20
44.2827  5.39012e+20
44.4  5.32899e+20
44.5173  5.25011e+20
44.6347  5.14891e+20
44.752  5.02612e+20
44.8693  4.88463e+20
44.9866  4.7321e+20
45.1039  4.57672e+20
45.2212  4.43427e+20
45.3385  4.31867e+20
45.4558  4.24402e+20
45.5731  4.22548e+20
45.6904  4.27108e+20
45.8077  4.38153e+20
45.925  4.55278e+20
46.0423  4.77191e+20
46.1596  5.0206e+20
46.2769  5.27506e+20
46.3942  5.51342e+20
46.5115  5.71359e+20
46.6288  5.85941e+20
46.7461  5.93975e+20
46.8634  5.95214e+20
46.9808  5.89979e+20
47.0981  5.78923e+20
47.2154  5.63473e+20
47.3327  5.44904e+20
47.45  5.24991e+20
47.5673  5.05161e+20
47.6846  4.86746e+20
47.8019  4.70862e+20
47.9192  4.58346e+20
48.0365  4.49664e+20
48.1538  4.44731e+20
48.2711  4.43223e+20
48.3884  4.44374e+20
48.5057  4.47214e+20
48.623  4.50522e+20
48.7403  4.53115e+20
48.8576  4.53898e+20
48.9749  4.52095e+20
49.0922  4.47395e+20
49.2095  4.39947e+20
49.3269  4.30015e+20
49.4442  4.18622e+20
49.5615  4.06651e+20
49.6788  3.95689e+20
49.7961  3.869e+20
49.9134  3.81643e+20
50.0307  3.80721e+20
50.148  3.84625e+20
50.2653  3.93428e+20
50.3826  4.06445e+20
50.4999  4.22485e+20
50.6172  4.40072e+20
50.7345  4.57447e+20
50.8518  4.7283e+20
