#S 1 spectral density
#N 2
#UFWHM 26.6282
#L  abscissas [um]  spectral density
-58.5938  9.6887e+19
-58.4764  1.02472e+20
-58.3591  1.087e+20
-58.2418  1.15006e+20
-58.1245  1.20961e+20
-58.0072  1.26338e+20
-57.8899  1.3108e+20
-57.7726  1.35298e+20
-57.6553  1.39152e+20
-57.538  1.42807e+20
-57.4207  1.46292e+20
-57.3034  1.49515e+20
-57.1861  1.52364e+20
-57.0688  1.54691e+20
-56.9515  1.56509e+20
-56.8342  1.57889e+20
-56.7169  1.59096e+20
-56.5996  1.6029e+20
-56.4823  1.61664e+20
-56.365  1.63139e+20
-56.2477  1.64455e+20
-56.1303  1.65105e+20
-56.013  1.64623e+20
-55.8957  1.62475e+20
-55.7784  1.5846e+20
-55.6611  1.5256e+20
-55.5438  1.45181e+20
-55.4265  1.36991e+20
-55.3092  1.28766e+20
-55.1919  1.21198e+20
-55.0746  1.1493e+20
-54.9573  1.10262e+20
-54.84  1.07343e+20
-54.7227  1.06077e+20
-54.6054  1.0637e+20
-54.4881  1.08147e+20
-54.3708  1.11417e+20
-54.2535  1.16176e+20
-54.1362  1.2238e+20
-54.0189  1.30017e+20
-53.9016  1.38764e+20
-53.7842  1.48058e+20
-53.6669  1.57275e+20
-53.5496  1.65649e+20
-53.4323  1.725e+20
-53.315  1.77315e+20
-53.1977  1.79823e+20
-53.0804  1.80106e+20
-52.9631  1.78429e+20
-52.8458  1.75162e+20
-52.7285  1.70768e+20
-52.6112  1.65603e+20
-52.4939  1.59954e+20
-52.3766  1.53963e+20
-52.2593  1.4777e+20
-52.142  1.41554e+20
-52.0247  1.35484e+20
-51.9074  1.29914e+20
-51.7901  1.25135e+20
-51.6728  1.21554e+20
-51.5555  1.19459e+20
-51.4381  1.19165e+20
-51.3208  1.20782e+20
-51.2035  1.24401e+20
-51.0862  1.30047e+20
-50.9689  1.37781e+20
-50.8516  1.47657e+20
-50.7343  1.59662e+20
-50.617  1.73778e+20
-50.4997  1.89888e+20
-50.3824  2.0762e+20
-50.2651  2.26528e+20
-50.1478  2.45772e+20
-50.0305  2.64589e+20
-49.9132  2.81958e+20
-49.7959  2.97047e+20
-49.6786  3.09073e+20
-49.5613  3.17557e+20
-49.444  3.22269e+20
-49.3267  3.23213e+20
-49.2094  3.2069e+20
-49.092  3.15136e+20
-48.9747  3.07179e+20
-48.8574  2.97473e+20
-48.7401  2.86727e+20
-48.6228  2.75599e+20
-48.5055  2.64719e+20
-48.3882  2.54547e+20
-48.2709  2.45522e+20
-48.1536  2.37991e+20
-48.0363  2.32169e+20
-47.919  2.28294e+20
-47.8017  2.26548e+20
-47.6844  2.27121e+20
-47.5671  2.30098e+20
-47.4498  2.35428e+20
-47.3325  2.42998e+20
-47.2152  2.52222e+20
-47.0979  2.62393e+20
-46.9806  2.72308e+20
-46.8633  2.8062e+20
-46.7459  2.86028e+20
-46.6286  2.87218e+20
-46.5113  2.83446e+20
-46.394  2.74333e+20
-46.2767  2.60296e+20
-46.1594  2.42333e+20
-46.0421  2.21935e+20
-45.9248  2.00943e+20
-45.8075  1.81232e+20
-45.6902  1.64495e+20
-45.5729  1.52045e+20
-45.4556  1.44721e+20
-45.3383  1.42857e+20
-45.221  1.46326e+20
-45.1037  1.54684e+20
-44.9864  1.67093e+20
-44.8691  1.82645e+20
-44.7518  2.00241e+20
-44.6345  2.18727e+20
-44.5172  2.36791e+20
-44.3998  2.53146e+20
-44.2825  2.66656e+20
-44.1652  2.76349e+20
-44.0479  2.81473e+20
-43.9306  2.81878e+20
-43.8133  2.77816e+20
-43.696  2.69948e+20
-43.5787  2.59481e+20
-43.4614  2.47809e+20
-43.3441  2.36329e+20
-43.2268  2.26359e+20
-43.1095  2.18825e+20
-42.9922  2.14368e+20
-42.8749  2.13149e+20
-42.7576  2.14916e+20
-42.6403  2.19266e+20
-42.523  2.25488e+20
-42.4057  2.32942e+20
-42.2884  2.41017e+20
-42.171  2.49188e+20
-42.0537  2.57184e+20
-41.9364  2.64838e+20
-41.8191  2.7231e+20
-41.7018  2.79891e+20
-41.5845  2.87991e+20
-41.4672  2.97167e+20
-41.3499  3.07853e+20
-41.2326  3.20447e+20
-41.1153  3.35044e+20
-40.998  3.51421e+20
-40.8807  3.68916e+20
-40.7634  3.86644e+20
-40.6461  4.03411e+20
-40.5288  4.18033e+20
-40.4115  4.29323e+20
-40.2942  4.36339e+20
-40.1769  4.38788e+20
-40.0596  4.36814e+20
-39.9423  4.31041e+20
-39.825  4.22472e+20
-39.7076  4.12535e+20
-39.5903  4.02715e+20
-39.473  3.94606e+20
-39.3557  3.89314e+20
-39.2384  3.87854e+20
-39.1211  3.90744e+20
-39.0038  3.97821e+20
-38.8865  4.0848e+20
-38.7692  4.21567e+20
-38.6519  4.35287e+20
-38.5346  4.47724e+20
-38.4173  4.56708e+20
-38.3  4.60494e+20
-38.1827  4.57627e+20
-38.0654  4.47582e+20
-37.9481  4.30725e+20
-37.8308  4.08298e+20
-37.7135  3.82372e+20
-37.5962  3.55569e+20
-37.4789  3.30521e+20
-37.3615  3.09448e+20
-37.2442  2.94051e+20
-37.1269  2.85064e+20
-37.0096  2.82518e+20
-36.8923  2.85453e+20
-36.775  2.92605e+20
-36.6577  3.02422e+20
-36.5404  3.13628e+20
-36.4231  3.25124e+20
-36.3058  3.36149e+20
-36.1885  3.4658e+20
-36.0712  3.56545e+20
-35.9539  3.66416e+20
-35.8366  3.7682e+20
-35.7193  3.88316e+20
-35.602  4.01756e+20
-35.4847  4.17896e+20
-35.3674  4.37486e+20
-35.2501  4.61184e+20
-35.1328  4.89234e+20
-35.0154  5.21536e+20
-34.8981  5.57027e+20
-34.7808  5.94261e+20
-34.6635  6.3107e+20
-34.5462  6.64679e+20
-34.4289  6.92547e+20
-34.3116  7.12205e+20
-34.1943  7.21938e+20
-34.077  7.20795e+20
-33.9597  7.09101e+20
-33.8424  6.88092e+20
-33.7251  6.59987e+20
-33.6078  6.27354e+20
-33.4905  5.93182e+20
-33.3732  5.60342e+20
-33.2559  5.31336e+20
-33.1386  5.08165e+20
-33.0213  4.92089e+20
-32.904  4.83807e+20
-32.7867  4.83228e+20
-32.6693  4.89626e+20
-32.552  5.0179e+20
-32.4347  5.17839e+20
-32.3174  5.35978e+20
-32.2001  5.54207e+20
-32.0828  5.7083e+20
-31.9655  5.84636e+20
-31.8482  5.94984e+20
-31.7309  6.01849e+20
-31.6136  6.05881e+20
-31.4963  6.08057e+20
-31.379  6.09613e+20
-31.2617  6.11855e+20
-31.1444  6.15672e+20
-31.0271  6.21678e+20
-30.9098  6.30378e+20
-30.7925  6.41317e+20
-30.6752  6.54189e+20
-30.5579  6.68518e+20
-30.4406  6.83749e+20
-30.3232  6.99421e+20
-30.2059  7.15019e+20
-30.0886  7.30362e+20
-29.9713  7.45534e+20
-29.854  7.60398e+20
-29.7367  7.75093e+20
-29.6194  7.89918e+20
-29.5021  8.05059e+20
-29.3848  8.20652e+20
-29.2675  8.36821e+20
-29.1502  8.53448e+20
-29.0329  8.70285e+20
-28.9156  8.86755e+20
-28.7983  9.02202e+20
-28.681  9.15949e+20
-28.5637  9.27436e+20
-28.4464  9.36345e+20
-28.3291  9.42716e+20
-28.2118  9.46872e+20
-28.0944  9.49612e+20
-27.9771  9.51928e+20
-27.8598  9.54829e+20
-27.7425  9.5921e+20
-27.6252  9.65648e+20
-27.5079  9.74527e+20
-27.3906  9.85765e+20
-27.2733  9.99212e+20
-27.156  1.01419e+21
-27.0387  1.03035e+21
-26.9214  1.04718e+21
-26.8041  1.06448e+21
-26.6868  1.08209e+21
-26.5695  1.10023e+21
-26.4522  1.11924e+21
-26.3349  1.1399e+21
-26.2176  1.16297e+21
-26.1003  1.18934e+21
-25.983  1.21998e+21
-25.8657  1.25564e+21
-25.7483  1.29669e+21
-25.631  1.34313e+21
-25.5137  1.39423e+21
-25.3964  1.44887e+21
-25.2791  1.50503e+21
-25.1618  1.56059e+21
-25.0445  1.61291e+21
-24.9272  1.65972e+21
-24.8099  1.69902e+21
-24.6926  1.72974e+21
-24.5753  1.75135e+21
-24.458  1.76467e+21
-24.3407  1.77113e+21
-24.2234  1.77344e+21
-24.1061  1.77457e+21
-23.9888  1.77806e+21
-23.8715  1.78751e+21
-23.7542  1.80631e+21
-23.6369  1.83697e+21
-23.5196  1.88139e+21
-23.4023  1.94011e+21
-23.2849  2.01243e+21
-23.1676  2.09639e+21
-23.0503  2.1888e+21
-22.933  2.28585e+21
-22.8157  2.38319e+21
-22.6984  2.47669e+21
-22.5811  2.56265e+21
-22.4638  2.63864e+21
-22.3465  2.70354e+21
-22.2292  2.75743e+21
-22.1119  2.80183e+21
-21.9946  2.83946e+21
-21.8773  2.87346e+21
-21.76  2.90729e+21
-21.6427  2.94408e+21
-21.5254  2.98637e+21
-21.4081  3.03599e+21
-21.2908  3.09345e+21
-21.1735  3.15867e+21
-21.0561  3.23041e+21
-20.9388  3.3069e+21
-20.8215  3.38549e+21
-20.7042  3.464e+21
-20.5869  3.53964e+21
-20.4696  3.6105e+21
-20.3523  3.67497e+21
-20.235  3.73233e+21
-20.1177  3.78218e+21
-20.0004  3.82547e+21
-19.8831  3.86333e+21
-19.7658  3.89757e+21
-19.6485  3.9297e+21
-19.5312  3.96184e+21
-19.4139  3.99498e+21
-19.2966  4.03018e+21
-19.1793  4.06777e+21
-19.062  4.10779e+21
-18.9447  4.14949e+21
-18.8274  4.19217e+21
-18.71  4.23561e+21
-18.5927  4.27935e+21
-18.4754  4.32357e+21
-18.3581  4.36903e+21
-18.2408  4.41717e+21
-18.1235  4.46984e+21
-18.0062  4.52925e+21
-17.8889  4.59762e+21
-17.7716  4.67756e+21
-17.6543  4.77077e+21
-17.537  4.87855e+21
-17.4197  5.00123e+21
-17.3024  5.13852e+21
-17.1851  5.28855e+21
-17.0678  5.44843e+21
-16.9505  5.6147e+21
-16.8332  5.78338e+21
-16.7159  5.94993e+21
-16.5986  6.10992e+21
-16.4813  6.26011e+21
-16.364  6.39781e+21
-16.2466  6.52216e+21
-16.1293  6.63295e+21
-16.012  6.73183e+21
-15.8947  6.8214e+21
-15.7774  6.90527e+21
-15.6601  6.98737e+21
-15.5428  7.07174e+21
-15.4255  7.16149e+21
-15.3082  7.25951e+21
-15.1909  7.36796e+21
-15.0736  7.48667e+21
-14.9563  7.61522e+21
-14.839  7.75178e+21
-14.7217  7.89305e+21
-14.6044  8.03527e+21
-14.4871  8.17462e+21
-14.3698  8.30679e+21
-14.2525  8.42798e+21
-14.1352  8.53483e+21
-14.0178  8.62654e+21
-13.9005  8.70201e+21
-13.7832  8.7624e+21
-13.6659  8.81005e+21
-13.5486  8.84804e+21
-13.4313  8.88009e+21
-13.314  8.90962e+21
-13.1967  8.93993e+21
-13.0794  8.97414e+21
-12.9621  9.01276e+21
-12.8448  9.05726e+21
-12.7275  9.10633e+21
-12.6102  9.15929e+21
-12.4929  9.21435e+21
-12.3756  9.26949e+21
-12.2583  9.32347e+21
-12.141  9.3753e+21
-12.0237  9.42433e+21
-11.9064  9.47077e+21
-11.7891  9.51595e+21
-11.6718  9.56186e+21
-11.5544  9.61165e+21
-11.4371  9.66925e+21
-11.3198  9.73805e+21
-11.2025  9.82236e+21
-11.0852  9.92604e+21
-10.9679  1.00518e+22
-10.8506  1.02017e+22
-10.7333  1.03757e+22
-10.616  1.05728e+22
-10.4987  1.07914e+22
-10.3814  1.10267e+22
-10.2641  1.12745e+22
-10.1468  1.15299e+22
-10.0295  1.17875e+22
-9.91217  1.20421e+22
-9.79487  1.22897e+22
-9.67756  1.25261e+22
-9.56026  1.27485e+22
-9.44295  1.29544e+22
-9.32565  1.31434e+22
-9.20834  1.33141e+22
-9.09104  1.34668e+22
-8.97373  1.36023e+22
-8.85643  1.3721e+22
-8.73913  1.38239e+22
-8.62182  1.39119e+22
-8.50452  1.39862e+22
-8.38721  1.40483e+22
-8.26991  1.40981e+22
-8.1526  1.41381e+22
-8.03529  1.41691e+22
-7.91799  1.41934e+22
-7.80069  1.42136e+22
-7.68338  1.42326e+22
-7.56608  1.42544e+22
-7.44877  1.4283e+22
-7.33146  1.43221e+22
-7.21416  1.43753e+22
-7.09685  1.44453e+22
-6.97955  1.45336e+22
-6.86224  1.46407e+22
-6.74494  1.47665e+22
-6.62763  1.49067e+22
-6.51033  1.50581e+22
-6.39302  1.52154e+22
-6.27572  1.53723e+22
-6.15842  1.55226e+22
-6.04111  1.56603e+22
-5.92381  1.578e+22
-5.8065  1.58793e+22
-5.68919  1.59553e+22
-5.57189  1.60091e+22
-5.45458  1.6043e+22
-5.33728  1.60623e+22
-5.21997  1.60723e+22
-5.10267  1.60805e+22
-4.98536  1.60937e+22
-4.86806  1.61186e+22
-4.75075  1.61606e+22
-4.63345  1.62237e+22
-4.51614  1.63092e+22
-4.39884  1.64164e+22
-4.28154  1.65434e+22
-4.16423  1.66849e+22
-4.04692  1.68349e+22
-3.92962  1.69864e+22
-3.81231  1.71323e+22
-3.69501  1.72661e+22
-3.5777  1.73817e+22
-3.4604  1.74755e+22
-3.34309  1.75455e+22
-3.22579  1.75916e+22
-3.10849  1.76165e+22
-2.99118  1.7624e+22
-2.87387  1.76201e+22
-2.75657  1.76107e+22
-2.63926  1.7602e+22
-2.52196  1.75989e+22
-2.40465  1.76048e+22
-2.28735  1.76207e+22
-2.17005  1.76452e+22
-2.05274  1.7676e+22
-1.93544  1.77057e+22
-1.81813  1.77283e+22
-1.70083  1.77354e+22
-1.58352  1.77196e+22
-1.46622  1.76742e+22
-1.34891  1.75949e+22
-1.2316  1.74792e+22
-1.1143  1.73295e+22
-0.996995  1.71493e+22
-0.87969  1.69467e+22
-0.762385  1.67308e+22
-0.64508  1.65144e+22
-0.527775  1.63092e+22
-0.41047  1.61272e+22
-0.293165  1.598e+22
-0.17586  1.58764e+22
-0.058555  1.58232e+22
0.05875  1.58234e+22
0.176055  1.58769e+22
0.29336  1.59805e+22
0.410665  1.61279e+22
0.52797  1.63096e+22
0.645275  1.65145e+22
0.76258  1.67305e+22
0.879885  1.69453e+22
0.99719  1.71468e+22
1.1145  1.73255e+22
1.2318  1.74738e+22
1.3491  1.75876e+22
1.46641  1.76652e+22
1.58371  1.77089e+22
1.70102  1.77229e+22
1.81832  1.7714e+22
1.93563  1.76896e+22
2.05294  1.7658e+22
2.17024  1.76263e+22
2.28754  1.76001e+22
2.40485  1.75829e+22
2.52216  1.75756e+22
2.63946  1.75776e+22
2.75677  1.75848e+22
2.87407  1.75927e+22
2.99137  1.75951e+22
3.10868  1.75858e+22
3.22599  1.75594e+22
3.34329  1.7512e+22
3.4606  1.74411e+22
3.5779  1.7346e+22
3.69521  1.7229e+22
3.81251  1.70947e+22
3.92982  1.69476e+22
4.04712  1.67953e+22
4.16443  1.6645e+22
4.28173  1.6503e+22
4.39903  1.63757e+22
4.51634  1.62678e+22
4.63364  1.6182e+22
4.75095  1.61183e+22
4.86825  1.60753e+22
4.98556  1.60494e+22
5.10286  1.60349e+22
5.22017  1.60254e+22
5.33748  1.60138e+22
5.45478  1.59931e+22
5.57209  1.59575e+22
5.68939  1.59019e+22
5.8067  1.58241e+22
5.924  1.57237e+22
6.0413  1.56025e+22
6.15861  1.54638e+22
6.27591  1.53125e+22
6.39322  1.51552e+22
6.51052  1.49979e+22
6.62783  1.48461e+22
6.74514  1.47056e+22
6.86244  1.45807e+22
6.97975  1.44735e+22
7.09705  1.43854e+22
7.21436  1.43157e+22
7.33166  1.42627e+22
7.44897  1.42236e+22
7.56627  1.4195e+22
7.68358  1.41727e+22
7.80088  1.41529e+22
7.91819  1.41318e+22
8.03549  1.41067e+22
8.1528  1.40749e+22
8.2701  1.40336e+22
8.38741  1.39821e+22
8.50471  1.3919e+22
8.62202  1.38431e+22
8.73932  1.37533e+22
8.85662  1.36491e+22
8.97393  1.35291e+22
9.09123  1.33924e+22
9.20854  1.32384e+22
9.32584  1.30671e+22
9.44315  1.28773e+22
9.56045  1.26705e+22
9.67776  1.24479e+22
9.79506  1.22112e+22
9.91237  1.19639e+22
10.0297  1.17095e+22
10.147  1.14524e+22
10.2643  1.1198e+22
10.3816  1.09507e+22
10.4989  1.07164e+22
10.6162  1.04992e+22
10.7335  1.03028e+22
10.8508  1.01296e+22
10.9681  9.98063e+21
11.0854  9.85584e+21
11.2027  9.75298e+21
11.32  9.66901e+21
11.4373  9.60045e+21
11.5546  9.54332e+21
11.6719  9.49354e+21
11.7893  9.44784e+21
11.9066  9.40289e+21
12.0239  9.35633e+21
12.1412  9.30776e+21
12.2585  9.25628e+21
12.3758  9.20249e+21
12.4931  9.14756e+21
12.6104  9.09283e+21
12.7277  9.04029e+21
12.845  8.99175e+21
12.9623  8.94749e+21
13.0796  8.90902e+21
13.1969  8.87515e+21
13.3142  8.8446e+21
13.4315  8.81476e+21
13.5488  8.78251e+21
13.6661  8.7441e+21
13.7834  8.6957e+21
13.9007  8.63449e+21
14.018  8.55848e+21
14.1354  8.46605e+21
14.2527  8.35815e+21
14.37  8.23664e+21
14.4873  8.104e+21
14.6046  7.96435e+21
14.7219  7.82179e+21
14.8392  7.68064e+21
14.9565  7.5445e+21
15.0738  7.41602e+21
15.1911  7.29777e+21
15.3084  7.18984e+21
15.4257  7.09205e+21
15.543  7.00262e+21
15.6603  6.91882e+21
15.7776  6.83734e+21
15.8949  6.75387e+21
16.0122  6.66471e+21
16.1295  6.56625e+21
16.2468  6.45587e+21
16.3641  6.33219e+21
16.4815  6.19519e+21
16.5988  6.04588e+21
16.7161  5.88652e+21
16.8334  5.72141e+21
16.9507  5.55395e+21
17.068  5.38892e+21
17.1853  5.23036e+21
17.3026  5.08181e+21
17.4199  4.94599e+21
17.5372  4.82467e+21
17.6545  4.71797e+21
17.7718  4.62615e+21
17.8891  4.54725e+21
18.0064  4.47979e+21
18.1237  4.42117e+21
18.241  4.36916e+21
18.3583  4.32159e+21
18.4756  4.27647e+21
18.5929  4.23257e+21
18.7102  4.18917e+21
18.8275  4.14593e+21
18.9449  4.10326e+21
19.0622  4.06184e+21
19.1795  4.02201e+21
19.2968  3.98443e+21
19.4141  3.94926e+21
19.5314  3.91626e+21
19.6487  3.88428e+21
19.766  3.85207e+21
19.8833  3.81807e+21
20.0006  3.78014e+21
20.1179  3.73693e+21
20.2352  3.68717e+21
20.3525  3.63011e+21
20.4698  3.56603e+21
20.5871  3.49562e+21
20.7044  3.42051e+21
20.8217  3.34272e+21
20.939  3.26478e+21
21.0563  3.18921e+21
21.1736  3.11832e+21
21.291  3.05406e+21
21.4083  2.99725e+21
21.5256  2.94859e+21
21.6429  2.90696e+21
21.7602  2.87087e+21
21.8775  2.83757e+21
21.9948  2.80401e+21
22.1121  2.76672e+21
22.2294  2.72247e+21
22.3467  2.66881e+21
22.464  2.60432e+21
22.5813  2.52858e+21
22.6986  2.4432e+21
22.8159  2.35037e+21
22.9332  2.25383e+21
23.0505  2.15765e+21
23.1678  2.06633e+21
23.2851  1.98356e+21
23.4024  1.91237e+21
23.5198  1.85484e+21
23.6371  1.81157e+21
23.7544  1.78188e+21
23.8717  1.76395e+21
23.989  1.75514e+21
24.1063  1.75217e+21
24.2236  1.75144e+21
24.3409  1.74939e+21
24.4582  1.74304e+21
24.5755  1.72983e+21
24.6928  1.7083e+21
24.8101  1.67773e+21
24.9274  1.63854e+21
25.0447  1.59197e+21
25.162  1.54005e+21
25.2793  1.48507e+21
25.3966  1.42947e+21
25.5139  1.37556e+21
25.6312  1.3251e+21
25.7485  1.27939e+21
25.8658  1.23907e+21
25.9832  1.20412e+21
26.1005  1.17412e+21
26.2178  1.14834e+21
26.3351  1.12582e+21
26.4524  1.1056e+21
26.5697  1.08695e+21
26.687  1.06922e+21
26.8043  1.05191e+21
26.9216  1.03495e+21
27.0389  1.01839e+21
27.1562  1.00255e+21
27.2735  9.87781e+20
27.3908  9.74722e+20
27.5081  9.63755e+20
27.6254  9.55156e+20
27.7427  9.49048e+20
27.86  9.44985e+20
27.9773  9.42394e+20
28.0946  9.40334e+20
28.212  9.37833e+20
28.3293  9.33925e+20
28.4466  9.27804e+20
28.5639  9.19153e+20
28.6812  9.07844e+20
28.7985  8.9436e+20
28.9158  8.79202e+20
29.0331  8.62969e+20
29.1504  8.46412e+20
29.2677  8.30045e+20
29.385  8.1414e+20
29.5023  7.98797e+20
29.6196  7.83881e+20
29.7369  7.69275e+20
29.8542  7.54773e+20
29.9715  7.40116e+20
30.0888  7.25183e+20
30.2061  7.09915e+20
30.3234  6.94511e+20
30.4407  6.79143e+20
30.558  6.64148e+20
30.6754  6.50066e+20
30.7927  6.37384e+20
30.91  6.26751e+20
31.0273  6.18464e+20
31.1446  6.12602e+20
31.2619  6.09045e+20
31.3792  6.06985e+20
31.4965  6.05538e+20
31.6138  6.035e+20
31.7311  5.99458e+20
31.8484  5.92543e+20
31.9657  5.82175e+20
32.083  5.68343e+20
32.2003  5.51699e+20
32.3176  5.33493e+20
32.4349  5.15495e+20
32.5522  4.99562e+20
32.6695  4.87617e+20
32.7868  4.81477e+20
32.9042  4.82343e+20
33.0215  4.9089e+20
33.1388  5.07281e+20
33.2561  5.30672e+20
33.3734  5.599e+20
33.4907  5.92843e+20
33.608  6.27054e+20
33.7253  6.59625e+20
33.8426  6.87547e+20
33.9599  7.08319e+20
34.0772  7.19668e+20
34.1945  7.2043e+20
34.3118  7.10376e+20
34.4291  6.90462e+20
34.5464  6.62443e+20
34.6637  6.28601e+20
34.781  5.91829e+20
34.8983  5.54579e+20
35.0156  5.1915e+20
35.1329  4.87123e+20
35.2503  4.59197e+20
35.3676  4.35764e+20
35.4849  4.16238e+20
35.6022  4.00241e+20
35.7195  3.86935e+20
35.8368  3.75568e+20
35.9541  3.65265e+20
36.0714  3.55418e+20
36.1887  3.45523e+20
36.306  3.3512e+20
36.4233  3.24019e+20
36.5406  3.12571e+20
36.6579  3.01464e+20
36.7752  2.91683e+20
36.8925  2.84617e+20
37.0098  2.81883e+20
37.1271  2.8463e+20
37.2444  2.93826e+20
37.3617  3.09427e+20
37.479  3.30639e+20
37.5964  3.55818e+20
37.7137  3.82599e+20
37.831  4.08458e+20
37.9483  4.30677e+20
38.0656  4.47359e+20
38.1829  4.57173e+20
38.3002  4.59743e+20
38.4175  4.55812e+20
38.5348  4.46617e+20
38.6521  4.34112e+20
38.7694  4.20332e+20
38.8867  4.07251e+20
39.004  3.96646e+20
39.1213  3.89581e+20
39.2386  3.868e+20
39.3559  3.8828e+20
39.4732  3.93573e+20
39.5905  4.01743e+20
39.7078  4.11498e+20
39.8251  4.21313e+20
39.9425  4.29703e+20
40.0598  4.3544e+20
40.1771  4.37257e+20
40.2944  4.34603e+20
40.4117  4.27403e+20
40.529  4.16081e+20
40.6463  4.01365e+20
40.7636  3.8458e+20
40.8809  3.66841e+20
40.9982  3.49325e+20
41.1155  3.3303e+20
41.2328  3.185e+20
41.3501  3.05981e+20
41.4674  2.95319e+20
41.5847  2.86196e+20
41.702  2.78131e+20
41.8193  2.70558e+20
41.9366  2.63145e+20
42.0539  2.55542e+20
42.1712  2.47612e+20
42.2885  2.39465e+20
42.4059  2.31505e+20
42.5232  2.24109e+20
42.6405  2.18002e+20
42.7578  2.13743e+20
42.8751  2.12071e+20
42.9924  2.13383e+20
43.1097  2.17932e+20
43.227  2.25519e+20
43.3443  2.35524e+20
43.4616  2.46994e+20
43.5789  2.58611e+20
43.6962  2.68985e+20
43.8135  2.76673e+20
43.9308  2.80587e+20
44.0481  2.8003e+20
44.1654  2.74758e+20
44.2827  2.65017e+20
44.4  2.51438e+20
44.5173  2.35026e+20
44.6347  2.17001e+20
44.752  1.98622e+20
44.8693  1.81143e+20
44.9866  1.65696e+20
45.1039  1.53437e+20
45.2212  1.45284e+20
45.3385  1.41968e+20
45.4558  1.44017e+20
45.5731  1.51474e+20
45.6904  1.64028e+20
45.8077  1.80845e+20
45.925  2.00575e+20
46.0423  2.21505e+20
46.1596  2.418e+20
46.2769  2.59599e+20
46.3942  2.73405e+20
46.5115  2.8229e+20
46.6288  2.85884e+20
46.7461  2.84534e+20
46.8634  2.79023e+20
46.9808  2.70607e+20
47.0981  2.60716e+20
47.2154  2.50594e+20
47.3327  2.41476e+20
47.45  2.33979e+20
47.5673  2.28743e+20
47.6846  2.25865e+20
47.8019  2.25417e+20
47.9192  2.27259e+20
48.0365  2.31192e+20
48.1538  2.3711e+20
48.2711  2.44705e+20
48.3884  2.53791e+20
48.5057  2.63995e+20
48.623  2.74899e+20
48.7403  2.8602e+20
48.8576  2.96717e+20
48.9749  3.06387e+20
49.0922  3.14296e+20
49.2095  3.19705e+20
49.3269  3.22123e+20
49.4442  3.21032e+20
49.5615  3.16223e+20
49.6788  3.07612e+20
49.7961  2.95477e+20
49.9134  2.80295e+20
50.0307  2.62881e+20
50.148  2.44099e+20
50.2653  2.24833e+20
50.3826  2.05996e+20
50.4999  1.88315e+20
50.6172  1.7231e+20
50.7345  1.58265e+20
