#S 1 spectral density
#N 2
#UFWHM 36.1299
#L  abscissas [um]  spectral density
-58.5938  3.25684e+20
-58.4764  3.15707e+20
-58.3591  3.06726e+20
-58.2418  3.00166e+20
-58.1245  2.97259e+20
-58.0072  2.99109e+20
-57.8899  3.06561e+20
-57.7726  3.19783e+20
-57.6553  3.38409e+20
-57.538  3.61249e+20
-57.4207  3.86521e+20
-57.3034  4.11974e+20
-57.1861  4.35259e+20
-57.0688  4.54176e+20
-56.9515  4.67143e+20
-56.8342  4.73248e+20
-56.7169  4.72348e+20
-56.5996  4.65272e+20
-56.4823  4.5318e+20
-56.365  4.37718e+20
-56.2477  4.20796e+20
-56.1303  4.03744e+20
-56.013  3.88054e+20
-55.8957  3.74617e+20
-55.7784  3.64261e+20
-55.6611  3.57223e+20
-55.5438  3.53586e+20
-55.4265  3.5321e+20
-55.3092  3.55564e+20
-55.1919  3.60034e+20
-55.0746  3.65688e+20
-54.9573  3.71492e+20
-54.84  3.76657e+20
-54.7227  3.80456e+20
-54.6054  3.82606e+20
-54.4881  3.8309e+20
-54.3708  3.82347e+20
-54.2535  3.81269e+20
-54.1362  3.80838e+20
-54.0189  3.81835e+20
-53.9016  3.84941e+20
-53.7842  3.9069e+20
-53.6669  3.9887e+20
-53.5496  4.09279e+20
-53.4323  4.21345e+20
-53.315  4.34398e+20
-53.1977  4.47766e+20
-53.0804  4.60864e+20
-52.9631  4.73044e+20
-52.8458  4.83807e+20
-52.7285  4.92746e+20
-52.6112  4.99511e+20
-52.4939  5.03958e+20
-52.3766  5.06189e+20
-52.2593  5.06485e+20
-52.142  5.05507e+20
-52.0247  5.04015e+20
-51.9074  5.02884e+20
-51.7901  5.02836e+20
-51.6728  5.04417e+20
-51.5555  5.07719e+20
-51.4381  5.12167e+20
-51.3208  5.17103e+20
-51.2035  5.21162e+20
-51.0862  5.23228e+20
-50.9689  5.21966e+20
-50.8516  5.16534e+20
-50.7343  5.06685e+20
-50.617  4.92447e+20
-50.4997  4.74484e+20
-50.3824  4.53853e+20
-50.2651  4.31742e+20
-50.1478  4.09711e+20
-50.0305  3.88839e+20
-49.9132  3.70488e+20
-49.7959  3.55374e+20
-49.6786  3.44093e+20
-49.5613  3.368e+20
-49.444  3.33412e+20
-49.3267  3.33359e+20
-49.2094  3.36058e+20
-49.092  3.40706e+20
-48.9747  3.46425e+20
-48.8574  3.52444e+20
-48.7401  3.58235e+20
-48.6228  3.63547e+20
-48.5055  3.68334e+20
-48.3882  3.7314e+20
-48.2709  3.78396e+20
-48.1536  3.84924e+20
-48.0363  3.93578e+20
-47.919  4.05097e+20
-47.8017  4.20189e+20
-47.6844  4.39187e+20
-47.5671  4.62191e+20
-47.4498  4.88894e+20
-47.3325  5.18501e+20
-47.2152  5.49781e+20
-47.0979  5.81062e+20
-46.9806  6.1046e+20
-46.8633  6.35882e+20
-46.7459  6.55338e+20
-46.6286  6.67316e+20
-46.5113  6.70645e+20
-46.394  6.65187e+20
-46.2767  6.51366e+20
-46.1594  6.30597e+20
-46.0421  6.04811e+20
-45.9248  5.76358e+20
-45.8075  5.47468e+20
-45.6902  5.20279e+20
-45.5729  4.96315e+20
-45.4556  4.76772e+20
-45.3383  4.6179e+20
-45.221  4.51396e+20
-45.1037  4.44921e+20
-44.9864  4.41696e+20
-44.8691  4.40672e+20
-44.7518  4.40991e+20
-44.6345  4.41986e+20
-44.5172  4.43211e+20
-44.3998  4.44373e+20
-44.2825  4.45576e+20
-44.1652  4.47011e+20
-44.0479  4.49377e+20
-43.9306  4.53325e+20
-43.8133  4.59714e+20
-43.696  4.69523e+20
-43.5787  4.83353e+20
-43.4614  5.015e+20
-43.3441  5.23947e+20
-43.2268  5.50099e+20
-43.1095  5.78902e+20
-42.9922  6.08862e+20
-42.8749  6.38423e+20
-42.7576  6.66054e+20
-42.6403  6.90343e+20
-42.523  7.10464e+20
-42.4057  7.2578e+20
-42.2884  7.36354e+20
-42.171  7.42511e+20
-42.0537  7.45036e+20
-41.9364  7.44781e+20
-41.8191  7.42547e+20
-41.7018  7.39306e+20
-41.5845  7.35777e+20
-41.4672  7.32669e+20
-41.3499  7.30378e+20
-41.2326  7.29406e+20
-41.1153  7.29818e+20
-40.998  7.31611e+20
-40.8807  7.34602e+20
-40.7634  7.38468e+20
-40.6461  7.428e+20
-40.5288  7.47074e+20
-40.4115  7.50913e+20
-40.2942  7.54151e+20
-40.1769  7.56503e+20
-40.0596  7.57948e+20
-39.9423  7.58817e+20
-39.825  7.59266e+20
-39.7076  7.59705e+20
-39.5903  7.60395e+20
-39.473  7.61681e+20
-39.3557  7.64028e+20
-39.2384  7.67628e+20
-39.1211  7.72782e+20
-39.0038  7.79795e+20
-38.8865  7.8865e+20
-38.7692  7.99162e+20
-38.6519  8.11033e+20
-38.5346  8.23624e+20
-38.4173  8.3611e+20
-38.3  8.47736e+20
-38.1827  8.57744e+20
-38.0654  8.65924e+20
-37.9481  8.72321e+20
-37.8308  8.77747e+20
-37.7135  8.83055e+20
-37.5962  8.89524e+20
-37.4789  8.98354e+20
-37.3615  9.10446e+20
-37.2442  9.25988e+20
-37.1269  9.44591e+20
-37.0096  9.65349e+20
-36.8923  9.8698e+20
-36.775  1.00806e+21
-36.6577  1.02731e+21
-36.5404  1.04405e+21
-36.4231  1.05801e+21
-36.3058  1.06946e+21
-36.1885  1.07918e+21
-36.0712  1.08797e+21
-35.9539  1.09695e+21
-35.8366  1.10675e+21
-35.7193  1.1179e+21
-35.602  1.13076e+21
-35.4847  1.14518e+21
-35.3674  1.16108e+21
-35.2501  1.17821e+21
-35.1328  1.19623e+21
-35.0154  1.21478e+21
-34.8981  1.23311e+21
-34.7808  1.25068e+21
-34.6635  1.26681e+21
-34.5462  1.28077e+21
-34.4289  1.29206e+21
-34.3116  1.30054e+21
-34.1943  1.30638e+21
-34.077  1.31033e+21
-33.9597  1.31341e+21
-33.8424  1.31696e+21
-33.7251  1.32231e+21
-33.6078  1.33072e+21
-33.4905  1.34287e+21
-33.3732  1.35924e+21
-33.2559  1.37977e+21
-33.1386  1.40409e+21
-33.0213  1.4315e+21
-32.904  1.46111e+21
-32.7867  1.49227e+21
-32.6693  1.52418e+21
-32.552  1.55621e+21
-32.4347  1.58776e+21
-32.3174  1.61845e+21
-32.2001  1.64804e+21
-32.0828  1.67644e+21
-31.9655  1.70383e+21
-31.8482  1.73044e+21
-31.7309  1.75689e+21
-31.6136  1.78362e+21
-31.4963  1.8113e+21
-31.379  1.84027e+21
-31.2617  1.87089e+21
-31.1444  1.90288e+21
-31.0271  1.93588e+21
-30.9098  1.96952e+21
-30.7925  2.00274e+21
-30.6752  2.03501e+21
-30.5579  2.06571e+21
-30.4406  2.09456e+21
-30.3232  2.1217e+21
-30.2059  2.14713e+21
-30.0886  2.17155e+21
-29.9713  2.19576e+21
-29.854  2.22065e+21
-29.7367  2.24716e+21
-29.6194  2.27643e+21
-29.5021  2.30923e+21
-29.3848  2.34622e+21
-29.2675  2.38767e+21
-29.1502  2.4333e+21
-29.0329  2.48231e+21
-28.9156  2.53333e+21
-28.7983  2.58447e+21
-28.681  2.63368e+21
-28.5637  2.67899e+21
-28.4464  2.71873e+21
-28.3291  2.75178e+21
-28.2118  2.77766e+21
-28.0944  2.79715e+21
-27.9771  2.81134e+21
-27.8598  2.82229e+21
-27.7425  2.83218e+21
-27.6252  2.84338e+21
-27.5079  2.85809e+21
-27.3906  2.87819e+21
-27.2733  2.90511e+21
-27.156  2.93949e+21
-27.0387  2.98122e+21
-26.9214  3.02979e+21
-26.8041  3.08351e+21
-26.6868  3.14063e+21
-26.5695  3.19863e+21
-26.4522  3.25473e+21
-26.3349  3.30638e+21
-26.2176  3.35164e+21
-26.1003  3.38841e+21
-25.983  3.416e+21
-25.8657  3.43458e+21
-25.7483  3.44514e+21
-25.631  3.45003e+21
-25.5137  3.45173e+21
-25.3964  3.45331e+21
-25.2791  3.45815e+21
-25.1618  3.46915e+21
-25.0445  3.48849e+21
-24.9272  3.51805e+21
-24.8099  3.55822e+21
-24.6926  3.60867e+21
-24.5753  3.66833e+21
-24.458  3.73483e+21
-24.3407  3.80547e+21
-24.2234  3.87712e+21
-24.1061  3.94661e+21
-23.9888  4.01119e+21
-23.8715  4.06897e+21
-23.7542  4.11894e+21
-23.6369  4.16105e+21
-23.5196  4.19629e+21
-23.4023  4.22714e+21
-23.2849  4.25609e+21
-23.1676  4.28634e+21
-23.0503  4.3208e+21
-22.933  4.36182e+21
-22.8157  4.41128e+21
-22.6984  4.47002e+21
-22.5811  4.53798e+21
-22.4638  4.61434e+21
-22.3465  4.69695e+21
-22.2292  4.78395e+21
-22.1119  4.87225e+21
-21.9946  4.95924e+21
-21.8773  5.04194e+21
-21.76  5.11769e+21
-21.6427  5.18476e+21
-21.5254  5.24205e+21
-21.4081  5.28864e+21
-21.2908  5.32486e+21
-21.1735  5.35193e+21
-21.0561  5.37129e+21
-20.9388  5.38545e+21
-20.8215  5.39657e+21
-20.7042  5.40685e+21
-20.5869  5.41838e+21
-20.4696  5.43284e+21
-20.3523  5.45074e+21
-20.235  5.47284e+21
-20.1177  5.4987e+21
-20.0004  5.52781e+21
-19.8831  5.56012e+21
-19.7658  5.59457e+21
-19.6485  5.63091e+21
-19.5312  5.66919e+21
-19.4139  5.70954e+21
-19.2966  5.75281e+21
-19.1793  5.8e+21
-19.062  5.85273e+21
-18.9447  5.91219e+21
-18.8274  5.97974e+21
-18.71  6.05699e+21
-18.5927  6.1444e+21
-18.4754  6.24208e+21
-18.3581  6.34952e+21
-18.2408  6.46466e+21
-18.1235  6.58555e+21
-18.0062  6.70886e+21
-17.8889  6.83122e+21
-17.7716  6.94933e+21
-17.6543  7.05947e+21
-17.537  7.15948e+21
-17.4197  7.24757e+21
-17.3024  7.32322e+21
-17.1851  7.38695e+21
-17.0678  7.44009e+21
-16.9505  7.48573e+21
-16.8332  7.52681e+21
-16.7159  7.56666e+21
-16.5986  7.60834e+21
-16.4813  7.65444e+21
-16.364  7.70671e+21
-16.2466  7.76595e+21
-16.1293  7.832e+21
-16.012  7.90256e+21
-15.8947  7.97501e+21
-15.7774  8.04597e+21
-15.6601  8.11081e+21
-15.5428  8.16564e+21
-15.4255  8.20627e+21
-15.3082  8.22966e+21
-15.1909  8.2349e+21
-15.0736  8.22102e+21
-14.9563  8.18971e+21
-14.839  8.14409e+21
-14.7217  8.08847e+21
-14.6044  8.02791e+21
-14.4871  7.96811e+21
-14.3698  7.915e+21
-14.2525  7.87364e+21
-14.1352  7.84806e+21
-14.0178  7.84235e+21
-13.9005  7.85834e+21
-13.7832  7.89666e+21
-13.6659  7.95751e+21
-13.5486  8.03849e+21
-13.4313  8.13744e+21
-13.314  8.25058e+21
-13.1967  8.37376e+21
-13.0794  8.50306e+21
-12.9621  8.6335e+21
-12.8448  8.76212e+21
-12.7275  8.88591e+21
-12.6102  9.00325e+21
-12.4929  9.11359e+21
-12.3756  9.21725e+21
-12.2583  9.31641e+21
-12.141  9.41304e+21
-12.0237  9.50986e+21
-11.9064  9.60886e+21
-11.7891  9.7116e+21
-11.6718  9.81911e+21
-11.5544  9.93102e+21
-11.4371  1.00468e+22
-11.3198  1.0163e+22
-11.2025  1.0277e+22
-11.0852  1.03848e+22
-10.9679  1.04819e+22
-10.8506  1.05641e+22
-10.7333  1.06271e+22
-10.616  1.06672e+22
-10.4987  1.06827e+22
-10.3814  1.06715e+22
-10.2641  1.06343e+22
-10.1468  1.05728e+22
-10.0295  1.04906e+22
-9.91217  1.03919e+22
-9.79487  1.02826e+22
-9.67756  1.01688e+22
-9.56026  1.0057e+22
-9.44295  9.95294e+21
-9.32565  9.86292e+21
-9.20834  9.79148e+21
-9.09104  9.74236e+21
-8.97373  9.71911e+21
-8.85643  9.7227e+21
-8.73913  9.7541e+21
-8.62182  9.8124e+21
-8.50452  9.89605e+21
-8.38721  1.00028e+22
-8.26991  1.01282e+22
-8.1526  1.02691e+22
-8.03529  1.04202e+22
-7.91799  1.05769e+22
-7.80069  1.07339e+22
-7.68338  1.08866e+22
-7.56608  1.1031e+22
-7.44877  1.11634e+22
-7.33146  1.12815e+22
-7.21416  1.13834e+22
-7.09685  1.14681e+22
-6.97955  1.15365e+22
-6.86224  1.15899e+22
-6.74494  1.16314e+22
-6.62763  1.16629e+22
-6.51033  1.16885e+22
-6.39302  1.17117e+22
-6.27572  1.17355e+22
-6.15842  1.17625e+22
-6.04111  1.17947e+22
-5.92381  1.18328e+22
-5.8065  1.18775e+22
-5.68919  1.19268e+22
-5.57189  1.19796e+22
-5.45458  1.20332e+22
-5.33728  1.2085e+22
-5.21997  1.21315e+22
-5.10267  1.21699e+22
-4.98536  1.2197e+22
-4.86806  1.22107e+22
-4.75075  1.22092e+22
-4.63345  1.21923e+22
-4.51614  1.216e+22
-4.39884  1.21139e+22
-4.28154  1.20572e+22
-4.16423  1.19929e+22
-4.04692  1.19255e+22
-3.92962  1.18585e+22
-3.81231  1.17965e+22
-3.69501  1.17432e+22
-3.5777  1.17003e+22
-3.4604  1.16703e+22
-3.34309  1.16527e+22
-3.22579  1.1647e+22
-3.10849  1.16511e+22
-2.99118  1.16625e+22
-2.87387  1.16786e+22
-2.75657  1.16963e+22
-2.63926  1.17134e+22
-2.52196  1.1728e+22
-2.40465  1.1739e+22
-2.28735  1.17465e+22
-2.17005  1.17515e+22
-2.05274  1.17568e+22
-1.93544  1.17642e+22
-1.81813  1.17778e+22
-1.70083  1.18008e+22
-1.58352  1.18369e+22
-1.46622  1.18887e+22
-1.34891  1.19583e+22
-1.2316  1.20464e+22
-1.1143  1.21526e+22
-0.996995  1.22739e+22
-0.87969  1.24071e+22
-0.762385  1.25464e+22
-0.64508  1.26857e+22
-0.527775  1.28173e+22
-0.41047  1.29339e+22
-0.293165  1.30283e+22
-0.17586  1.30947e+22
-0.058555  1.31288e+22
0.05875  1.31282e+22
0.176055  1.30926e+22
0.29336  1.30247e+22
0.410665  1.2929e+22
0.52797  1.28114e+22
0.645275  1.26789e+22
0.76258  1.25386e+22
0.879885  1.23986e+22
0.99719  1.2265e+22
1.1145  1.21429e+22
1.2318  1.20367e+22
1.3491  1.19484e+22
1.46641  1.18786e+22
1.58371  1.18264e+22
1.70102  1.179e+22
1.81832  1.17666e+22
1.93563  1.17526e+22
2.05294  1.17445e+22
2.17024  1.17392e+22
2.28754  1.17335e+22
2.40485  1.17255e+22
2.52216  1.17138e+22
2.63946  1.1699e+22
2.75677  1.16814e+22
2.87407  1.16632e+22
2.99137  1.16467e+22
3.10868  1.16349e+22
3.22599  1.16304e+22
3.34329  1.16361e+22
3.4606  1.16536e+22
3.5779  1.16838e+22
3.69521  1.17262e+22
3.81251  1.17796e+22
3.92982  1.18411e+22
4.04712  1.19077e+22
4.16443  1.1975e+22
4.28173  1.20389e+22
4.39903  1.2095e+22
4.51634  1.21403e+22
4.63364  1.21721e+22
4.75095  1.21885e+22
4.86825  1.21892e+22
4.98556  1.21747e+22
5.10286  1.2147e+22
5.22017  1.21082e+22
5.33748  1.2061e+22
5.45478  1.20087e+22
5.57209  1.19547e+22
5.68939  1.19014e+22
5.8067  1.18515e+22
5.924  1.18068e+22
6.0413  1.17682e+22
6.15861  1.17356e+22
6.27591  1.17081e+22
6.39322  1.16839e+22
6.51052  1.16603e+22
6.62783  1.16337e+22
6.74514  1.16012e+22
6.86244  1.15591e+22
6.97975  1.15045e+22
7.09705  1.14351e+22
7.21436  1.13489e+22
7.33166  1.12463e+22
7.44897  1.11274e+22
7.56627  1.09941e+22
7.68358  1.08488e+22
7.80088  1.06954e+22
7.91819  1.05379e+22
8.03549  1.03813e+22
8.1528  1.02304e+22
8.2701  1.00899e+22
8.38741  9.96466e+21
8.50471  9.85875e+21
8.62202  9.77552e+21
8.73932  9.71793e+21
8.85662  9.68737e+21
8.97393  9.68433e+21
9.09123  9.70819e+21
9.20854  9.75743e+21
9.32584  9.82932e+21
9.44315  9.9192e+21
9.56045  1.00227e+22
9.67776  1.0134e+22
9.79506  1.02468e+22
9.91237  1.0355e+22
10.0297  1.04521e+22
10.147  1.0533e+22
10.2643  1.05931e+22
10.3816  1.06285e+22
10.4989  1.06384e+22
10.6162  1.06218e+22
10.7335  1.05804e+22
10.8508  1.05165e+22
10.9681  1.04337e+22
11.0854  1.03363e+22
11.2027  1.02285e+22
11.32  1.01142e+22
11.4373  9.9981e+21
11.5546  9.88292e+21
11.6719  9.77102e+21
11.7893  9.66393e+21
11.9066  9.5611e+21
12.0239  9.46234e+21
12.1412  9.3658e+21
12.2585  9.26896e+21
12.3758  9.16939e+21
12.4931  9.06516e+21
12.6104  8.9544e+21
12.7277  8.83671e+21
12.845  8.71277e+21
12.9623  8.58362e+21
13.0796  8.45291e+21
13.1969  8.3238e+21
13.3142  8.20062e+21
13.4315  8.08771e+21
13.5488  7.98932e+21
13.6661  7.90883e+21
13.7834  7.84877e+21
13.9007  7.81096e+21
14.018  7.79606e+21
14.1354  7.80237e+21
14.2527  7.82841e+21
14.37  7.87038e+21
14.4873  7.92382e+21
14.6046  7.98373e+21
14.7219  8.04416e+21
14.8392  8.09985e+21
14.9565  8.14517e+21
15.0738  8.17576e+21
15.1911  8.18927e+21
15.3084  8.18355e+21
15.4257  8.15932e+21
15.543  8.11795e+21
15.6603  8.0626e+21
15.7776  7.99746e+21
15.8949  7.92643e+21
16.0122  7.85338e+21
16.1295  7.78253e+21
16.2468  7.71645e+21
16.3641  7.65689e+21
16.4815  7.60452e+21
16.5988  7.55809e+21
16.7161  7.51606e+21
16.8334  7.47608e+21
16.9507  7.4346e+21
17.068  7.38837e+21
17.1853  7.33457e+21
17.3026  7.27031e+21
17.4199  7.19428e+21
17.5372  7.10601e+21
17.6545  7.00544e+21
17.7718  6.89514e+21
17.8891  6.77711e+21
18.0064  6.65484e+21
18.1237  6.53168e+21
18.241  6.41132e+21
18.3583  6.29661e+21
18.4756  6.18984e+21
18.5929  6.09272e+21
18.7102  6.00623e+21
18.8275  5.9296e+21
18.9449  5.86276e+21
19.0622  5.80399e+21
19.1795  5.7519e+21
19.2968  5.70524e+21
19.4141  5.66249e+21
19.5314  5.62278e+21
19.6487  5.58499e+21
19.766  5.54886e+21
19.8833  5.51489e+21
20.0006  5.4828e+21
20.1179  5.45374e+21
20.2352  5.42781e+21
20.3525  5.40576e+21
20.4698  5.38789e+21
20.5871  5.37356e+21
20.7044  5.36172e+21
20.8217  5.35105e+21
20.939  5.33962e+21
21.0563  5.32518e+21
21.1736  5.30551e+21
21.291  5.27823e+21
21.4083  5.24153e+21
21.5256  5.19493e+21
21.6429  5.13771e+21
21.7602  5.07055e+21
21.8775  4.99489e+21
21.9948  4.91246e+21
22.1121  4.82598e+21
22.2294  4.73833e+21
22.3467  4.65182e+21
22.464  4.56982e+21
22.5813  4.49418e+21
22.6986  4.42689e+21
22.8159  4.3687e+21
22.9332  4.31975e+21
23.0505  4.2792e+21
23.1678  4.24508e+21
23.2851  4.21506e+21
23.4024  4.18634e+21
23.5198  4.15551e+21
23.6371  4.12022e+21
23.7544  4.07818e+21
23.8717  4.02821e+21
23.989  3.97047e+21
24.1063  3.90597e+21
24.2236  3.83684e+21
24.3409  3.76557e+21
24.4582  3.69535e+21
24.5755  3.62947e+21
24.6928  3.57033e+21
24.8101  3.52035e+21
24.9274  3.48056e+21
25.0447  3.45155e+21
25.162  3.43265e+21
25.2793  3.42206e+21
25.3966  3.41742e+21
25.5139  3.41579e+21
25.6312  3.41405e+21
25.7485  3.40916e+21
25.8658  3.39846e+21
25.9832  3.37985e+21
26.1005  3.35206e+21
26.2178  3.31533e+21
26.3351  3.27031e+21
26.4524  3.21866e+21
26.5697  3.16282e+21
26.687  3.10523e+21
26.8043  3.0486e+21
26.9216  2.99545e+21
27.0389  2.94739e+21
27.1562  2.90623e+21
27.2735  2.87235e+21
27.3908  2.84596e+21
27.5081  2.8262e+21
27.6254  2.81174e+21
27.7427  2.8008e+21
27.86  2.79103e+21
27.9773  2.78018e+21
28.0946  2.766e+21
28.212  2.74648e+21
28.3293  2.72046e+21
28.4466  2.68753e+21
28.5639  2.6478e+21
28.6812  2.60261e+21
28.7985  2.55361e+21
28.9158  2.50278e+21
29.0331  2.4522e+21
29.1504  2.40362e+21
29.2677  2.35854e+21
29.385  2.31761e+21
29.5023  2.28113e+21
29.6196  2.24879e+21
29.7369  2.22004e+21
29.8542  2.19407e+21
29.9715  2.16965e+21
30.0888  2.14589e+21
30.2061  2.12181e+21
30.3234  2.0966e+21
30.4407  2.06989e+21
30.558  2.04135e+21
30.6754  2.01099e+21
30.7927  1.9789e+21
30.91  1.94597e+21
31.0273  1.91276e+21
31.1446  1.87989e+21
31.2619  1.84817e+21
31.3792  1.81783e+21
31.4965  1.78905e+21
31.6138  1.76164e+21
31.7311  1.73505e+21
31.8484  1.70891e+21
31.9657  1.68245e+21
32.083  1.65538e+21
32.2003  1.62721e+21
32.3176  1.59786e+21
32.4349  1.56754e+21
32.5522  1.5363e+21
32.6695  1.50467e+21
32.7868  1.47318e+21
32.9042  1.44239e+21
33.0215  1.41311e+21
33.1388  1.38616e+21
33.2561  1.36221e+21
33.3734  1.342e+21
33.4907  1.32594e+21
33.608  1.31406e+21
33.7253  1.30594e+21
33.8426  1.30069e+21
33.9599  1.29728e+21
34.0772  1.29427e+21
34.1945  1.29041e+21
34.3118  1.28459e+21
34.4291  1.27624e+21
34.5464  1.2651e+21
34.6637  1.25131e+21
34.781  1.23544e+21
34.8983  1.21809e+21
35.0156  1.20001e+21
35.1329  1.18185e+21
35.2503  1.16414e+21
35.3676  1.14732e+21
35.4849  1.13158e+21
35.6022  1.11743e+21
35.7195  1.10488e+21
35.8368  1.09384e+21
35.9541  1.08418e+21
36.0714  1.07532e+21
36.1887  1.06655e+21
36.306  1.05694e+21
36.4233  1.04547e+21
36.5406  1.03161e+21
36.6579  1.01497e+21
36.7752  9.95877e+20
36.8925  9.75052e+20
37.0098  9.53739e+20
37.1271  9.33421e+20
37.2444  9.15233e+20
37.3617  9.00184e+20
37.479  8.88645e+20
37.5964  8.80144e+20
37.7137  8.74042e+20
37.831  8.68996e+20
37.9483  8.6386e+20
38.0656  8.57496e+20
38.1829  8.49347e+20
38.3002  8.39422e+20
38.4175  8.27846e+20
38.5348  8.15333e+20
38.6521  8.02824e+20
38.7694  7.91024e+20
38.8867  7.8063e+20
39.004  7.71882e+20
39.1213  7.65099e+20
39.2386  7.6005e+20
39.3559  7.56625e+20
39.4732  7.54534e+20
39.5905  7.53349e+20
39.7078  7.52843e+20
39.8251  7.52637e+20
39.9425  7.52343e+20
40.0598  7.51579e+20
40.1771  7.50145e+20
40.2944  7.47938e+20
40.4117  7.44827e+20
40.529  7.41036e+20
40.6463  7.36836e+20
40.7636  7.32542e+20
40.8809  7.28751e+20
40.9982  7.25893e+20
41.1155  7.24157e+20
41.2328  7.23884e+20
41.3501  7.25013e+20
41.4674  7.27465e+20
41.5847  7.307e+20
41.702  7.34373e+20
41.8193  7.37786e+20
41.9366  7.40085e+20
42.0539  7.40416e+20
42.1712  7.37968e+20
42.2885  7.31759e+20
42.4059  7.212e+20
42.5232  7.05887e+20
42.6405  6.85797e+20
42.7578  6.61478e+20
42.8751  6.33891e+20
42.9924  6.04495e+20
43.1097  5.74649e+20
43.227  5.46087e+20
43.3443  5.20235e+20
43.4616  4.98023e+20
43.5789  4.80176e+20
43.6962  4.66619e+20
43.8135  4.57128e+20
43.9308  4.50897e+20
44.0481  4.47149e+20
44.1654  4.44996e+20
44.2827  4.43579e+20
44.4  4.4247e+20
44.5173  4.41423e+20
44.6347  4.40238e+20
44.752  4.39235e+20
44.8693  4.38914e+20
44.9866  4.40048e+20
45.1039  4.43321e+20
45.2212  4.4989e+20
45.3385  4.60407e+20
45.4558  4.75334e+20
45.5731  4.95036e+20
45.6904  5.19044e+20
45.8077  5.462e+20
45.925  5.75021e+20
46.0423  6.03389e+20
46.1596  6.29035e+20
46.2769  6.49522e+20
46.3942  6.63092e+20
46.5115  6.68315e+20
46.6288  6.64716e+20
46.7461  6.52496e+20
46.8634  6.32851e+20
46.9808  6.07402e+20
47.0981  5.7795e+20
47.2154  5.46758e+20
47.3327  5.15543e+20
47.45  4.8615e+20
47.5673  4.59701e+20
47.6846  4.36909e+20
47.8019  4.18116e+20
47.9192  4.03248e+20
48.0365  3.91935e+20
48.1538  3.83434e+20
48.2711  3.77001e+20
48.3884  3.71811e+20
48.5057  3.67119e+20
48.623  3.62327e+20
48.7403  3.57085e+20
48.8576  3.51295e+20
48.9749  3.45249e+20
49.0922  3.39534e+20
49.2095  3.35013e+20
49.3269  3.32352e+20
49.4442  3.32526e+20
49.5615  3.35965e+20
49.6788  3.43369e+20
49.7961  3.54721e+20
49.9134  3.69944e+20
50.0307  3.8838e+20
50.148  4.09182e+20
50.2653  4.3129e+20
50.3826  4.53311e+20
50.4999  4.73825e+20
50.6172  4.9164e+20
50.7345  5.05713e+20
50.8518  5.15413e+20
