#S 1 spectral density
#N 2
#UFWHM 29.7955
#L  abscissas [um]  spectral density
-58.5938  2.17539e+20
-58.4764  2.19022e+20
-58.3591  2.17974e+20
-58.2418  2.14237e+20
-58.1245  2.07948e+20
-58.0072  1.99553e+20
-57.8899  1.89783e+20
-57.7726  1.79483e+20
-57.6553  1.69549e+20
-57.538  1.60668e+20
-57.4207  1.53327e+20
-57.3034  1.47752e+20
-57.1861  1.43959e+20
-57.0688  1.41744e+20
-56.9515  1.40996e+20
-56.8342  1.41576e+20
-56.7169  1.43381e+20
-56.5996  1.46351e+20
-56.4823  1.50323e+20
-56.365  1.54974e+20
-56.2477  1.59868e+20
-56.1303  1.64501e+20
-56.013  1.6828e+20
-55.8957  1.70891e+20
-55.7784  1.72294e+20
-55.6611  1.72793e+20
-55.5438  1.73084e+20
-55.4265  1.74003e+20
-55.3092  1.76512e+20
-55.1919  1.81293e+20
-55.0746  1.88769e+20
-54.9573  1.98782e+20
-54.84  2.10688e+20
-54.7227  2.23666e+20
-54.6054  2.36484e+20
-54.4881  2.48004e+20
-54.3708  2.57206e+20
-54.2535  2.63431e+20
-54.1362  2.66243e+20
-54.0189  2.65532e+20
-53.9016  2.61529e+20
-53.7842  2.54531e+20
-53.6669  2.45094e+20
-53.5496  2.33855e+20
-53.4323  2.21492e+20
-53.315  2.088e+20
-53.1977  1.9646e+20
-53.0804  1.85085e+20
-52.9631  1.75102e+20
-52.8458  1.66711e+20
-52.7285  1.59816e+20
-52.6112  1.54208e+20
-52.4939  1.49482e+20
-52.3766  1.45448e+20
-52.2593  1.41986e+20
-52.142  1.39313e+20
-52.0247  1.37972e+20
-51.9074  1.3862e+20
-51.7901  1.42081e+20
-51.6728  1.48964e+20
-51.5555  1.59568e+20
-51.4381  1.73902e+20
-51.3208  1.91327e+20
-51.2035  2.11055e+20
-51.0862  2.31881e+20
-50.9689  2.52758e+20
-50.8516  2.7265e+20
-50.7343  2.90791e+20
-50.617  3.06747e+20
-50.4997  3.2053e+20
-50.3824  3.32119e+20
-50.2651  3.41892e+20
-50.1478  3.49976e+20
-50.0305  3.56666e+20
-49.9132  3.61953e+20
-49.7959  3.65805e+20
-49.6786  3.68002e+20
-49.5613  3.68251e+20
-49.444  3.66329e+20
-49.3267  3.6193e+20
-49.2094  3.54877e+20
-49.092  3.45137e+20
-48.9747  3.32879e+20
-48.8574  3.18445e+20
-48.7401  3.02284e+20
-48.6228  2.85139e+20
-48.5055  2.67807e+20
-48.3882  2.51054e+20
-48.2709  2.35752e+20
-48.1536  2.22698e+20
-48.0363  2.12489e+20
-47.919  2.05712e+20
-47.8017  2.02755e+20
-47.6844  2.0394e+20
-47.5671  2.09378e+20
-47.4498  2.18965e+20
-47.3325  2.3248e+20
-47.2152  2.4922e+20
-47.0979  2.68321e+20
-46.9806  2.88527e+20
-46.8633  3.08416e+20
-46.7459  3.26475e+20
-46.6286  3.41351e+20
-46.5113  3.52188e+20
-46.394  3.58601e+20
-46.2767  3.60947e+20
-46.1594  3.60212e+20
-46.0421  3.57932e+20
-45.9248  3.56004e+20
-45.8075  3.56289e+20
-45.6902  3.60397e+20
-45.5729  3.69356e+20
-45.4556  3.83524e+20
-45.3383  4.02546e+20
-45.221  4.25339e+20
-45.1037  4.50277e+20
-44.9864  4.75321e+20
-44.8691  4.98453e+20
-44.7518  5.17817e+20
-44.6345  5.31851e+20
-44.5172  5.3935e+20
-44.3998  5.39953e+20
-44.2825  5.33783e+20
-44.1652  5.21931e+20
-44.0479  5.05757e+20
-43.9306  4.87337e+20
-43.8133  4.6889e+20
-43.696  4.52488e+20
-43.5787  4.40066e+20
-43.4614  4.32872e+20
-43.3441  4.31351e+20
-43.2268  4.35155e+20
-43.1095  4.43169e+20
-42.9922  4.53785e+20
-42.8749  4.65089e+20
-42.7576  4.75262e+20
-42.6403  4.82875e+20
-42.523  4.8717e+20
-42.4057  4.88003e+20
-42.2884  4.86114e+20
-42.171  4.8275e+20
-42.0537  4.79145e+20
-41.9364  4.76974e+20
-41.8191  4.77278e+20
-41.7018  4.81028e+20
-41.5845  4.88248e+20
-41.4672  4.98545e+20
-41.3499  5.11003e+20
-41.2326  5.24239e+20
-41.1153  5.36655e+20
-40.998  5.46624e+20
-40.8807  5.52569e+20
-40.7634  5.53593e+20
-40.6461  5.48988e+20
-40.5288  5.39035e+20
-40.4115  5.24173e+20
-40.2942  5.05767e+20
-40.1769  4.85432e+20
-40.0596  4.65128e+20
-39.9423  4.46636e+20
-39.825  4.31512e+20
-39.7076  4.20972e+20
-39.5903  4.15464e+20
-39.473  4.15066e+20
-39.3557  4.19249e+20
-39.2384  4.27111e+20
-39.1211  4.37531e+20
-39.0038  4.49411e+20
-38.8865  4.61559e+20
-38.7692  4.72975e+20
-38.6519  4.82888e+20
-38.5346  4.9077e+20
-38.4173  4.9641e+20
-38.3  4.99913e+20
-38.1827  5.01822e+20
-38.0654  5.03211e+20
-37.9481  5.05314e+20
-37.8308  5.09863e+20
-37.7135  5.18323e+20
-37.5962  5.32177e+20
-37.4789  5.52134e+20
-37.3615  5.78093e+20
-37.2442  6.09126e+20
-37.1269  6.43155e+20
-37.0096  6.77803e+20
-36.8923  7.1007e+20
-36.775  7.37336e+20
-36.6577  7.57468e+20
-36.5404  7.69382e+20
-36.4231  7.72932e+20
-36.3058  7.68914e+20
-36.1885  7.59236e+20
-36.0712  7.45979e+20
-35.9539  7.31478e+20
-35.8366  7.1779e+20
-35.7193  7.06467e+20
-35.602  6.98778e+20
-35.4847  6.9494e+20
-35.3674  6.94811e+20
-35.2501  6.97914e+20
-35.1328  7.03302e+20
-35.0154  7.09824e+20
-34.8981  7.15995e+20
-34.7808  7.2044e+20
-34.6635  7.22064e+20
-34.5462  7.19674e+20
-34.4289  7.12774e+20
-34.3116  7.01438e+20
-34.1943  6.86234e+20
-34.077  6.68185e+20
-33.9597  6.48946e+20
-33.8424  6.30143e+20
-33.7251  6.13484e+20
-33.6078  6.00035e+20
-33.4905  5.90569e+20
-33.3732  5.85236e+20
-33.2559  5.83595e+20
-33.1386  5.85044e+20
-33.0213  5.88621e+20
-32.904  5.93489e+20
-32.7867  5.98989e+20
-32.6693  6.04825e+20
-32.552  6.10911e+20
-32.4347  6.17332e+20
-32.3174  6.24371e+20
-32.2001  6.32505e+20
-32.0828  6.4217e+20
-31.9655  6.53834e+20
-31.8482  6.67949e+20
-31.7309  6.85016e+20
-31.6136  7.0542e+20
-31.4963  7.29408e+20
-31.379  7.56981e+20
-31.2617  7.88079e+20
-31.1444  8.22096e+20
-31.0271  8.58398e+20
-30.9098  8.96296e+20
-30.7925  9.34734e+20
-30.6752  9.72923e+20
-30.5579  1.01029e+21
-30.4406  1.04631e+21
-30.3232  1.08072e+21
-30.2059  1.11329e+21
-30.0886  1.14411e+21
-29.9713  1.17325e+21
-29.854  1.20085e+21
-29.7367  1.22699e+21
-29.6194  1.2518e+21
-29.5021  1.2754e+21
-29.3848  1.29784e+21
-29.2675  1.31908e+21
-29.1502  1.33898e+21
-29.0329  1.35723e+21
-28.9156  1.37351e+21
-28.7983  1.38727e+21
-28.681  1.39818e+21
-28.5637  1.40622e+21
-28.4464  1.41158e+21
-28.3291  1.41487e+21
-28.2118  1.41709e+21
-28.0944  1.41958e+21
-27.9771  1.4237e+21
-27.8598  1.43068e+21
-27.7425  1.44128e+21
-27.6252  1.45603e+21
-27.5079  1.47467e+21
-27.3906  1.49661e+21
-27.2733  1.52098e+21
-27.156  1.54665e+21
-27.0387  1.573e+21
-26.9214  1.59943e+21
-26.8041  1.62603e+21
-26.6868  1.65337e+21
-26.5695  1.68253e+21
-26.4522  1.71495e+21
-26.3349  1.75221e+21
-26.2176  1.79591e+21
-26.1003  1.84708e+21
-25.983  1.90658e+21
-25.8657  1.9744e+21
-25.7483  2.04963e+21
-25.631  2.13067e+21
-25.5137  2.21474e+21
-25.3964  2.29899e+21
-25.2791  2.37972e+21
-25.1618  2.45357e+21
-25.0445  2.51729e+21
-24.9272  2.56871e+21
-24.8099  2.60643e+21
-24.6926  2.63047e+21
-24.5753  2.64186e+21
-24.458  2.64296e+21
-24.3407  2.63673e+21
-24.2234  2.62697e+21
-24.1061  2.61718e+21
-23.9888  2.6111e+21
-23.8715  2.61184e+21
-23.7542  2.6219e+21
-23.6369  2.64273e+21
-23.5196  2.67489e+21
-23.4023  2.71818e+21
-23.2849  2.77125e+21
-23.1676  2.83203e+21
-23.0503  2.89785e+21
-22.933  2.96588e+21
-22.8157  3.03303e+21
-22.6984  3.09681e+21
-22.5811  3.15521e+21
-22.4638  3.20729e+21
-22.3465  3.25289e+21
-22.2292  3.29303e+21
-22.1119  3.32945e+21
-21.9946  3.36479e+21
-21.8773  3.40175e+21
-21.76  3.44312e+21
-21.6427  3.49144e+21
-21.5254  3.54869e+21
-21.4081  3.61591e+21
-21.2908  3.69327e+21
-21.1735  3.78024e+21
-21.0561  3.87527e+21
-20.9388  3.97643e+21
-20.8215  4.08071e+21
-20.7042  4.18548e+21
-20.5869  4.2876e+21
-20.4696  4.3845e+21
-20.3523  4.47382e+21
-20.235  4.55445e+21
-20.1177  4.62529e+21
-20.0004  4.68695e+21
-19.8831  4.74039e+21
-19.7658  4.78719e+21
-19.6485  4.82917e+21
-19.5312  4.86865e+21
-19.4139  4.90675e+21
-19.2966  4.94496e+21
-19.1793  4.98378e+21
-19.062  5.02345e+21
-18.9447  5.06319e+21
-18.8274  5.10227e+21
-18.71  5.14043e+21
-18.5927  5.17707e+21
-18.4754  5.21222e+21
-18.3581  5.24677e+21
-18.2408  5.28194e+21
-18.1235  5.32e+21
-18.0062  5.36345e+21
-17.8889  5.41479e+21
-17.7716  5.47733e+21
-17.6543  5.55285e+21
-17.537  5.64353e+21
-17.4197  5.74989e+21
-17.3024  5.87197e+21
-17.1851  6.00824e+21
-17.0678  6.1558e+21
-16.9505  6.31149e+21
-16.8332  6.47115e+21
-16.7159  6.63006e+21
-16.5986  6.7835e+21
-16.4813  6.92772e+21
-16.364  7.05949e+21
-16.2466  7.1773e+21
-16.1293  7.28041e+21
-16.012  7.36963e+21
-15.8947  7.44707e+21
-15.7774  7.51598e+21
-15.6601  7.58004e+21
-15.5428  7.64349e+21
-15.4255  7.70974e+21
-15.3082  7.78254e+21
-15.1909  7.86517e+21
-15.0736  7.95842e+21
-14.9563  8.06308e+21
-14.839  8.17835e+21
-14.7217  8.3017e+21
-14.6044  8.43008e+21
-14.4871  8.55928e+21
-14.3698  8.68483e+21
-14.2525  8.80215e+21
-14.1352  8.90694e+21
-14.0178  8.99728e+21
-13.9005  9.07115e+21
-13.7832  9.12892e+21
-13.6659  9.17289e+21
-13.5486  9.20596e+21
-13.4313  9.23292e+21
-13.314  9.25832e+21
-13.1967  9.28696e+21
-13.0794  9.32377e+21
-12.9621  9.37076e+21
-12.8448  9.43096e+21
-12.7275  9.50417e+21
-12.6102  9.59e+21
-12.4929  9.68635e+21
-12.3756  9.79003e+21
-12.2583  9.89844e+21
-12.141  1.00081e+22
-12.0237  1.01155e+22
-11.9064  1.0218e+22
-11.7891  1.03135e+22
-11.6718  1.04008e+22
-11.5544  1.04804e+22
-11.4371  1.05537e+22
-11.3198  1.06219e+22
-11.2025  1.06881e+22
-11.0852  1.07557e+22
-10.9679  1.08276e+22
-10.8506  1.09065e+22
-10.7333  1.09945e+22
-10.616  1.10925e+22
-10.4987  1.12023e+22
-10.3814  1.13215e+22
-10.2641  1.14495e+22
-10.1468  1.15837e+22
-10.0295  1.17218e+22
-9.91217  1.186e+22
-9.79487  1.19956e+22
-9.67756  1.21248e+22
-9.56026  1.22445e+22
-9.44295  1.23511e+22
-9.32565  1.24429e+22
-9.20834  1.2517e+22
-9.09104  1.25724e+22
-8.97373  1.2609e+22
-8.85643  1.26266e+22
-8.73913  1.26267e+22
-8.62182  1.26114e+22
-8.50452  1.25836e+22
-8.38721  1.25472e+22
-8.26991  1.25051e+22
-8.1526  1.24626e+22
-8.03529  1.24233e+22
-7.91799  1.23918e+22
-7.80069  1.23724e+22
-7.68338  1.23689e+22
-7.56608  1.23851e+22
-7.44877  1.24244e+22
-7.33146  1.24889e+22
-7.21416  1.25799e+22
-7.09685  1.26979e+22
-6.97955  1.28414e+22
-6.86224  1.30082e+22
-6.74494  1.31955e+22
-6.62763  1.33968e+22
-6.51033  1.36066e+22
-6.39302  1.3818e+22
-6.27572  1.40232e+22
-6.15842  1.4215e+22
-6.04111  1.43866e+22
-5.92381  1.45319e+22
-5.8065  1.46478e+22
-5.68919  1.47312e+22
-5.57189  1.47829e+22
-5.45458  1.48046e+22
-5.33728  1.48014e+22
-5.21997  1.47781e+22
-5.10267  1.47417e+22
-4.98536  1.46988e+22
-4.86806  1.46557e+22
-4.75075  1.4618e+22
-4.63345  1.45897e+22
-4.51614  1.4573e+22
-4.39884  1.45686e+22
-4.28154  1.45763e+22
-4.16423  1.45931e+22
-4.04692  1.46161e+22
-3.92962  1.46417e+22
-3.81231  1.46665e+22
-3.69501  1.46871e+22
-3.5777  1.4701e+22
-3.4604  1.47077e+22
-3.34309  1.47071e+22
-3.22579  1.47012e+22
-3.10849  1.46931e+22
-2.99118  1.4687e+22
-2.87387  1.46883e+22
-2.75657  1.4702e+22
-2.63926  1.47332e+22
-2.52196  1.47856e+22
-2.40465  1.48614e+22
-2.28735  1.49608e+22
-2.17005  1.50819e+22
-2.05274  1.52217e+22
-1.93544  1.53726e+22
-1.81813  1.55276e+22
-1.70083  1.56782e+22
-1.58352  1.58155e+22
-1.46622  1.59314e+22
-1.34891  1.60196e+22
-1.2316  1.60752e+22
-1.1143  1.60966e+22
-0.996995  1.60845e+22
-0.87969  1.60431e+22
-0.762385  1.59779e+22
-0.64508  1.58979e+22
-0.527775  1.58117e+22
-0.41047  1.57286e+22
-0.293165  1.56575e+22
-0.17586  1.56056e+22
-0.058555  1.55784e+22
0.05875  1.55785e+22
0.176055  1.56057e+22
0.29336  1.56572e+22
0.410665  1.57283e+22
0.52797  1.5811e+22
0.645275  1.58967e+22
0.76258  1.59759e+22
0.879885  1.60399e+22
0.99719  1.60802e+22
1.1145  1.60908e+22
1.2318  1.6068e+22
1.3491  1.60111e+22
1.46641  1.59216e+22
1.58371  1.58041e+22
1.70102  1.56654e+22
1.81832  1.55137e+22
1.93563  1.53572e+22
2.05294  1.52053e+22
2.17024  1.50652e+22
2.28754  1.49428e+22
2.40485  1.48426e+22
2.52216  1.47659e+22
2.63946  1.4713e+22
2.75677  1.46809e+22
2.87407  1.46664e+22
2.99137  1.46639e+22
3.10868  1.46689e+22
3.22599  1.46758e+22
3.34329  1.46809e+22
3.4606  1.46806e+22
3.5779  1.4673e+22
3.69521  1.46578e+22
3.81251  1.46364e+22
3.92982  1.46107e+22
4.04712  1.45842e+22
4.16443  1.45607e+22
4.28173  1.45432e+22
4.39903  1.45352e+22
4.51634  1.45388e+22
4.63364  1.45552e+22
4.75095  1.45829e+22
4.86825  1.46199e+22
4.98556  1.46621e+22
5.10286  1.4704e+22
5.22017  1.47395e+22
5.33748  1.47616e+22
5.45478  1.47639e+22
5.57209  1.47406e+22
5.68939  1.46876e+22
5.8067  1.4603e+22
5.924  1.44861e+22
6.0413  1.43397e+22
6.15861  1.41673e+22
6.27591  1.39748e+22
6.39322  1.37694e+22
6.51052  1.35582e+22
6.62783  1.33481e+22
6.74514  1.3147e+22
6.86244  1.29606e+22
6.97975  1.27938e+22
7.09705  1.26509e+22
7.21436  1.25336e+22
7.33166  1.24429e+22
7.44897  1.23788e+22
7.56627  1.234e+22
7.68358  1.23235e+22
7.80088  1.23267e+22
7.91819  1.23456e+22
8.03549  1.23767e+22
8.1528  1.24153e+22
8.2701  1.24567e+22
8.38741  1.24972e+22
8.50471  1.25324e+22
8.62202  1.25584e+22
8.73932  1.25719e+22
8.85662  1.25702e+22
8.97393  1.2551e+22
9.09123  1.25129e+22
9.20854  1.24559e+22
9.32584  1.23809e+22
9.44315  1.22882e+22
9.56045  1.21806e+22
9.67776  1.20607e+22
9.79506  1.19311e+22
9.91237  1.17956e+22
10.0297  1.16575e+22
10.147  1.15199e+22
10.2643  1.13863e+22
10.3816  1.12587e+22
10.4989  1.114e+22
10.6162  1.10312e+22
10.7335  1.09332e+22
10.8508  1.08453e+22
10.9681  1.07666e+22
11.0854  1.06951e+22
11.2027  1.06276e+22
11.32  1.05609e+22
11.4373  1.04923e+22
11.5546  1.04189e+22
11.6719  1.03387e+22
11.7893  1.02511e+22
11.9066  1.01552e+22
12.0239  1.00525e+22
12.1412  9.9452e+21
12.2585  9.83581e+21
12.3758  9.7275e+21
12.4931  9.62389e+21
12.6104  9.52789e+21
12.7277  9.44264e+21
12.845  9.36998e+21
12.9623  9.31006e+21
13.0796  9.26312e+21
13.1969  9.22677e+21
13.3142  9.19778e+21
13.4315  9.17192e+21
13.5488  9.14461e+21
13.6661  9.11078e+21
13.7834  9.0659e+21
13.9007  9.00702e+21
14.018  8.93244e+21
14.1354  8.84115e+21
14.2527  8.73517e+21
14.37  8.61734e+21
14.4873  8.49108e+21
14.6046  8.36152e+21
14.7219  8.2329e+21
14.8392  8.10946e+21
14.9565  7.99458e+21
15.0738  7.88988e+21
15.1911  7.79705e+21
15.3084  7.71496e+21
15.4257  7.64228e+21
15.543  7.57617e+21
15.6603  7.51322e+21
15.7776  7.44973e+21
15.8949  7.38127e+21
16.0122  7.30412e+21
16.1295  7.21518e+21
16.2468  7.11256e+21
16.3641  6.99527e+21
16.4815  6.86418e+21
16.5988  6.72077e+21
16.7161  6.56793e+21
16.8334  6.41034e+21
16.9507  6.25188e+21
17.068  6.09736e+21
17.1853  5.9509e+21
17.3026  5.81592e+21
17.4199  5.69517e+21
17.5372  5.59007e+21
17.6545  5.50031e+21
17.7718  5.42586e+21
17.8891  5.36427e+21
18.0064  5.3136e+21
18.1237  5.27067e+21
18.241  5.233e+21
18.3583  5.19802e+21
18.4756  5.1636e+21
18.5929  5.12848e+21
18.7102  5.09199e+21
18.8275  5.05365e+21
18.9449  5.01433e+21
19.0622  4.97454e+21
19.1795  4.93475e+21
19.2968  4.89572e+21
19.4141  4.85721e+21
19.5314  4.81896e+21
19.6487  4.77946e+21
19.766  4.73713e+21
19.8833  4.69024e+21
20.0006  4.6366e+21
20.1179  4.5748e+21
20.2352  4.5038e+21
20.3525  4.42344e+21
20.4698  4.33438e+21
20.5871  4.23795e+21
20.7044  4.13639e+21
20.8217  4.03225e+21
20.939  3.92861e+21
21.0563  3.82835e+21
21.1736  3.73415e+21
21.291  3.64813e+21
21.4083  3.57141e+21
21.5256  3.50514e+21
21.6429  3.44862e+21
21.7602  3.40095e+21
21.8775  3.36002e+21
21.9948  3.32348e+21
22.1121  3.28848e+21
22.2294  3.25235e+21
22.3467  3.21232e+21
22.464  3.16706e+21
22.5813  3.11524e+21
22.6986  3.05728e+21
22.8159  2.99394e+21
22.9332  2.92736e+21
23.0505  2.86007e+21
23.1678  2.79504e+21
23.2851  2.73514e+21
23.4024  2.68298e+21
23.5198  2.64054e+21
23.6371  2.60919e+21
23.7544  2.58925e+21
23.8717  2.57987e+21
23.989  2.57962e+21
24.1063  2.58611e+21
24.2236  2.5962e+21
24.3409  2.60611e+21
24.4582  2.61235e+21
24.5755  2.61123e+21
24.6928  2.59968e+21
24.8101  2.5755e+21
24.9274  2.53769e+21
25.0447  2.48628e+21
25.162  2.42271e+21
25.2793  2.34922e+21
25.3966  2.26898e+21
25.5139  2.18532e+21
25.6312  2.1018e+21
25.7485  2.02159e+21
25.8658  1.94713e+21
25.9832  1.88027e+21
26.1005  1.82145e+21
26.2178  1.771e+21
26.3351  1.72805e+21
26.4524  1.69138e+21
26.5697  1.65946e+21
26.687  1.63074e+21
26.8043  1.60375e+21
26.9216  1.57748e+21
27.0389  1.55135e+21
27.1562  1.52542e+21
27.2735  1.49996e+21
27.3908  1.47603e+21
27.5081  1.4545e+21
27.6254  1.43625e+21
27.7427  1.42197e+21
27.86  1.41179e+21
27.9773  1.40528e+21
28.0946  1.40154e+21
28.212  1.39938e+21
28.3293  1.39746e+21
28.4466  1.39444e+21
28.5639  1.38941e+21
28.6812  1.38157e+21
28.7985  1.37093e+21
28.9158  1.35743e+21
29.0331  1.34143e+21
29.1504  1.32346e+21
29.2677  1.30385e+21
29.385  1.28288e+21
29.5023  1.26069e+21
29.6196  1.23734e+21
29.7369  1.21276e+21
29.8542  1.18686e+21
29.9715  1.15949e+21
30.0888  1.13059e+21
30.2061  1.09998e+21
30.3234  1.06763e+21
30.4407  1.03348e+21
30.558  9.97794e+20
30.6754  9.60769e+20
30.7927  9.22869e+20
30.91  8.84853e+20
31.0273  8.47516e+20
31.1446  8.11637e+20
31.2619  7.78122e+20
31.3792  7.47607e+20
31.4965  7.20479e+20
31.6138  6.96985e+20
31.7311  6.77015e+20
31.8484  6.60349e+20
31.9657  6.46525e+20
32.083  6.35185e+20
32.2003  6.2581e+20
32.3176  6.17845e+20
32.4349  6.10971e+20
32.5522  6.04676e+20
32.6695  5.98742e+20
32.7868  5.93044e+20
32.9042  5.87627e+20
33.0215  5.82943e+20
33.1388  5.79563e+20
33.2561  5.78415e+20
33.3734  5.80253e+20
33.4907  5.85837e+20
33.608  5.95648e+20
33.7253  6.09315e+20
33.8426  6.26223e+20
33.9599  6.45157e+20
34.0772  6.64447e+20
34.1945  6.82511e+20
34.3118  6.97685e+20
34.4291  7.09027e+20
34.5464  7.15814e+20
34.6637  7.18088e+20
34.781  7.16494e+20
34.8983  7.11961e+20
35.0156  7.05842e+20
35.1329  6.99565e+20
35.2503  6.94367e+20
35.3676  6.91432e+20
35.4849  6.91689e+20
35.6022  6.95848e+20
35.7195  7.03851e+20
35.8368  7.15334e+20
35.9541  7.29259e+20
36.0714  7.43793e+20
36.1887  7.57087e+20
36.306  7.66811e+20
36.4233  7.70558e+20
36.5406  7.66828e+20
36.6579  7.54759e+20
36.7752  7.3447e+20
36.8925  7.07055e+20
37.0098  6.7477e+20
37.1271  6.40231e+20
37.2444  6.06318e+20
37.3617  5.75501e+20
37.479  5.49809e+20
37.5964  5.30193e+20
37.7137  5.16578e+20
37.831  5.08359e+20
37.9483  5.03948e+20
38.0656  5.01967e+20
38.1829  5.0069e+20
38.3002  4.98799e+20
38.4175  4.95287e+20
38.5348  4.89624e+20
38.6521  4.81743e+20
38.7694  4.71767e+20
38.8867  4.60297e+20
39.004  4.48147e+20
39.1213  4.3631e+20
39.2386  4.25939e+20
39.3559  4.18147e+20
39.4732  4.1407e+20
39.5905  4.14535e+20
39.7078  4.20132e+20
39.8251  4.30871e+20
39.9425  4.46011e+20
40.0598  4.64685e+20
40.1771  4.84934e+20
40.2944  5.05197e+20
40.4117  5.23516e+20
40.529  5.38285e+20
40.6463  5.48123e+20
40.7636  5.52503e+20
40.8809  5.51408e+20
40.9982  5.45301e+20
41.1155  5.35281e+20
41.2328  5.22838e+20
41.3501  5.09664e+20
41.4674  4.97257e+20
41.5847  4.87057e+20
41.702  4.80063e+20
41.8193  4.76438e+20
41.9366  4.76272e+20
42.0539  4.78555e+20
42.1712  4.82148e+20
42.2885  4.85632e+20
42.4059  4.87423e+20
42.5232  4.86506e+20
42.6405  4.82056e+20
42.7578  4.74395e+20
42.8751  4.64171e+20
42.9924  4.52767e+20
43.1097  4.42179e+20
43.227  4.34197e+20
43.3443  4.30477e+20
43.4616  4.32078e+20
43.5789  4.39329e+20
43.6962  4.51783e+20
43.8135  4.68086e+20
43.9308  4.86513e+20
44.0481  5.04767e+20
44.1654  5.20746e+20
44.2827  5.32445e+20
44.4  5.38332e+20
44.5173  5.37464e+20
44.6347  5.29742e+20
44.752  5.15666e+20
44.8693  4.96201e+20
44.9866  4.72954e+20
45.1039  4.47969e+20
45.2212  4.23178e+20
45.3385  4.00493e+20
45.4558  3.81691e+20
45.5731  3.67684e+20
45.6904  3.58855e+20
45.8077  3.54874e+20
45.925  3.54648e+20
46.0423  3.56601e+20
46.1596  3.5878e+20
46.2769  3.59389e+20
46.3942  3.56898e+20
46.5115  3.50312e+20
46.6288  3.39361e+20
46.7461  3.24395e+20
46.8634  3.06315e+20
46.9808  2.86418e+20
47.0981  2.66298e+20
47.2154  2.47321e+20
47.3327  2.30734e+20
47.45  2.17393e+20
47.5673  2.07968e+20
47.6846  2.02695e+20
47.8019  2.01703e+20
47.9192  2.04783e+20
48.0365  2.11679e+20
48.1538  2.21975e+20
48.2711  2.35113e+20
48.3884  2.50445e+20
48.5057  2.6716e+20
48.623  2.84481e+20
48.7403  3.01536e+20
48.8576  3.17599e+20
48.9749  3.31958e+20
49.0922  3.44061e+20
49.2095  3.53606e+20
49.3269  3.60514e+20
49.4442  3.64803e+20
49.5615  3.66636e+20
49.6788  3.66253e+20
49.7961  3.64011e+20
49.9134  3.60119e+20
50.0307  3.54787e+20
50.148  3.48129e+20
50.2653  3.40003e+20
50.3826  3.30262e+20
50.4999  3.18644e+20
50.6172  3.04917e+20
50.7345  2.88896e+20
