#S 1 spectral density
#N 2
#UFWHM 22.288
#L  abscissas [um]  spectral density
-58.5938  7.70127e+19
-58.4764  7.28673e+19
-58.3591  6.74814e+19
-58.2418  6.0828e+19
-58.1245  5.32653e+19
-58.0072  4.5569e+19
-57.8899  3.87373e+19
-57.7726  3.3808e+19
-57.6553  3.16584e+19
-57.538  3.27829e+19
-57.4207  3.71519e+19
-57.3034  4.4258e+19
-57.1861  5.32641e+19
-57.0688  6.32e+19
-56.9515  7.31642e+19
-56.8342  8.25058e+19
-56.7169  9.08475e+19
-56.5996  9.8193e+19
-56.4823  1.04664e+20
-56.365  1.10411e+20
-56.2477  1.15616e+20
-56.1303  1.20076e+20
-56.013  1.23643e+20
-55.8957  1.25936e+20
-55.7784  1.26655e+20
-55.6611  1.25547e+20
-55.5438  1.22519e+20
-55.4265  1.17784e+20
-55.3092  1.11523e+20
-55.1919  1.04123e+20
-55.0746  9.59953e+19
-54.9573  8.75125e+19
-54.84  7.91789e+19
-54.7227  7.13767e+19
-54.6054  6.47389e+19
-54.4881  5.98123e+19
-54.3708  5.71739e+19
-54.2535  5.72543e+19
-54.1362  6.02124e+19
-54.0189  6.58318e+19
-53.9016  7.35327e+19
-53.7842  8.23366e+19
-53.6669  9.11027e+19
-53.5496  9.86554e+19
-53.4323  1.04099e+20
-53.315  1.06925e+20
-53.1977  1.07117e+20
-53.0804  1.05191e+20
-52.9631  1.01966e+20
-52.8458  9.842e+19
-52.7285  9.54965e+19
-52.6112  9.38253e+19
-52.4939  9.37975e+19
-52.3766  9.53391e+19
-52.2593  9.82408e+19
-52.142  1.02112e+20
-52.0247  1.0655e+20
-51.9074  1.11333e+20
-51.7901  1.16289e+20
-51.6728  1.215e+20
-51.5555  1.27044e+20
-51.4381  1.32979e+20
-51.3208  1.39382e+20
-51.2035  1.46101e+20
-51.0862  1.52984e+20
-50.9689  1.59725e+20
-50.8516  1.66033e+20
-50.7343  1.71676e+20
-50.617  1.76467e+20
-50.4997  1.80331e+20
-50.3824  1.8334e+20
-50.2651  1.85628e+20
-50.1478  1.87457e+20
-50.0305  1.89075e+20
-49.9132  1.90798e+20
-49.7959  1.92817e+20
-49.6786  1.95351e+20
-49.5613  1.98398e+20
-49.444  2.01882e+20
-49.3267  2.05588e+20
-49.2094  2.09226e+20
-49.092  2.12398e+20
-48.9747  2.14834e+20
-48.8574  2.16281e+20
-48.7401  2.16727e+20
-48.6228  2.16253e+20
-48.5055  2.15154e+20
-48.3882  2.13835e+20
-48.2709  2.1271e+20
-48.1536  2.12201e+20
-48.0363  2.12562e+20
-47.919  2.14018e+20
-47.8017  2.16598e+20
-47.6844  2.20219e+20
-47.5671  2.24638e+20
-47.4498  2.2953e+20
-47.3325  2.34437e+20
-47.2152  2.38805e+20
-47.0979  2.41974e+20
-46.9806  2.43119e+20
-46.8633  2.41516e+20
-46.7459  2.36642e+20
-46.6286  2.28111e+20
-46.5113  2.15975e+20
-46.394  2.00703e+20
-46.2767  1.83263e+20
-46.1594  1.6491e+20
-46.0421  1.47156e+20
-45.9248  1.31463e+20
-45.8075  1.19152e+20
-45.6902  1.11148e+20
-45.5729  1.07997e+20
-45.4556  1.09737e+20
-45.3383  1.16121e+20
-45.221  1.26553e+20
-45.1037  1.40372e+20
-44.9864  1.56777e+20
-44.8691  1.75035e+20
-44.7518  1.94298e+20
-44.6345  2.13743e+20
-44.5172  2.32455e+20
-44.3998  2.49442e+20
-44.2825  2.63836e+20
-44.1652  2.74889e+20
-44.0479  2.82151e+20
-43.9306  2.85661e+20
-43.8133  2.85887e+20
-43.696  2.83734e+20
-43.5787  2.8049e+20
-43.4614  2.77518e+20
-43.3441  2.76068e+20
-43.2268  2.76972e+20
-43.1095  2.80573e+20
-42.9922  2.86613e+20
-42.8749  2.94371e+20
-42.7576  3.02649e+20
-42.6403  3.10289e+20
-42.523  3.16048e+20
-42.4057  3.19177e+20
-42.2884  3.19265e+20
-42.171  3.16336e+20
-42.0537  3.11025e+20
-41.9364  3.04122e+20
-41.8191  2.96776e+20
-41.7018  2.89983e+20
-41.5845  2.84696e+20
-41.4672  2.81598e+20
-41.3499  2.80993e+20
-41.2326  2.82772e+20
-41.1153  2.8656e+20
-40.998  2.91677e+20
-40.8807  2.97183e+20
-40.7634  3.02241e+20
-40.6461  3.06093e+20
-40.5288  3.08338e+20
-40.4115  3.08927e+20
-40.2942  3.08085e+20
-40.1769  3.06599e+20
-40.0596  3.05384e+20
-39.9423  3.05395e+20
-39.825  3.07395e+20
-39.7076  3.1183e+20
-39.5903  3.18812e+20
-39.473  3.28033e+20
-39.3557  3.38569e+20
-39.2384  3.4951e+20
-39.1211  3.59797e+20
-39.0038  3.6827e+20
-38.8865  3.74034e+20
-38.7692  3.76531e+20
-38.6519  3.75145e+20
-38.5346  3.69827e+20
-38.4173  3.60424e+20
-38.3  3.47328e+20
-38.1827  3.30942e+20
-38.0654  3.12035e+20
-37.9481  2.91718e+20
-37.8308  2.71174e+20
-37.7135  2.51857e+20
-37.5962  2.35164e+20
-37.4789  2.22169e+20
-37.3615  2.13609e+20
-37.2442  2.09659e+20
-37.1269  2.09988e+20
-37.0096  2.13843e+20
-36.8923  2.20099e+20
-36.775  2.27677e+20
-36.6577  2.35514e+20
-36.5404  2.43099e+20
-36.4231  2.50169e+20
-36.3058  2.5679e+20
-36.1885  2.63436e+20
-36.0712  2.7071e+20
-35.9539  2.79255e+20
-35.8366  2.89693e+20
-35.7193  3.02412e+20
-35.602  3.17826e+20
-35.4847  3.36313e+20
-35.3674  3.58041e+20
-35.2501  3.83097e+20
-35.1328  4.11169e+20
-35.0154  4.41646e+20
-34.8981  4.73274e+20
-34.7808  5.04571e+20
-34.6635  5.33476e+20
-34.5462  5.5789e+20
-34.4289  5.76143e+20
-34.3116  5.86793e+20
-34.1943  5.8943e+20
-34.077  5.84499e+20
-33.9597  5.73288e+20
-33.8424  5.57976e+20
-33.7251  5.40923e+20
-33.6078  5.24515e+20
-33.4905  5.10792e+20
-33.3732  5.01092e+20
-33.2559  4.96036e+20
-33.1386  4.95342e+20
-33.0213  4.98144e+20
-32.904  5.0321e+20
-32.7867  5.09025e+20
-32.6693  5.14034e+20
-32.552  5.17111e+20
-32.4347  5.17132e+20
-32.3174  5.13918e+20
-32.2001  5.07346e+20
-32.0828  4.98061e+20
-31.9655  4.87035e+20
-31.8482  4.75605e+20
-31.7309  4.65209e+20
-31.6136  4.57185e+20
-31.4963  4.52528e+20
-31.379  4.51843e+20
-31.2617  4.55129e+20
-31.1444  4.61746e+20
-31.0271  4.70474e+20
-30.9098  4.8024e+20
-30.7925  4.89354e+20
-30.6752  4.96789e+20
-30.5579  5.01841e+20
-30.4406  5.04354e+20
-30.3232  5.0477e+20
-30.2059  5.03685e+20
-30.0886  5.02225e+20
-29.9713  5.01626e+20
-29.854  5.02748e+20
-29.7367  5.06284e+20
-29.6194  5.12765e+20
-29.5021  5.22224e+20
-29.3848  5.343e+20
-29.2675  5.48519e+20
-29.1502  5.64078e+20
-29.0329  5.80139e+20
-28.9156  5.95621e+20
-28.7983  6.09635e+20
-28.681  6.21482e+20
-28.5637  6.30689e+20
-28.4464  6.37219e+20
-28.3291  6.41405e+20
-28.2118  6.43957e+20
-28.0944  6.45964e+20
-27.9771  6.4864e+20
-27.8598  6.53224e+20
-27.7425  6.60608e+20
-27.6252  6.71446e+20
-27.5079  6.86114e+20
-27.3906  7.04423e+20
-27.2733  7.26058e+20
-27.156  7.5009e+20
-27.0387  7.75839e+20
-26.9214  8.02327e+20
-26.8041  8.28739e+20
-26.6868  8.54271e+20
-26.5695  8.78376e+20
-26.4522  9.00676e+20
-26.3349  9.21158e+20
-26.2176  9.40071e+20
-26.1003  9.57711e+20
-25.983  9.74848e+20
-25.8657  9.92144e+20
-25.7483  1.01037e+21
-25.631  1.03021e+21
-25.5137  1.05195e+21
-25.3964  1.07577e+21
-25.2791  1.10148e+21
-25.1618  1.12888e+21
-25.0445  1.15743e+21
-24.9272  1.18702e+21
-24.8099  1.21749e+21
-24.6926  1.24916e+21
-24.5753  1.28243e+21
-24.458  1.318e+21
-24.3407  1.3563e+21
-24.2234  1.398e+21
-24.1061  1.44299e+21
-23.9888  1.49104e+21
-23.8715  1.54131e+21
-23.7542  1.59273e+21
-23.6369  1.6436e+21
-23.5196  1.69226e+21
-23.4023  1.73694e+21
-23.2849  1.77608e+21
-23.1676  1.80835e+21
-23.0503  1.83317e+21
-22.933  1.85048e+21
-22.8157  1.86112e+21
-22.6984  1.86675e+21
-22.5811  1.86972e+21
-22.4638  1.87305e+21
-22.3465  1.88014e+21
-22.2292  1.89419e+21
-22.1119  1.91797e+21
-21.9946  1.9536e+21
-21.8773  2.00176e+21
-21.76  2.06207e+21
-21.6427  2.13275e+21
-21.5254  2.21098e+21
-21.4081  2.29338e+21
-21.2908  2.37618e+21
-21.1735  2.45596e+21
-21.0561  2.53006e+21
-20.9388  2.59662e+21
-20.8215  2.65496e+21
-20.7042  2.70598e+21
-20.5869  2.75098e+21
-20.4696  2.79271e+21
-20.3523  2.83424e+21
-20.235  2.87867e+21
-20.1177  2.92876e+21
-20.0004  2.98721e+21
-19.8831  3.05552e+21
-19.7658  3.13443e+21
-19.6485  3.22328e+21
-19.5312  3.32089e+21
-19.4139  3.42452e+21
-19.2966  3.53132e+21
-19.1793  3.6379e+21
-19.062  3.74103e+21
-18.9447  3.83763e+21
-18.8274  3.92568e+21
-18.71  4.00432e+21
-18.5927  4.07356e+21
-18.4754  4.13463e+21
-18.3581  4.18983e+21
-18.2408  4.24227e+21
-18.1235  4.29513e+21
-18.0062  4.35171e+21
-17.8889  4.41447e+21
-17.7716  4.48578e+21
-17.6543  4.5665e+21
-17.537  4.65648e+21
-17.4197  4.75462e+21
-17.3024  4.85906e+21
-17.1851  4.96721e+21
-17.0678  5.07613e+21
-16.9505  5.18318e+21
-16.8332  5.28643e+21
-16.7159  5.38457e+21
-16.5986  5.47732e+21
-16.4813  5.56606e+21
-16.364  5.65297e+21
-16.2466  5.7412e+21
-16.1293  5.83418e+21
-16.012  5.93564e+21
-15.8947  6.04828e+21
-15.7774  6.1743e+21
-15.6601  6.31433e+21
-15.5428  6.4675e+21
-15.4255  6.63095e+21
-15.3082  6.80131e+21
-15.1909  6.97449e+21
-15.0736  7.14526e+21
-14.9563  7.30928e+21
-14.839  7.46313e+21
-14.7217  7.60382e+21
-14.6044  7.73007e+21
-14.4871  7.84248e+21
-14.3698  7.9423e+21
-14.2525  8.03193e+21
-14.1352  8.11437e+21
-14.0178  8.19368e+21
-13.9005  8.27282e+21
-13.7832  8.35459e+21
-13.6659  8.44075e+21
-13.5486  8.5319e+21
-13.4313  8.62729e+21
-13.314  8.72463e+21
-13.1967  8.8207e+21
-13.0794  8.91231e+21
-12.9621  8.99463e+21
-12.8448  9.06494e+21
-12.7275  9.11999e+21
-12.6102  9.15954e+21
-12.4929  9.18408e+21
-12.3756  9.19606e+21
-12.2583  9.20043e+21
-12.141  9.20316e+21
-12.0237  9.2108e+21
-11.9064  9.23037e+21
-11.7891  9.26877e+21
-11.6718  9.33184e+21
-11.5544  9.42423e+21
-11.4371  9.54898e+21
-11.3198  9.70637e+21
-11.2025  9.89527e+21
-11.0852  1.01125e+22
-10.9679  1.03527e+22
-10.8506  1.06092e+22
-10.7333  1.08741e+22
-10.616  1.11392e+22
-10.4987  1.13973e+22
-10.3814  1.16407e+22
-10.2641  1.18641e+22
-10.1468  1.20646e+22
-10.0295  1.22408e+22
-9.91217  1.23938e+22
-9.79487  1.25275e+22
-9.67756  1.26464e+22
-9.56026  1.27572e+22
-9.44295  1.2866e+22
-9.32565  1.29805e+22
-9.20834  1.31059e+22
-9.09104  1.32466e+22
-8.97373  1.34061e+22
-8.85643  1.35849e+22
-8.73913  1.37814e+22
-8.62182  1.39922e+22
-8.50452  1.42122e+22
-8.38721  1.44355e+22
-8.26991  1.46534e+22
-8.1526  1.48593e+22
-8.03529  1.50454e+22
-7.91799  1.52056e+22
-7.80069  1.53351e+22
-7.68338  1.54308e+22
-7.56608  1.54924e+22
-7.44877  1.5521e+22
-7.33146  1.55199e+22
-7.21416  1.54934e+22
-7.09685  1.54472e+22
-6.97955  1.53877e+22
-6.86224  1.53215e+22
-6.74494  1.52559e+22
-6.62763  1.51952e+22
-6.51033  1.51456e+22
-6.39302  1.51106e+22
-6.27572  1.5093e+22
-6.15842  1.50947e+22
-6.04111  1.51164e+22
-5.92381  1.51577e+22
-5.8065  1.52187e+22
-5.68919  1.52975e+22
-5.57189  1.5393e+22
-5.45458  1.55038e+22
-5.33728  1.5629e+22
-5.21997  1.5767e+22
-5.10267  1.59169e+22
-4.98536  1.60777e+22
-4.86806  1.62487e+22
-4.75075  1.64289e+22
-4.63345  1.66183e+22
-4.51614  1.68156e+22
-4.39884  1.70204e+22
-4.28154  1.72326e+22
-4.16423  1.74508e+22
-4.04692  1.7674e+22
-3.92962  1.79007e+22
-3.81231  1.81289e+22
-3.69501  1.83562e+22
-3.5777  1.85788e+22
-3.4604  1.87932e+22
-3.34309  1.89949e+22
-3.22579  1.91792e+22
-3.10849  1.93418e+22
-2.99118  1.94781e+22
-2.87387  1.9585e+22
-2.75657  1.96596e+22
-2.63926  1.97004e+22
-2.52196  1.97071e+22
-2.40465  1.96807e+22
-2.28735  1.96231e+22
-2.17005  1.95381e+22
-2.05274  1.94309e+22
-1.93544  1.93056e+22
-1.81813  1.91693e+22
-1.70083  1.90277e+22
-1.58352  1.88869e+22
-1.46622  1.8753e+22
-1.34891  1.86309e+22
-1.2316  1.85242e+22
-1.1143  1.84365e+22
-0.996995  1.83684e+22
-0.87969  1.83206e+22
-0.762385  1.82904e+22
-0.64508  1.82763e+22
-0.527775  1.8274e+22
-0.41047  1.82791e+22
-0.293165  1.82874e+22
-0.17586  1.82951e+22
-0.058555  1.82998e+22
0.05875  1.82994e+22
0.176055  1.82939e+22
0.29336  1.8285e+22
0.410665  1.8276e+22
0.52797  1.827e+22
0.645275  1.82717e+22
0.76258  1.8285e+22
0.879885  1.83143e+22
0.99719  1.83615e+22
1.1145  1.84287e+22
1.2318  1.85154e+22
1.3491  1.8621e+22
1.46641  1.87419e+22
1.58371  1.88743e+22
1.70102  1.90133e+22
1.81832  1.91531e+22
1.93563  1.92873e+22
2.05294  1.941e+22
2.17024  1.95154e+22
2.28754  1.95979e+22
2.40485  1.96529e+22
2.52216  1.96769e+22
2.63946  1.96679e+22
2.75677  1.96246e+22
2.87407  1.95478e+22
2.99137  1.94386e+22
3.10868  1.93001e+22
3.22599  1.91356e+22
3.34329  1.89498e+22
3.4606  1.87469e+22
3.5779  1.85314e+22
3.69521  1.83075e+22
3.81251  1.80797e+22
3.92982  1.78504e+22
4.04712  1.76229e+22
4.16443  1.73994e+22
4.28173  1.71806e+22
4.39903  1.6968e+22
4.51634  1.67626e+22
4.63364  1.6565e+22
4.75095  1.63753e+22
4.86825  1.61944e+22
4.98556  1.60229e+22
5.10286  1.58616e+22
5.22017  1.57113e+22
5.33748  1.5573e+22
5.45478  1.54475e+22
5.57209  1.53367e+22
5.68939  1.52407e+22
5.8067  1.51619e+22
5.924  1.5101e+22
6.0413  1.50596e+22
6.15861  1.50379e+22
6.27591  1.5036e+22
6.39322  1.50536e+22
6.51052  1.50885e+22
6.62783  1.51376e+22
6.74514  1.51974e+22
6.86244  1.52629e+22
6.97975  1.53277e+22
7.09705  1.5386e+22
7.21436  1.54307e+22
7.33166  1.54556e+22
7.44897  1.54552e+22
7.56627  1.54248e+22
7.68358  1.53613e+22
7.80088  1.52636e+22
7.91819  1.51323e+22
8.03549  1.49708e+22
8.1528  1.47839e+22
8.2701  1.4577e+22
8.38741  1.43581e+22
8.50471  1.41349e+22
8.62202  1.39145e+22
8.73932  1.37034e+22
8.85662  1.35073e+22
8.97393  1.33289e+22
9.09123  1.31695e+22
9.20854  1.30286e+22
9.32584  1.29034e+22
9.44315  1.27886e+22
9.56045  1.26789e+22
9.67776  1.25677e+22
9.79506  1.24476e+22
9.91237  1.23131e+22
10.0297  1.21589e+22
10.147  1.19817e+22
10.2643  1.17806e+22
10.3816  1.15562e+22
10.4989  1.13126e+22
10.6162  1.10546e+22
10.7335  1.07896e+22
10.8508  1.05253e+22
10.9681  1.02698e+22
11.0854  1.00311e+22
11.2027  9.81554e+21
11.32  9.62819e+21
11.4373  9.47241e+21
11.5546  9.3496e+21
11.6719  9.25865e+21
11.7893  9.19707e+21
11.9066  9.15997e+21
12.0239  9.14102e+21
12.1412  9.13424e+21
12.2585  9.13198e+21
12.3758  9.12759e+21
12.4931  9.1152e+21
12.6104  9.09027e+21
12.7277  9.05043e+21
12.845  8.99483e+21
12.9623  8.92392e+21
13.0796  8.84112e+21
13.1969  8.74929e+21
13.3142  8.65299e+21
13.4315  8.55542e+21
13.5488  8.4602e+21
13.6661  8.36925e+21
13.7834  8.28324e+21
13.9007  8.20173e+21
14.018  8.12309e+21
14.1354  8.04404e+21
14.2527  7.96164e+21
14.37  7.87245e+21
14.4873  7.77281e+21
14.6046  7.66066e+21
14.7219  7.5344e+21
14.8392  7.39401e+21
14.9565  7.24066e+21
15.0738  7.07673e+21
15.1911  6.90651e+21
15.3084  6.73388e+21
15.4257  6.56382e+21
15.543  6.40085e+21
15.6603  6.24846e+21
15.7776  6.10935e+21
15.8949  5.9839e+21
16.0122  5.87191e+21
16.1295  5.77106e+21
16.2468  5.67853e+21
16.3641  5.59085e+21
16.4815  5.50451e+21
16.5988  5.41639e+21
16.7161  5.32384e+21
16.8334  5.22654e+21
16.9507  5.12399e+21
17.068  5.0177e+21
17.1853  4.90961e+21
17.3026  4.80249e+21
17.4199  4.69904e+21
17.5372  4.6019e+21
17.6545  4.51273e+21
17.7718  4.4331e+21
17.8891  4.3626e+21
18.0064  4.30055e+21
18.1237  4.24472e+21
18.241  4.19238e+21
18.3583  4.14042e+21
18.4756  4.08554e+21
18.5929  4.02474e+21
18.7102  3.95588e+21
18.8275  3.87767e+21
18.9449  3.79003e+21
19.0622  3.69408e+21
19.1795  3.5917e+21
19.2968  3.4859e+21
19.4141  3.37997e+21
19.5314  3.27737e+21
19.6487  3.18091e+21
19.766  3.09307e+21
19.8833  3.01532e+21
20.0006  2.94787e+21
20.1179  2.89027e+21
20.2352  2.84086e+21
20.3525  2.7971e+21
20.4698  2.75623e+21
20.5871  2.71492e+21
20.7044  2.67024e+21
20.8217  2.61966e+21
20.939  2.56162e+21
21.0563  2.49551e+21
21.1736  2.42197e+21
21.291  2.34285e+21
21.4083  2.26077e+21
21.5256  2.17935e+21
21.6429  2.10207e+21
21.7602  2.03254e+21
21.8775  1.97335e+21
21.9948  1.9263e+21
22.1121  1.89174e+21
22.2294  1.86874e+21
22.3467  1.85548e+21
22.464  1.84909e+21
22.5813  1.84612e+21
22.6986  1.84355e+21
22.8159  1.83822e+21
22.9332  1.82773e+21
23.0505  1.8105e+21
23.1678  1.78594e+21
23.2851  1.75388e+21
23.4024  1.71504e+21
23.5198  1.67073e+21
23.6371  1.62261e+21
23.7544  1.5723e+21
23.8717  1.52157e+21
23.989  1.47194e+21
24.1063  1.42465e+21
24.2236  1.3804e+21
24.3409  1.33948e+21
24.4582  1.30183e+21
24.5755  1.26697e+21
24.6928  1.23431e+21
24.8101  1.20324e+21
24.9274  1.17326e+21
25.0447  1.14419e+21
25.162  1.11616e+21
25.2793  1.08936e+21
25.3966  1.06407e+21
25.5139  1.04074e+21
25.6312  1.01939e+21
25.7485  9.99979e+20
25.8658  9.82114e+20
25.9832  9.65118e+20
26.1005  9.48285e+20
26.2178  9.30944e+20
26.3351  9.12352e+20
26.4524  8.91995e+20
26.5697  8.69915e+20
26.687  8.46053e+20
26.8043  8.20726e+20
26.9216  7.94679e+20
27.0389  7.68455e+20
27.1562  7.43046e+20
27.2735  7.19277e+20
27.3908  6.98076e+20
27.5081  6.80081e+20
27.6254  6.65751e+20
27.7427  6.55263e+20
27.86  6.4818e+20
27.9773  6.43878e+20
28.0946  6.41414e+20
28.212  6.39572e+20
28.3293  6.37146e+20
28.4466  6.33078e+20
28.5639  6.26641e+20
28.6812  6.17487e+20
28.7985  6.05746e+20
28.9158  5.91869e+20
29.0331  5.76504e+20
29.1504  5.60627e+20
29.2677  5.45285e+20
29.385  5.3127e+20
29.5023  5.19433e+20
29.6196  5.10224e+20
29.7369  5.03999e+20
29.8542  5.007e+20
29.9715  4.9979e+20
30.0888  5.00614e+20
30.2061  5.02076e+20
30.3234  5.03185e+20
30.4407  5.02923e+20
30.558  5.00393e+20
30.6754  4.95348e+20
30.7927  4.8783e+20
30.91  4.78762e+20
31.0273  4.69166e+20
31.1446  4.60427e+20
31.2619  4.54004e+20
31.3792  4.50838e+20
31.4965  4.51675e+20
31.6138  4.56474e+20
31.7311  4.6457e+20
31.8484  4.75012e+20
31.9657  4.8646e+20
32.083  4.97436e+20
32.2003  5.06615e+20
32.3176  5.13074e+20
32.4349  5.16197e+20
32.5522  5.16004e+20
32.6695  5.12834e+20
32.7868  5.07713e+20
32.9042  5.01902e+20
33.0215  4.96803e+20
33.1388  4.94108e+20
33.2561  4.94853e+20
33.3734  5.00102e+20
33.4907  5.09895e+20
33.608  5.23703e+20
33.7253  5.4018e+20
33.8426  5.57169e+20
33.9599  5.72429e+20
34.0772  5.83395e+20
34.1945  5.88089e+20
34.3118  5.85203e+20
34.4291  5.74317e+20
34.5464  5.55928e+20
34.6637  5.31253e+20
34.781  5.02322e+20
34.8983  4.71046e+20
35.0156  4.39458e+20
35.1329  4.09133e+20
35.2503  3.81173e+20
35.3676  3.56352e+20
35.4849  3.34701e+20
35.6022  3.1634e+20
35.7195  3.01036e+20
35.8368  2.88482e+20
35.9541  2.78164e+20
36.0714  2.697e+20
36.1887  2.62496e+20
36.306  2.55866e+20
36.4233  2.49231e+20
36.5406  2.42178e+20
36.6579  2.3463e+20
36.7752  2.26744e+20
36.8925  2.19166e+20
37.0098  2.12964e+20
37.1271  2.0914e+20
37.2444  2.08898e+20
37.3617  2.12941e+20
37.479  2.21571e+20
37.5964  2.34633e+20
37.7137  2.5138e+20
37.831  2.70693e+20
37.9483  2.91178e+20
38.0656  3.11436e+20
38.1829  3.30242e+20
38.3002  3.46532e+20
38.4175  3.59565e+20
38.5348  3.68856e+20
38.6521  3.74102e+20
38.7694  3.75368e+20
38.8867  3.72825e+20
39.004  3.66985e+20
39.1213  3.58422e+20
39.2386  3.48126e+20
39.3559  3.37133e+20
39.4732  3.26572e+20
39.5905  3.17445e+20
39.7078  3.10486e+20
39.8251  3.06005e+20
39.9425  3.04008e+20
40.0598  3.04048e+20
40.1771  3.05259e+20
40.2944  3.06679e+20
40.4117  3.07429e+20
40.529  3.06844e+20
40.6463  3.04517e+20
40.7636  3.00666e+20
40.8809  2.95572e+20
40.9982  2.90048e+20
41.1155  2.85041e+20
41.2328  2.8133e+20
41.3501  2.79604e+20
41.4674  2.80294e+20
41.5847  2.83491e+20
41.702  2.88806e+20
41.8193  2.95599e+20
41.9366  3.02973e+20
42.0539  3.09848e+20
42.1712  3.15117e+20
42.2885  3.17916e+20
42.4059  3.17807e+20
42.5232  3.14568e+20
42.6405  3.08793e+20
42.7578  3.01103e+20
42.8751  2.92839e+20
42.9924  2.85145e+20
43.1097  2.79157e+20
43.227  2.75655e+20
43.3443  2.74808e+20
43.4616  2.76326e+20
43.5789  2.79287e+20
43.6962  2.82494e+20
43.8135  2.84529e+20
43.9308  2.84207e+20
44.0481  2.80588e+20
44.1654  2.73183e+20
44.2827  2.62086e+20
44.4  2.4764e+20
44.5173  2.30634e+20
44.6347  2.11994e+20
44.752  1.92613e+20
44.8693  1.73463e+20
44.9866  1.55341e+20
45.1039  1.39077e+20
45.2212  1.25404e+20
45.3385  1.15125e+20
45.4558  1.08928e+20
45.5731  1.07313e+20
45.6904  1.10611e+20
45.8077  1.18735e+20
45.925  1.31129e+20
46.0423  1.46842e+20
46.1596  1.64602e+20
46.2769  1.82894e+20
46.3942  2.00233e+20
46.5115  2.15384e+20
46.6288  2.27367e+20
46.7461  2.35788e+20
46.8634  2.40566e+20
46.9808  2.42078e+20
47.0981  2.40921e+20
47.2154  2.37766e+20
47.3327  2.33477e+20
47.45  2.28581e+20
47.5673  2.23743e+20
47.6846  2.19439e+20
47.8019  2.15909e+20
47.9192  2.13421e+20
48.0365  2.12016e+20
48.1538  2.11706e+20
48.2711  2.12277e+20
48.3884  2.13413e+20
48.5057  2.14745e+20
48.623  2.15769e+20
48.7403  2.16182e+20
48.8576  2.15662e+20
48.9749  2.14131e+20
49.0922  2.11658e+20
49.2095  2.08421e+20
49.3269  2.04757e+20
49.4442  2.00985e+20
49.5615  1.97511e+20
49.6788  1.94483e+20
49.7961  1.91964e+20
49.9134  1.8993e+20
50.0307  1.88255e+20
50.148  1.86611e+20
50.2653  1.84781e+20
50.3826  1.82465e+20
50.4999  1.79441e+20
50.6172  1.75545e+20
50.7345  1.70739e+20
50.8518  1.65079e+20
