#S 1 spectral density
#N 2
#UFWHM 30.7339
#L  abscissas [um]  spectral density
-58.5938  1.90494e+20
-58.4764  1.96594e+20
-58.3591  2.02077e+20
-58.2418  2.0667e+20
-58.1245  2.10171e+20
-58.0072  2.12517e+20
-57.8899  2.13809e+20
-57.7726  2.14169e+20
-57.6553  2.13768e+20
-57.538  2.12588e+20
-57.4207  2.10535e+20
-57.3034  2.07371e+20
-57.1861  2.02794e+20
-57.0688  1.96565e+20
-56.9515  1.88646e+20
-56.8342  1.79225e+20
-56.7169  1.68688e+20
-56.5996  1.57675e+20
-56.4823  1.46834e+20
-56.365  1.3677e+20
-56.2477  1.28018e+20
-56.1303  1.20977e+20
-56.013  1.15866e+20
-55.8957  1.12945e+20
-55.7784  1.12474e+20
-55.6611  1.14751e+20
-55.5438  1.20096e+20
-55.4265  1.28673e+20
-55.3092  1.40503e+20
-55.1919  1.55238e+20
-55.0746  1.72182e+20
-54.9573  1.90248e+20
-54.84  2.08069e+20
-54.7227  2.24401e+20
-54.6054  2.38035e+20
-54.4881  2.48147e+20
-54.3708  2.54364e+20
-54.2535  2.56818e+20
-54.1362  2.55947e+20
-54.0189  2.52398e+20
-53.9016  2.47007e+20
-53.7842  2.40307e+20
-53.6669  2.32939e+20
-53.5496  2.25172e+20
-53.4323  2.17224e+20
-53.315  2.09286e+20
-53.1977  2.01497e+20
-53.0804  1.94047e+20
-52.9631  1.87146e+20
-52.8458  1.81107e+20
-52.7285  1.76131e+20
-52.6112  1.72518e+20
-52.4939  1.70429e+20
-52.3766  1.70214e+20
-52.2593  1.72083e+20
-52.142  1.76333e+20
-52.0247  1.83272e+20
-51.9074  1.92971e+20
-51.7901  2.05416e+20
-51.6728  2.20234e+20
-51.5555  2.36702e+20
-51.4381  2.53927e+20
-51.3208  2.70635e+20
-51.2035  2.85783e+20
-51.0862  2.98307e+20
-50.9689  3.07715e+20
-50.8516  3.13878e+20
-50.7343  3.17178e+20
-50.617  3.1844e+20
-50.4997  3.18866e+20
-50.3824  3.19499e+20
-50.2651  3.21451e+20
-50.1478  3.25295e+20
-50.0305  3.31418e+20
-49.9132  3.39531e+20
-49.7959  3.49135e+20
-49.6786  3.5929e+20
-49.5613  3.68976e+20
-49.444  3.77234e+20
-49.3267  3.83176e+20
-49.2094  3.86089e+20
-49.092  3.85654e+20
-48.9747  3.81895e+20
-48.8574  3.75209e+20
-48.7401  3.66108e+20
-48.6228  3.55473e+20
-48.5055  3.44187e+20
-48.3882  3.32929e+20
-48.2709  3.22439e+20
-48.1536  3.13137e+20
-48.0363  3.05051e+20
-47.919  2.98137e+20
-47.8017  2.92053e+20
-47.6844  2.8647e+20
-47.5671  2.81021e+20
-47.4498  2.75439e+20
-47.3325  2.69711e+20
-47.2152  2.63917e+20
-47.0979  2.58431e+20
-46.9806  2.53763e+20
-46.8633  2.50625e+20
-46.7459  2.49751e+20
-46.6286  2.52081e+20
-46.5113  2.58603e+20
-46.394  2.70285e+20
-46.2767  2.87903e+20
-46.1594  3.11928e+20
-46.0421  3.42418e+20
-45.9248  3.78777e+20
-45.8075  4.19679e+20
-45.6902  4.63191e+20
-45.5729  5.06709e+20
-45.4556  5.47487e+20
-45.3383  5.82754e+20
-45.221  6.10205e+20
-45.1037  6.28183e+20
-44.9864  6.35924e+20
-44.8691  6.33814e+20
-44.7518  6.23259e+20
-44.6345  6.06317e+20
-44.5172  5.8535e+20
-44.3998  5.63149e+20
-44.2825  5.41995e+20
-44.1652  5.24047e+20
-44.0479  5.10529e+20
-43.9306  5.02204e+20
-43.8133  4.99054e+20
-43.696  5.00476e+20
-43.5787  5.05478e+20
-43.4614  5.1272e+20
-43.3441  5.20801e+20
-43.2268  5.28351e+20
-43.1095  5.34295e+20
-42.9922  5.37988e+20
-42.8749  5.39236e+20
-42.7576  5.38385e+20
-42.6403  5.36181e+20
-42.523  5.33785e+20
-42.4057  5.32314e+20
-42.2884  5.32994e+20
-42.171  5.36652e+20
-42.0537  5.43291e+20
-41.9364  5.5276e+20
-41.8191  5.6387e+20
-41.7018  5.75441e+20
-41.5845  5.85617e+20
-41.4672  5.92797e+20
-41.3499  5.95613e+20
-41.2326  5.93104e+20
-41.1153  5.84887e+20
-40.998  5.71218e+20
-40.8807  5.52821e+20
-40.7634  5.31193e+20
-40.6461  5.07821e+20
-40.5288  4.84745e+20
-40.4115  4.6346e+20
-40.2942  4.45703e+20
-40.1769  4.32493e+20
-40.0596  4.24544e+20
-39.9423  4.21825e+20
-39.825  4.23747e+20
-39.7076  4.2924e+20
-39.5903  4.36687e+20
-39.473  4.44418e+20
-39.3557  4.5087e+20
-39.2384  4.54703e+20
-39.1211  4.5515e+20
-39.0038  4.52178e+20
-38.8865  4.46197e+20
-38.7692  4.38201e+20
-38.6519  4.29589e+20
-38.5346  4.21924e+20
-38.4173  4.16705e+20
-38.3  4.15239e+20
-38.1827  4.18589e+20
-38.0654  4.27612e+20
-37.9481  4.42651e+20
-37.8308  4.63932e+20
-37.7135  4.91077e+20
-37.5962  5.23512e+20
-37.4789  5.60061e+20
-37.3615  5.9921e+20
-37.2442  6.39072e+20
-37.1269  6.7742e+20
-37.0096  7.12334e+20
-36.8923  7.42045e+20
-36.775  7.65535e+20
-36.6577  7.82475e+20
-36.5404  7.93482e+20
-36.4231  7.99737e+20
-36.3058  8.02771e+20
-36.1885  8.04389e+20
-36.0712  8.05841e+20
-35.9539  8.0792e+20
-35.8366  8.10596e+20
-35.7193  8.13213e+20
-35.602  8.14912e+20
-35.4847  8.14206e+20
-35.3674  8.10021e+20
-35.2501  8.01805e+20
-35.1328  7.89592e+20
-35.0154  7.73959e+20
-34.8981  7.55973e+20
-34.7808  7.3711e+20
-34.6635  7.19088e+20
-34.5462  7.033e+20
-34.4289  6.91079e+20
-34.3116  6.8341e+20
-34.1943  6.80811e+20
-34.077  6.83292e+20
-33.9597  6.90521e+20
-33.8424  7.01705e+20
-33.7251  7.15701e+20
-33.6078  7.30987e+20
-33.4905  7.46003e+20
-33.3732  7.59208e+20
-33.2559  7.69396e+20
-33.1386  7.75933e+20
-33.0213  7.78702e+20
-32.904  7.7828e+20
-32.7867  7.75856e+20
-32.6693  7.73146e+20
-32.552  7.71917e+20
-32.4347  7.73772e+20
-32.3174  7.80034e+20
-32.2001  7.91534e+20
-32.0828  8.08486e+20
-31.9655  8.30523e+20
-31.8482  8.56905e+20
-31.7309  8.86644e+20
-31.6136  9.18573e+20
-31.4963  9.51558e+20
-31.379  9.84509e+20
-31.2617  1.01675e+21
-31.1444  1.04746e+21
-31.0271  1.07636e+21
-30.9098  1.10347e+21
-30.7925  1.12878e+21
-30.6752  1.1527e+21
-30.5579  1.17583e+21
-30.4406  1.19866e+21
-30.3232  1.22162e+21
-30.2059  1.24482e+21
-30.0886  1.26826e+21
-29.9713  1.29148e+21
-29.854  1.31393e+21
-29.7367  1.33473e+21
-29.6194  1.35312e+21
-29.5021  1.36845e+21
-29.3848  1.38042e+21
-29.2675  1.38892e+21
-29.1502  1.39427e+21
-29.0329  1.39697e+21
-28.9156  1.39787e+21
-28.7983  1.39776e+21
-28.681  1.39766e+21
-28.5637  1.39868e+21
-28.4464  1.40181e+21
-28.3291  1.408e+21
-28.2118  1.4181e+21
-28.0944  1.43282e+21
-27.9771  1.45251e+21
-27.8598  1.47715e+21
-27.7425  1.50617e+21
-27.6252  1.53894e+21
-27.5079  1.57429e+21
-27.3906  1.61101e+21
-27.2733  1.64808e+21
-27.156  1.68449e+21
-27.0387  1.71992e+21
-26.9214  1.75424e+21
-26.8041  1.78773e+21
-26.6868  1.82111e+21
-26.5695  1.85513e+21
-26.4522  1.89059e+21
-26.3349  1.92814e+21
-26.2176  1.96838e+21
-26.1003  2.01129e+21
-25.983  2.05703e+21
-25.8657  2.1054e+21
-25.7483  2.15596e+21
-25.631  2.20844e+21
-25.5137  2.26193e+21
-25.3964  2.31631e+21
-25.2791  2.37085e+21
-25.1618  2.42536e+21
-25.0445  2.47932e+21
-24.9272  2.5329e+21
-24.8099  2.5859e+21
-24.6926  2.63859e+21
-24.5753  2.69085e+21
-24.458  2.74278e+21
-24.3407  2.79395e+21
-24.2234  2.84397e+21
-24.1061  2.89172e+21
-23.9888  2.93625e+21
-23.8715  2.97637e+21
-23.7542  3.011e+21
-23.6369  3.03916e+21
-23.5196  3.06022e+21
-23.4023  3.07435e+21
-23.2849  3.08192e+21
-23.1676  3.0839e+21
-23.0503  3.08182e+21
-22.933  3.07774e+21
-22.8157  3.07396e+21
-22.6984  3.07317e+21
-22.5811  3.0781e+21
-22.4638  3.09166e+21
-22.3465  3.11621e+21
-22.2292  3.15389e+21
-22.1119  3.20588e+21
-21.9946  3.27279e+21
-21.8773  3.35384e+21
-21.76  3.44741e+21
-21.6427  3.55097e+21
-21.5254  3.66152e+21
-21.4081  3.77541e+21
-21.2908  3.88927e+21
-21.1735  4.00022e+21
-21.0561  4.10618e+21
-20.9388  4.20633e+21
-20.8215  4.3003e+21
-20.7042  4.3893e+21
-20.5869  4.47493e+21
-20.4696  4.5595e+21
-20.3523  4.64508e+21
-20.235  4.73407e+21
-20.1177  4.82737e+21
-20.0004  4.92588e+21
-19.8831  5.0292e+21
-19.7658  5.13566e+21
-19.6485  5.24269e+21
-19.5312  5.34735e+21
-19.4139  5.44541e+21
-19.2966  5.53326e+21
-19.1793  5.60752e+21
-19.062  5.66583e+21
-18.9447  5.70663e+21
-18.8274  5.73003e+21
-18.71  5.73831e+21
-18.5927  5.73462e+21
-18.4754  5.7235e+21
-18.3581  5.71062e+21
-18.2408  5.7015e+21
-18.1235  5.70209e+21
-18.0062  5.71715e+21
-17.8889  5.75018e+21
-17.7716  5.80401e+21
-17.6543  5.8785e+21
-17.537  5.973e+21
-17.4197  6.08458e+21
-17.3024  6.20963e+21
-17.1851  6.34317e+21
-17.0678  6.47983e+21
-16.9505  6.6147e+21
-16.8332  6.7434e+21
-16.7159  6.86212e+21
-16.5986  6.96834e+21
-16.4813  7.06143e+21
-16.364  7.1421e+21
-16.2466  7.21266e+21
-16.1293  7.27649e+21
-16.012  7.33738e+21
-15.8947  7.39969e+21
-15.7774  7.46756e+21
-15.6601  7.5442e+21
-15.5428  7.63196e+21
-15.4255  7.7311e+21
-15.3082  7.84132e+21
-15.1909  7.96159e+21
-15.0736  8.08811e+21
-14.9563  8.21756e+21
-14.839  8.34635e+21
-14.7217  8.47011e+21
-14.6044  8.58556e+21
-14.4871  8.69005e+21
-14.3698  8.78194e+21
-14.2525  8.86055e+21
-14.1352  8.92633e+21
-14.0178  8.982e+21
-13.9005  9.02994e+21
-13.7832  9.07366e+21
-13.6659  9.11733e+21
-13.5486  9.16374e+21
-13.4313  9.21608e+21
-13.314  9.27542e+21
-13.1967  9.34181e+21
-13.0794  9.41456e+21
-12.9621  9.4901e+21
-12.8448  9.56596e+21
-12.7275  9.6379e+21
-12.6102  9.70305e+21
-12.4929  9.75864e+21
-12.3756  9.80309e+21
-12.2583  9.83734e+21
-12.141  9.86329e+21
-12.0237  9.88401e+21
-11.9064  9.90391e+21
-11.7891  9.92807e+21
-11.6718  9.96167e+21
-11.5544  1.00095e+22
-11.4371  1.00762e+22
-11.3198  1.01634e+22
-11.2025  1.02724e+22
-11.0852  1.04025e+22
-10.9679  1.05507e+22
-10.8506  1.07126e+22
-10.7333  1.08819e+22
-10.616  1.10518e+22
-10.4987  1.12166e+22
-10.3814  1.13682e+22
-10.2641  1.15018e+22
-10.1468  1.16134e+22
-10.0295  1.17013e+22
-9.91217  1.17649e+22
-9.79487  1.18069e+22
-9.67756  1.18305e+22
-9.56026  1.18407e+22
-9.44295  1.18424e+22
-9.32565  1.18421e+22
-9.20834  1.18441e+22
-9.09104  1.18529e+22
-8.97373  1.18721e+22
-8.85643  1.19028e+22
-8.73913  1.19458e+22
-8.62182  1.19998e+22
-8.50452  1.20629e+22
-8.38721  1.21328e+22
-8.26991  1.22051e+22
-8.1526  1.2278e+22
-8.03529  1.23481e+22
-7.91799  1.24138e+22
-7.80069  1.24747e+22
-7.68338  1.25307e+22
-7.56608  1.25842e+22
-7.44877  1.26382e+22
-7.33146  1.26958e+22
-7.21416  1.27609e+22
-7.09685  1.2837e+22
-6.97955  1.29266e+22
-6.86224  1.30315e+22
-6.74494  1.3153e+22
-6.62763  1.32883e+22
-6.51033  1.34352e+22
-6.39302  1.3589e+22
-6.27572  1.37441e+22
-6.15842  1.38938e+22
-6.04111  1.40316e+22
-5.92381  1.4151e+22
-5.8065  1.42477e+22
-5.68919  1.43172e+22
-5.57189  1.43589e+22
-5.45458  1.43726e+22
-5.33728  1.43621e+22
-5.21997  1.43315e+22
-5.10267  1.42871e+22
-4.98536  1.42356e+22
-4.86806  1.41841e+22
-4.75075  1.41389e+22
-4.63345  1.41057e+22
-4.51614  1.40881e+22
-4.39884  1.40882e+22
-4.28154  1.4107e+22
-4.16423  1.41422e+22
-4.04692  1.41911e+22
-3.92962  1.42495e+22
-3.81231  1.4313e+22
-3.69501  1.43764e+22
-3.5777  1.44351e+22
-3.4604  1.44862e+22
-3.34309  1.45269e+22
-3.22579  1.4557e+22
-3.10849  1.45773e+22
-2.99118  1.45902e+22
-2.87387  1.45998e+22
-2.75657  1.46103e+22
-2.63926  1.46265e+22
-2.52196  1.46525e+22
-2.40465  1.46911e+22
-2.28735  1.47436e+22
-2.17005  1.48098e+22
-2.05274  1.48884e+22
-1.93544  1.49745e+22
-1.81813  1.50633e+22
-1.70083  1.51487e+22
-1.58352  1.52247e+22
-1.46622  1.52853e+22
-1.34891  1.53266e+22
-1.2316  1.53451e+22
-1.1143  1.53402e+22
-0.996995  1.53127e+22
-0.87969  1.52662e+22
-0.762385  1.52049e+22
-0.64508  1.51355e+22
-0.527775  1.50642e+22
-0.41047  1.49976e+22
-0.293165  1.49416e+22
-0.17586  1.49013e+22
-0.058555  1.48803e+22
0.05875  1.48803e+22
0.176055  1.49013e+22
0.29336  1.49412e+22
0.410665  1.4997e+22
0.52797  1.50635e+22
0.645275  1.51343e+22
0.76258  1.5203e+22
0.879885  1.52633e+22
0.99719  1.53088e+22
1.1145  1.53349e+22
1.2318  1.53385e+22
1.3491  1.53188e+22
1.46641  1.52763e+22
1.58371  1.52139e+22
1.70102  1.51363e+22
1.81832  1.50495e+22
1.93563  1.4959e+22
2.05294  1.48716e+22
2.17024  1.47922e+22
2.28754  1.47244e+22
2.40485  1.46706e+22
2.52216  1.46308e+22
2.63946  1.4604e+22
2.75677  1.45865e+22
2.87407  1.4575e+22
2.99137  1.45641e+22
3.10868  1.455e+22
3.22599  1.45287e+22
3.34329  1.44981e+22
3.4606  1.44568e+22
3.5779  1.44055e+22
3.69521  1.43461e+22
3.81251  1.42826e+22
3.92982  1.4219e+22
4.04712  1.41605e+22
4.16443  1.41119e+22
4.28173  1.40768e+22
4.39903  1.40583e+22
4.51634  1.4058e+22
4.63364  1.40756e+22
4.75095  1.41085e+22
4.86825  1.4153e+22
4.98556  1.42037e+22
5.10286  1.42541e+22
5.22017  1.42975e+22
5.33748  1.43268e+22
5.45478  1.43359e+22
5.57209  1.43206e+22
5.68939  1.42776e+22
5.8067  1.42067e+22
5.924  1.4109e+22
6.0413  1.39887e+22
6.15861  1.38501e+22
6.27591  1.36998e+22
6.39322  1.35447e+22
6.51052  1.33911e+22
6.62783  1.3244e+22
6.74514  1.31087e+22
6.86244  1.29879e+22
6.97975  1.28828e+22
7.09705  1.27933e+22
7.21436  1.27172e+22
7.33166  1.2652e+22
7.44897  1.25939e+22
7.56627  1.25398e+22
7.68358  1.24853e+22
7.80088  1.24283e+22
7.91819  1.23667e+22
8.03549  1.23002e+22
8.1528  1.22295e+22
8.2701  1.21558e+22
8.38741  1.20822e+22
8.50471  1.2012e+22
8.62202  1.1948e+22
8.73932  1.18933e+22
8.85662  1.18498e+22
8.97393  1.18186e+22
9.09123  1.17989e+22
9.20854  1.17892e+22
9.32584  1.17869e+22
9.44315  1.17866e+22
9.56045  1.17838e+22
9.67776  1.1773e+22
9.79506  1.17483e+22
9.91237  1.17055e+22
10.0297  1.16408e+22
10.147  1.15523e+22
10.2643  1.14401e+22
10.3816  1.13057e+22
10.4989  1.11539e+22
10.6162  1.09894e+22
10.7335  1.08192e+22
10.8508  1.06499e+22
10.9681  1.04886e+22
11.0854  1.03414e+22
11.2027  1.02122e+22
11.32  1.01038e+22
11.4373  1.00172e+22
11.5546  9.95145e+21
11.6719  9.90393e+21
11.7893  9.87095e+21
11.9066  9.84706e+21
12.0239  9.82711e+21
12.1412  9.8065e+21
12.2585  9.78052e+21
12.3758  9.74577e+21
12.4931  9.70065e+21
12.6104  9.64457e+21
12.7277  9.57919e+21
12.845  9.50689e+21
12.9623  9.43051e+21
13.0796  9.3545e+21
13.1969  9.28175e+21
13.3142  9.21483e+21
13.4315  9.1551e+21
13.5488  9.10265e+21
13.6661  9.05579e+21
13.7834  9.01176e+21
13.9007  8.96748e+21
14.018  8.91942e+21
14.1354  8.86323e+21
14.2527  8.79674e+21
14.37  8.71792e+21
14.4873  8.62561e+21
14.6046  8.52087e+21
14.7219  8.40521e+21
14.8392  8.28141e+21
14.9565  8.15305e+21
15.0738  8.02342e+21
15.1911  7.89731e+21
15.3084  7.77751e+21
15.4257  7.66727e+21
15.543  7.56814e+21
15.6603  7.48083e+21
15.7776  7.40464e+21
15.8949  7.33702e+21
16.0122  7.27477e+21
16.1295  7.21385e+21
16.2468  7.15015e+21
16.3641  7.07961e+21
16.4815  6.99919e+21
16.5988  6.90638e+21
16.7161  6.80019e+21
16.8334  6.68233e+21
16.9507  6.55434e+21
17.068  6.42015e+21
17.1853  6.28426e+21
17.3026  6.15163e+21
17.4199  6.02772e+21
17.5372  5.91731e+21
17.6545  5.82361e+21
17.7718  5.75013e+21
17.8891  5.69734e+21
18.0064  5.66492e+21
18.1237  5.65037e+21
18.241  5.65015e+21
18.3583  5.65933e+21
18.4756  5.67218e+21
18.5929  5.6831e+21
18.7102  5.68668e+21
18.8275  5.67791e+21
18.9449  5.65403e+21
19.0622  5.61299e+21
19.1795  5.55444e+21
19.2968  5.48001e+21
19.4141  5.39198e+21
19.5314  5.29412e+21
19.6487  5.18988e+21
19.766  5.08305e+21
19.8833  4.97712e+21
20.0006  4.87425e+21
20.1179  4.77614e+21
20.2352  4.68318e+21
20.3525  4.59479e+21
20.4698  4.50967e+21
20.5871  4.42558e+21
20.7044  4.34034e+21
20.8217  4.25163e+21
20.939  4.15793e+21
21.0563  4.05826e+21
21.1736  3.95273e+21
21.291  3.84239e+21
21.4083  3.72902e+21
21.5256  3.61606e+21
21.6429  3.50644e+21
21.7602  3.40379e+21
21.8775  3.31115e+21
21.9948  3.23104e+21
22.1121  3.16509e+21
22.2294  3.11398e+21
22.3467  3.07695e+21
22.464  3.05313e+21
22.5813  3.04007e+21
22.6986  3.03562e+21
22.8159  3.0367e+21
22.9332  3.04072e+21
23.0505  3.045e+21
23.1678  3.04726e+21
23.2851  3.04544e+21
23.4024  3.03805e+21
23.5198  3.02405e+21
23.6371  3.00313e+21
23.7544  2.97532e+21
23.8717  2.94097e+21
23.989  2.90114e+21
24.1063  2.85698e+21
24.2236  2.80968e+21
24.3409  2.76011e+21
24.4582  2.70939e+21
24.5755  2.65801e+21
24.6928  2.60609e+21
24.8101  2.55386e+21
24.9274  2.50126e+21
25.0447  2.4481e+21
25.162  2.39456e+21
25.2793  2.3406e+21
25.3966  2.28656e+21
25.5139  2.23266e+21
25.6312  2.17946e+21
25.7485  2.12756e+21
25.8658  2.0774e+21
25.9832  2.02963e+21
26.1005  1.98419e+21
26.2178  1.9417e+21
26.3351  1.90199e+21
26.4524  1.86481e+21
26.5697  1.82974e+21
26.687  1.79609e+21
26.8043  1.76305e+21
26.9216  1.72988e+21
27.0389  1.69592e+21
27.1562  1.66093e+21
27.2735  1.62479e+21
27.3908  1.58824e+21
27.5081  1.55197e+21
27.6254  1.51711e+21
27.7427  1.48488e+21
27.86  1.45638e+21
27.9773  1.43234e+21
28.0946  1.41318e+21
28.212  1.39893e+21
28.3293  1.38925e+21
28.4466  1.38344e+21
28.5639  1.38069e+21
28.6812  1.3799e+21
28.7985  1.38023e+21
28.9158  1.3805e+21
29.0331  1.37977e+21
29.1504  1.37718e+21
29.2677  1.37198e+21
29.385  1.36356e+21
29.5023  1.3517e+21
29.6196  1.33649e+21
29.7369  1.31825e+21
29.8542  1.29768e+21
29.9715  1.27548e+21
30.0888  1.25254e+21
30.2061  1.22941e+21
30.3234  1.20649e+21
30.4407  1.18385e+21
30.558  1.16137e+21
30.6754  1.13855e+21
30.7927  1.11485e+21
30.91  1.08987e+21
31.0273  1.06317e+21
31.1446  1.03453e+21
31.2619  1.00415e+21
31.3792  9.72368e+20
31.4965  9.39731e+20
31.6138  9.07178e+20
31.7311  8.75669e+20
31.8484  8.46407e+20
31.9657  8.20444e+20
32.083  7.98904e+20
32.2003  7.82439e+20
32.3176  7.71317e+20
32.4349  7.65412e+20
32.5522  7.63819e+20
32.6695  7.65287e+20
32.7868  7.68151e+20
32.9042  7.70581e+20
33.0215  7.71078e+20
33.1388  7.68312e+20
33.2561  7.61879e+20
33.3734  7.51673e+20
33.4907  7.38525e+20
33.608  7.23737e+20
33.7253  7.08655e+20
33.8426  6.94969e+20
33.9599  6.84097e+20
34.0772  6.77194e+20
34.1945  6.75095e+20
34.3118  6.78069e+20
34.4291  6.86122e+20
34.5464  6.98594e+20
34.6637  7.14561e+20
34.781  7.32805e+20
34.8983  7.51711e+20
35.0156  7.69743e+20
35.1329  7.85466e+20
35.2503  7.9771e+20
35.3676  8.05828e+20
35.4849  8.09943e+20
35.6022  8.10766e+20
35.7195  8.09263e+20
35.8368  8.06721e+20
35.9541  8.04301e+20
36.0714  8.02376e+20
36.1887  8.01111e+20
36.306  7.99749e+20
36.4233  7.96666e+20
36.5406  7.9042e+20
36.6579  7.79374e+20
36.7752  7.62357e+20
36.8925  7.38703e+20
37.0098  7.08872e+20
37.1271  6.7391e+20
37.2444  6.35514e+20
37.3617  5.95681e+20
37.479  5.56652e+20
37.5964  5.20288e+20
37.7137  4.88059e+20
37.831  4.61171e+20
37.9483  4.40158e+20
38.0656  4.25387e+20
38.1829  4.1667e+20
38.3002  4.13612e+20
38.4175  4.15291e+20
38.5348  4.20724e+20
38.6521  4.28564e+20
38.7694  4.37211e+20
38.8867  4.45215e+20
39.004  4.51183e+20
39.1213  4.54151e+20
39.2386  4.53629e+20
39.3559  4.49727e+20
39.4732  4.43257e+20
39.5905  4.35443e+20
39.7078  4.28008e+20
39.8251  4.22689e+20
39.9425  4.2082e+20
40.0598  4.2378e+20
40.1771  4.31798e+20
40.2944  4.45146e+20
40.4117  4.63039e+20
40.529  4.84401e+20
40.6463  5.07569e+20
40.7636  5.30824e+20
40.8809  5.52474e+20
40.9982  5.70737e+20
41.1155  5.84278e+20
41.2328  5.92345e+20
41.3501  5.94732e+20
41.4674  5.91765e+20
41.5847  5.84462e+20
41.702  5.743e+20
41.8193  5.62715e+20
41.9366  5.51623e+20
42.0539  5.42215e+20
42.1712  5.35574e+20
42.2885  5.32107e+20
42.4059  5.314e+20
42.5232  5.32893e+20
42.6405  5.35203e+20
42.7578  5.37411e+20
42.8751  5.38225e+20
42.9924  5.36853e+20
43.1097  5.33084e+20
43.227  5.27057e+20
43.3443  5.19491e+20
43.4616  5.11404e+20
43.5789  5.04139e+20
43.6962  4.99198e+20
43.8135  4.97782e+20
43.9308  5.01089e+20
44.0481  5.09474e+20
44.1654  5.23038e+20
44.2827  5.41049e+20
44.4  5.62133e+20
44.5173  5.84217e+20
44.6347  6.04977e+20
44.752  6.21846e+20
44.8693  6.32108e+20
44.9866  6.33812e+20
45.1039  6.25799e+20
45.2212  6.07611e+20
45.3385  5.79918e+20
45.4558  5.44569e+20
45.5731  5.03752e+20
45.6904  4.60252e+20
45.8077  4.16912e+20
45.925  3.76203e+20
46.0423  3.40132e+20
46.1596  3.09885e+20
46.2769  2.86095e+20
46.3942  2.68734e+20
46.5115  2.57249e+20
46.6288  2.50915e+20
46.7461  2.48716e+20
46.8634  2.49689e+20
46.9808  2.5289e+20
47.0981  2.57594e+20
47.2154  2.63101e+20
47.3327  2.68872e+20
47.45  2.74596e+20
47.5673  2.80143e+20
47.6846  2.85542e+20
47.8019  2.9114e+20
47.9192  2.97186e+20
48.0365  3.04107e+20
48.1538  3.12172e+20
48.2711  3.21505e+20
48.3884  3.31984e+20
48.5057  3.43154e+20
48.623  3.5445e+20
48.7403  3.64975e+20
48.8576  3.73976e+20
48.9749  3.80608e+20
49.0922  3.84215e+20
49.2095  3.84466e+20
49.3269  3.81439e+20
49.4442  3.75458e+20
49.5615  3.67152e+20
49.6788  3.5738e+20
49.7961  3.47277e+20
49.9134  3.3771e+20
50.0307  3.29629e+20
50.148  3.23637e+20
50.2653  3.19828e+20
50.3826  3.17946e+20
50.4999  3.17325e+20
50.6172  3.16935e+20
50.7345  3.15587e+20
50.8518  3.12231e+20
