#S 1 spectral density
#N 2
#UFWHM 31.6724
#L  abscissas [um]  spectral density
-58.5938  3.14074e+20
-58.4764  3.23223e+20
-58.3591  3.28598e+20
-58.2418  3.28788e+20
-58.1245  3.23053e+20
-58.0072  3.1149e+20
-57.8899  2.94983e+20
-57.7726  2.75156e+20
-57.6553  2.54046e+20
-57.538  2.3385e+20
-57.4207  2.1654e+20
-57.3034  2.03662e+20
-57.1861  1.96145e+20
-57.0688  1.94372e+20
-56.9515  1.98062e+20
-56.8342  2.06531e+20
-56.7169  2.18739e+20
-56.5996  2.33389e+20
-56.4823  2.49085e+20
-56.365  2.64362e+20
-56.2477  2.7788e+20
-56.1303  2.88507e+20
-56.013  2.95355e+20
-55.8957  2.98139e+20
-55.7784  2.9685e+20
-55.6611  2.92218e+20
-55.5438  2.85212e+20
-55.4265  2.7694e+20
-55.3092  2.68593e+20
-55.1919  2.61212e+20
-55.0746  2.55412e+20
-54.9573  2.5144e+20
-54.84  2.49136e+20
-54.7227  2.48336e+20
-54.6054  2.48524e+20
-54.4881  2.49368e+20
-54.3708  2.50675e+20
-54.2535  2.52428e+20
-54.1362  2.5472e+20
-54.0189  2.57695e+20
-53.9016  2.6147e+20
-53.7842  2.6602e+20
-53.6669  2.71387e+20
-53.5496  2.77554e+20
-53.4323  2.84399e+20
-53.315  2.92e+20
-53.1977  3.00409e+20
-53.0804  3.09592e+20
-52.9631  3.19494e+20
-52.8458  3.29976e+20
-52.7285  3.40452e+20
-52.6112  3.50315e+20
-52.4939  3.58759e+20
-52.3766  3.65182e+20
-52.2593  3.69061e+20
-52.142  3.70337e+20
-52.0247  3.69611e+20
-51.9074  3.67808e+20
-51.7901  3.6633e+20
-51.6728  3.66786e+20
-51.5555  3.70752e+20
-51.4381  3.79447e+20
-51.3208  3.93579e+20
-51.2035  4.13411e+20
-51.0862  4.38452e+20
-50.9689  4.67669e+20
-50.8516  4.99448e+20
-50.7343  5.31939e+20
-50.617  5.63046e+20
-50.4997  5.90788e+20
-50.3824  6.1323e+20
-50.2651  6.28903e+20
-50.1478  6.36783e+20
-50.0305  6.36542e+20
-49.9132  6.28351e+20
-49.7959  6.13116e+20
-49.6786  5.92131e+20
-49.5613  5.67127e+20
-49.444  5.40038e+20
-49.3267  5.12616e+20
-49.2094  4.86106e+20
-49.092  4.61686e+20
-48.9747  4.39642e+20
-48.8574  4.20175e+20
-48.7401  4.02805e+20
-48.6228  3.86999e+20
-48.5055  3.72235e+20
-48.3882  3.57886e+20
-48.2709  3.43824e+20
-48.1536  3.30186e+20
-48.0363  3.17398e+20
-47.919  3.06301e+20
-47.8017  2.98029e+20
-47.6844  2.93778e+20
-47.5671  2.94723e+20
-47.4498  3.01816e+20
-47.3325  3.15522e+20
-47.2152  3.35792e+20
-47.0979  3.6186e+20
-46.9806  3.92393e+20
-46.8633  4.25518e+20
-46.7459  4.58683e+20
-46.6286  4.89743e+20
-46.5113  5.16291e+20
-46.394  5.36809e+20
-46.2767  5.50059e+20
-46.1594  5.55758e+20
-46.0421  5.54446e+20
-45.9248  5.47146e+20
-45.8075  5.35413e+20
-45.6902  5.21025e+20
-45.5729  5.05644e+20
-45.4556  4.91157e+20
-45.3383  4.78723e+20
-45.221  4.6957e+20
-45.1037  4.64147e+20
-44.9864  4.6264e+20
-44.8691  4.64799e+20
-44.7518  4.70007e+20
-44.6345  4.77077e+20
-44.5172  4.84623e+20
-44.3998  4.91294e+20
-44.2825  4.95478e+20
-44.1652  4.96144e+20
-44.0479  4.92651e+20
-43.9306  4.85054e+20
-43.8133  4.74085e+20
-43.696  4.6127e+20
-43.5787  4.48428e+20
-43.4614  4.37569e+20
-43.3441  4.30686e+20
-43.2268  4.29118e+20
-43.1095  4.33656e+20
-42.9922  4.44148e+20
-42.8749  4.59809e+20
-42.7576  4.79147e+20
-42.6403  5.002e+20
-42.523  5.21074e+20
-42.4057  5.39764e+20
-42.2884  5.54984e+20
-42.171  5.65818e+20
-42.0537  5.71979e+20
-41.9364  5.73999e+20
-41.8191  5.72563e+20
-41.7018  5.69136e+20
-41.5845  5.64969e+20
-41.4672  5.61542e+20
-41.3499  5.59955e+20
-41.2326  5.61003e+20
-41.1153  5.64828e+20
-40.998  5.71078e+20
-40.8807  5.78835e+20
-40.7634  5.87024e+20
-40.6461  5.94066e+20
-40.5288  5.98811e+20
-40.4115  6.00039e+20
-40.2942  5.97398e+20
-40.1769  5.90655e+20
-40.0596  5.80283e+20
-39.9423  5.67235e+20
-39.825  5.52688e+20
-39.7076  5.37964e+20
-39.5903  5.2424e+20
-39.473  5.12559e+20
-39.3557  5.03823e+20
-39.2384  4.98556e+20
-39.1211  4.97076e+20
-39.0038  4.99576e+20
-38.8865  5.05807e+20
-38.7692  5.15338e+20
-38.6519  5.27459e+20
-38.5346  5.41327e+20
-38.4173  5.55738e+20
-38.3  5.69525e+20
-38.1827  5.8158e+20
-38.0654  5.91155e+20
-37.9481  5.97751e+20
-37.8308  6.01609e+20
-37.7135  6.03122e+20
-37.5962  6.0324e+20
-37.4789  6.02918e+20
-37.3615  6.03265e+20
-37.2442  6.04867e+20
-37.1269  6.0805e+20
-37.0096  6.12791e+20
-36.8923  6.18775e+20
-36.775  6.25551e+20
-36.6577  6.32657e+20
-36.5404  6.39763e+20
-36.4231  6.46822e+20
-36.3058  6.53683e+20
-36.1885  6.60603e+20
-36.0712  6.67478e+20
-35.9539  6.74419e+20
-35.8366  6.81165e+20
-35.7193  6.87638e+20
-35.602  6.93968e+20
-35.4847  7.00101e+20
-35.3674  7.06472e+20
-35.2501  7.13712e+20
-35.1328  7.22529e+20
-35.0154  7.33554e+20
-34.8981  7.47018e+20
-34.7808  7.62832e+20
-34.6635  7.80458e+20
-34.5462  7.98843e+20
-34.4289  8.16805e+20
-34.3116  8.33191e+20
-34.1943  8.47117e+20
-34.077  8.582e+20
-33.9597  8.66603e+20
-33.8424  8.73153e+20
-33.7251  8.79069e+20
-33.6078  8.85762e+20
-33.4905  8.94539e+20
-33.3732  9.06537e+20
-33.2559  9.22547e+20
-33.1386  9.42813e+20
-33.0213  9.67185e+20
-32.904  9.94912e+20
-32.7867  1.02514e+21
-32.6693  1.05672e+21
-32.552  1.08825e+21
-32.4347  1.11842e+21
-32.3174  1.1461e+21
-32.2001  1.17038e+21
-32.0828  1.19081e+21
-31.9655  1.20729e+21
-31.8482  1.22025e+21
-31.7309  1.23062e+21
-31.6136  1.23955e+21
-31.4963  1.24829e+21
-31.379  1.25789e+21
-31.2617  1.26939e+21
-31.1444  1.28297e+21
-31.0271  1.29859e+21
-30.9098  1.31592e+21
-30.7925  1.334e+21
-30.6752  1.35189e+21
-30.5579  1.36875e+21
-30.4406  1.38383e+21
-30.3232  1.39683e+21
-30.2059  1.40738e+21
-30.0886  1.41585e+21
-29.9713  1.42285e+21
-29.854  1.42917e+21
-29.7367  1.43588e+21
-29.6194  1.44428e+21
-29.5021  1.45553e+21
-29.3848  1.47089e+21
-29.2675  1.49118e+21
-29.1502  1.51685e+21
-29.0329  1.54778e+21
-28.9156  1.58336e+21
-28.7983  1.6222e+21
-28.681  1.66267e+21
-28.5637  1.70314e+21
-28.4464  1.7418e+21
-28.3291  1.77737e+21
-28.2118  1.80913e+21
-28.0944  1.8371e+21
-27.9771  1.86193e+21
-27.8598  1.88497e+21
-27.7425  1.9078e+21
-27.6252  1.93254e+21
-27.5079  1.96104e+21
-27.3906  1.99513e+21
-27.2733  2.03623e+21
-27.156  2.08529e+21
-27.0387  2.14262e+21
-26.9214  2.20805e+21
-26.8041  2.28029e+21
-26.6868  2.35805e+21
-26.5695  2.43904e+21
-26.4522  2.52078e+21
-26.3349  2.60068e+21
-26.2176  2.67647e+21
-26.1003  2.74582e+21
-25.983  2.80748e+21
-25.8657  2.86073e+21
-25.7483  2.90553e+21
-25.631  2.94302e+21
-25.5137  2.97404e+21
-25.3964  3.00053e+21
-25.2791  3.02404e+21
-25.1618  3.04633e+21
-25.0445  3.06842e+21
-24.9272  3.09137e+21
-24.8099  3.11531e+21
-24.6926  3.14035e+21
-24.5753  3.16591e+21
-24.458  3.19119e+21
-24.3407  3.21505e+21
-24.2234  3.2366e+21
-24.1061  3.25473e+21
-23.9888  3.26893e+21
-23.8715  3.27917e+21
-23.7542  3.28592e+21
-23.6369  3.29027e+21
-23.5196  3.29388e+21
-23.4023  3.29913e+21
-23.2849  3.30821e+21
-23.1676  3.32347e+21
-23.0503  3.34677e+21
-22.933  3.37967e+21
-22.8157  3.42296e+21
-22.6984  3.47677e+21
-22.5811  3.54069e+21
-22.4638  3.61377e+21
-22.3465  3.69437e+21
-22.2292  3.78101e+21
-22.1119  3.87178e+21
-21.9946  3.96527e+21
-21.8773  4.05978e+21
-21.76  4.15428e+21
-21.6427  4.24811e+21
-21.5254  4.34128e+21
-21.4081  4.43366e+21
-21.2908  4.52616e+21
-21.1735  4.61964e+21
-21.0561  4.71506e+21
-20.9388  4.81366e+21
-20.8215  4.91556e+21
-20.7042  5.02084e+21
-20.5869  5.12858e+21
-20.4696  5.23753e+21
-20.3523  5.34527e+21
-20.235  5.44969e+21
-20.1177  5.54796e+21
-20.0004  5.63796e+21
-19.8831  5.71842e+21
-19.7658  5.78831e+21
-19.6485  5.84778e+21
-19.5312  5.8983e+21
-19.4139  5.9414e+21
-19.2966  5.97978e+21
-19.1793  6.01608e+21
-19.062  6.05314e+21
-18.9447  6.09292e+21
-18.8274  6.13655e+21
-18.71  6.18521e+21
-18.5927  6.23799e+21
-18.4754  6.2934e+21
-18.3581  6.34925e+21
-18.2408  6.40223e+21
-18.1235  6.44939e+21
-18.0062  6.48745e+21
-17.8889  6.51392e+21
-17.7716  6.52761e+21
-17.6543  6.52759e+21
-17.537  6.51537e+21
-17.4197  6.49323e+21
-17.3024  6.46511e+21
-17.1851  6.43575e+21
-17.0678  6.41033e+21
-16.9505  6.3946e+21
-16.8332  6.39402e+21
-16.7159  6.4129e+21
-16.5986  6.45453e+21
-16.4813  6.52088e+21
-16.364  6.61252e+21
-16.2466  6.72841e+21
-16.1293  6.86595e+21
-16.012  7.02088e+21
-15.8947  7.18839e+21
-15.7774  7.36289e+21
-15.6601  7.53823e+21
-15.5428  7.70901e+21
-15.4255  7.86972e+21
-15.3082  8.01664e+21
-15.1909  8.14794e+21
-15.0736  8.26198e+21
-14.9563  8.35967e+21
-14.839  8.44337e+21
-14.7217  8.51586e+21
-14.6044  8.58072e+21
-14.4871  8.64185e+21
-14.3698  8.70277e+21
-14.2525  8.76577e+21
-14.1352  8.83207e+21
-14.0178  8.90292e+21
-13.9005  8.97735e+21
-13.7832  9.05368e+21
-13.6659  9.13038e+21
-13.5486  9.2043e+21
-13.4313  9.27339e+21
-13.314  9.33523e+21
-13.1967  9.38798e+21
-13.0794  9.43124e+21
-12.9621  9.46414e+21
-12.8448  9.48824e+21
-12.7275  9.50509e+21
-12.6102  9.51768e+21
-12.4929  9.52922e+21
-12.3756  9.54261e+21
-12.2583  9.56165e+21
-12.141  9.58921e+21
-12.0237  9.62695e+21
-11.9064  9.67543e+21
-11.7891  9.73424e+21
-11.6718  9.80197e+21
-11.5544  9.87637e+21
-11.4371  9.95538e+21
-11.3198  1.00353e+22
-11.2025  1.01143e+22
-11.0852  1.01903e+22
-10.9679  1.0262e+22
-10.8506  1.03291e+22
-10.7333  1.03915e+22
-10.616  1.04499e+22
-10.4987  1.0507e+22
-10.3814  1.05632e+22
-10.2641  1.06214e+22
-10.1468  1.06832e+22
-10.0295  1.07508e+22
-9.91217  1.08251e+22
-9.79487  1.09076e+22
-9.67756  1.09985e+22
-9.56026  1.10976e+22
-9.44295  1.12037e+22
-9.32565  1.13165e+22
-9.20834  1.1434e+22
-9.09104  1.15548e+22
-8.97373  1.16784e+22
-8.85643  1.1803e+22
-8.73913  1.19283e+22
-8.62182  1.20535e+22
-8.50452  1.21783e+22
-8.38721  1.23024e+22
-8.26991  1.24241e+22
-8.1526  1.25431e+22
-8.03529  1.26568e+22
-7.91799  1.27632e+22
-7.80069  1.2859e+22
-7.68338  1.29406e+22
-7.56608  1.30052e+22
-7.44877  1.30493e+22
-7.33146  1.30702e+22
-7.21416  1.30661e+22
-7.09685  1.3036e+22
-6.97955  1.29804e+22
-6.86224  1.29018e+22
-6.74494  1.28049e+22
-6.62763  1.26937e+22
-6.51033  1.25757e+22
-6.39302  1.24581e+22
-6.27572  1.23487e+22
-6.15842  1.22548e+22
-6.04111  1.21834e+22
-5.92381  1.21396e+22
-5.8065  1.21281e+22
-5.68919  1.21497e+22
-5.57189  1.22052e+22
-5.45458  1.22915e+22
-5.33728  1.24056e+22
-5.21997  1.25411e+22
-5.10267  1.26914e+22
-4.98536  1.28492e+22
-4.86806  1.3007e+22
-4.75075  1.31576e+22
-4.63345  1.3296e+22
-4.51614  1.34175e+22
-4.39884  1.35204e+22
-4.28154  1.36052e+22
-4.16423  1.36732e+22
-4.04692  1.37282e+22
-3.92962  1.37744e+22
-3.81231  1.38169e+22
-3.69501  1.38603e+22
-3.5777  1.39074e+22
-3.4604  1.39611e+22
-3.34309  1.4021e+22
-3.22579  1.40858e+22
-3.10849  1.41519e+22
-2.99118  1.42146e+22
-2.87387  1.4269e+22
-2.75657  1.43091e+22
-2.63926  1.43305e+22
-2.52196  1.43291e+22
-2.40465  1.43029e+22
-2.28735  1.42515e+22
-2.17005  1.41772e+22
-2.05274  1.40849e+22
-1.93544  1.39795e+22
-1.81813  1.38692e+22
-1.70083  1.37619e+22
-1.58352  1.36658e+22
-1.46622  1.35882e+22
-1.34891  1.35358e+22
-1.2316  1.35123e+22
-1.1143  1.352e+22
-0.996995  1.35574e+22
-0.87969  1.36217e+22
-0.762385  1.37065e+22
-0.64508  1.38046e+22
-0.527775  1.39064e+22
-0.41047  1.40025e+22
-0.293165  1.40839e+22
-0.17586  1.41425e+22
-0.058555  1.41731e+22
0.05875  1.41723e+22
0.176055  1.41402e+22
0.29336  1.40799e+22
0.410665  1.39973e+22
0.52797  1.39001e+22
0.645275  1.37974e+22
0.76258  1.36985e+22
0.879885  1.36132e+22
0.99719  1.35485e+22
1.1145  1.35106e+22
1.2318  1.3503e+22
1.3491  1.35265e+22
1.46641  1.3579e+22
1.58371  1.36561e+22
1.70102  1.3752e+22
1.81832  1.38591e+22
1.93563  1.39687e+22
2.05294  1.40734e+22
2.17024  1.41656e+22
2.28754  1.42389e+22
2.40485  1.42894e+22
2.52216  1.43147e+22
2.63946  1.43154e+22
2.75677  1.42931e+22
2.87407  1.42521e+22
2.99137  1.41968e+22
3.10868  1.41331e+22
3.22599  1.40662e+22
3.34329  1.40008e+22
3.4606  1.39403e+22
3.5779  1.38859e+22
3.69521  1.38376e+22
3.81251  1.37934e+22
3.92982  1.37496e+22
4.04712  1.37022e+22
4.16443  1.36462e+22
4.28173  1.35771e+22
4.39903  1.34913e+22
4.51634  1.3387e+22
4.63364  1.32647e+22
4.75095  1.31257e+22
4.86825  1.29743e+22
4.98556  1.28162e+22
5.10286  1.26582e+22
5.22017  1.2508e+22
5.33748  1.23727e+22
5.45478  1.22589e+22
5.57209  1.21729e+22
5.68939  1.21178e+22
5.8067  1.20964e+22
5.924  1.21085e+22
6.0413  1.21522e+22
6.15861  1.22235e+22
6.27591  1.23168e+22
6.39322  1.24258e+22
6.51052  1.25427e+22
6.62783  1.26595e+22
6.74514  1.27692e+22
6.86244  1.28652e+22
6.97975  1.29419e+22
7.09705  1.29959e+22
7.21436  1.30244e+22
7.33166  1.30273e+22
7.44897  1.30049e+22
7.56627  1.29595e+22
7.68358  1.28936e+22
7.80088  1.28108e+22
7.91819  1.27143e+22
8.03549  1.26076e+22
8.1528  1.24937e+22
8.2701  1.23745e+22
8.38741  1.22524e+22
8.50471  1.21286e+22
8.62202  1.20035e+22
8.73932  1.18783e+22
8.85662  1.17533e+22
8.97393  1.16287e+22
9.09123  1.15053e+22
9.20854  1.13842e+22
9.32584  1.1267e+22
9.44315  1.11542e+22
9.56045  1.10476e+22
9.67776  1.09484e+22
9.79506  1.08571e+22
9.91237  1.07743e+22
10.0297  1.06994e+22
10.147  1.06315e+22
10.2643  1.05693e+22
10.3816  1.05104e+22
10.4989  1.04537e+22
10.6162  1.03964e+22
10.7335  1.03372e+22
10.8508  1.02743e+22
10.9681  1.02069e+22
11.0854  1.01352e+22
11.2027  1.00592e+22
11.32  9.97997e+21
11.4373  9.89989e+21
11.5546  9.8212e+21
11.6719  9.74677e+21
11.7893  9.67943e+21
11.9066  9.6208e+21
12.0239  9.57241e+21
12.1412  9.53506e+21
12.2585  9.50767e+21
12.3758  9.48827e+21
12.4931  9.47453e+21
12.6104  9.46278e+21
12.7277  9.44996e+21
12.845  9.43285e+21
12.9623  9.40809e+21
13.0796  9.37473e+21
13.1969  9.33135e+21
13.3142  9.27811e+21
13.4315  9.21601e+21
13.5488  9.14679e+21
13.6661  9.07279e+21
13.7834  8.99616e+21
13.9007  8.91979e+21
14.018  8.84592e+21
14.1354  8.77508e+21
14.2527  8.70866e+21
14.37  8.64592e+21
14.4873  8.58501e+21
14.6046  8.52378e+21
14.7219  8.45852e+21
14.8392  8.38602e+21
14.9565  8.30226e+21
15.0738  8.20398e+21
15.1911  8.08986e+21
15.3084  7.9584e+21
15.4257  7.81112e+21
15.543  7.65008e+21
15.6603  7.47963e+21
15.7776  7.3047e+21
15.8949  7.13073e+21
16.0122  6.96358e+21
16.1295  6.80912e+21
16.2468  6.67227e+21
16.3641  6.557e+21
16.4815  6.4661e+21
16.5988  6.4002e+21
16.7161  6.35885e+21
16.8334  6.34062e+21
16.9507  6.34144e+21
17.068  6.35704e+21
17.1853  6.38229e+21
17.3026  6.41139e+21
17.4199  6.43921e+21
17.5372  6.4612e+21
17.6545  6.47277e+21
17.7718  6.47246e+21
17.8891  6.45868e+21
18.0064  6.43195e+21
18.1237  6.3937e+21
18.241  6.34669e+21
18.3583  6.29389e+21
18.4756  6.23833e+21
18.5929  6.18327e+21
18.7102  6.13113e+21
18.8275  6.08281e+21
18.9449  6.03951e+21
19.0622  6.00029e+21
19.1795  5.96355e+21
19.2968  5.92738e+21
19.4141  5.88908e+21
19.5314  5.84617e+21
19.6487  5.79583e+21
19.766  5.73613e+21
19.8833  5.66639e+21
20.0006  5.58591e+21
20.1179  5.4957e+21
20.2352  5.39735e+21
20.3525  5.29308e+21
20.4698  5.18556e+21
20.5871  5.07695e+21
20.7044  4.96941e+21
20.8217  4.86434e+21
20.939  4.7627e+21
21.0563  4.66455e+21
21.1736  4.56942e+21
21.291  4.47638e+21
21.4083  4.38415e+21
21.5256  4.29234e+21
21.6429  4.19977e+21
21.7602  4.10646e+21
21.8775  4.0126e+21
21.9948  3.91871e+21
22.1121  3.82612e+21
22.2294  3.73627e+21
22.3467  3.65041e+21
22.464  3.57081e+21
22.5813  3.49874e+21
22.6986  3.43581e+21
22.8159  3.38276e+21
22.9332  3.34032e+21
23.0505  3.30823e+21
23.1678  3.28553e+21
23.2851  3.27085e+21
23.4024  3.26224e+21
23.5198  3.25731e+21
23.6371  3.25383e+21
23.7544  3.24969e+21
23.8717  3.24299e+21
23.989  3.23283e+21
24.1063  3.21873e+21
24.2236  3.20071e+21
24.3409  3.1793e+21
24.4582  3.15552e+21
24.5755  3.13053e+21
24.6928  3.10511e+21
24.8101  3.08024e+21
24.9274  3.0564e+21
25.0447  3.03357e+21
25.162  3.01169e+21
25.2793  2.9896e+21
25.3966  2.9662e+21
25.5139  2.93969e+21
25.6312  2.90857e+21
25.7485  2.87127e+21
25.8658  2.82642e+21
25.9832  2.77337e+21
26.1005  2.71173e+21
26.2178  2.64263e+21
26.3351  2.56731e+21
26.4524  2.48784e+21
26.5697  2.40665e+21
26.687  2.32633e+21
26.8043  2.24935e+21
26.9216  2.17784e+21
27.0389  2.11328e+21
27.1562  2.05679e+21
27.2735  2.00843e+21
27.3908  1.96811e+21
27.5081  1.93465e+21
27.6254  1.90671e+21
27.7427  1.88245e+21
27.86  1.85997e+21
27.9773  1.83734e+21
28.0946  1.81273e+21
28.212  1.78503e+21
28.3293  1.75349e+21
28.4466  1.7182e+21
28.5639  1.67985e+21
28.6812  1.63978e+21
28.7985  1.59967e+21
28.9158  1.56127e+21
29.0331  1.52628e+21
29.1504  1.49585e+21
29.2677  1.47073e+21
29.385  1.45095e+21
29.5023  1.43608e+21
29.6196  1.4252e+21
29.7369  1.41721e+21
29.8542  1.41086e+21
29.9715  1.40482e+21
30.0888  1.39816e+21
30.2061  1.38984e+21
30.3234  1.37942e+21
30.4407  1.36668e+21
30.558  1.35175e+21
30.6754  1.33507e+21
30.7927  1.31726e+21
30.91  1.29945e+21
31.0273  1.28238e+21
31.1446  1.26687e+21
31.2619  1.2535e+21
31.3792  1.24229e+21
31.4965  1.23274e+21
31.6138  1.22422e+21
31.7311  1.2154e+21
31.8484  1.20517e+21
31.9657  1.19226e+21
32.083  1.17597e+21
32.2003  1.15573e+21
32.3176  1.13161e+21
32.4349  1.10421e+21
32.5522  1.07431e+21
32.6695  1.04318e+21
32.7868  1.01204e+21
32.9042  9.82227e+20
33.0215  9.5493e+20
33.1388  9.31076e+20
33.2561  9.11299e+20
33.3734  8.95665e+20
33.4907  8.83972e+20
33.608  8.75528e+20
33.7253  8.69098e+20
33.8426  8.63327e+20
33.9599  8.5689e+20
34.0772  8.48541e+20
34.1945  8.37584e+20
34.3118  8.23782e+20
34.4291  8.07583e+20
34.5464  7.89823e+20
34.6637  7.71667e+20
34.781  7.54415e+20
34.8983  7.38928e+20
35.0156  7.2582e+20
35.1329  7.15192e+20
35.2503  7.06676e+20
35.3676  6.99658e+20
35.4849  6.93416e+20
35.6022  6.87482e+20
35.7195  6.81332e+20
35.8368  6.74854e+20
35.9541  6.68212e+20
36.0714  6.61331e+20
36.1887  6.54483e+20
36.306  6.4773e+20
36.4233  6.40832e+20
36.5406  6.33941e+20
36.6579  6.26906e+20
36.7752  6.19986e+20
36.8925  6.13356e+20
37.0098  6.07552e+20
37.1271  6.03061e+20
37.2444  6.00063e+20
37.3617  5.98665e+20
37.479  5.98562e+20
37.5964  5.98951e+20
37.7137  5.98943e+20
37.831  5.97457e+20
37.9483  5.93648e+20
38.0656  5.86967e+20
38.1829  5.77347e+20
38.3002  5.65342e+20
38.4175  5.51521e+20
38.5348  5.37167e+20
38.6521  5.2345e+20
38.7694  5.1139e+20
38.8867  5.02063e+20
39.004  4.96041e+20
39.1213  4.93845e+20
39.2386  4.95533e+20
39.3559  5.0103e+20
39.4732  5.1004e+20
39.5905  5.21884e+20
39.7078  5.35784e+20
39.8251  5.50758e+20
39.9425  5.65382e+20
40.0598  5.78502e+20
40.1771  5.88797e+20
40.2944  5.9558e+20
40.4117  5.98194e+20
40.529  5.96904e+20
40.6463  5.92234e+20
40.7636  5.85059e+20
40.8809  5.76994e+20
40.9982  5.6932e+20
41.1155  5.63158e+20
41.2328  5.59448e+20
41.3501  5.58541e+20
41.4674  5.60261e+20
41.5847  5.6374e+20
41.702  5.67985e+20
41.8193  5.71429e+20
41.9366  5.72773e+20
42.0539  5.70659e+20
42.1712  5.64324e+20
42.2885  5.53444e+20
42.4059  5.38055e+20
42.5232  5.19304e+20
42.6405  4.98365e+20
42.7578  4.77369e+20
42.8751  4.58159e+20
42.9924  4.42633e+20
43.1097  4.32282e+20
43.227  4.27967e+20
43.3443  4.29771e+20
43.4616  4.36818e+20
43.5789  4.47713e+20
43.6962  4.60591e+20
43.8135  4.73403e+20
43.9308  4.84325e+20
44.0481  4.91846e+20
44.1654  4.9525e+20
44.2827  4.94454e+20
44.4  4.90186e+20
44.5173  4.83547e+20
44.6347  4.75963e+20
44.752  4.69053e+20
44.8693  4.63907e+20
44.9866  4.61806e+20
45.1039  4.63377e+20
45.2212  4.68936e+20
45.3385  4.78177e+20
45.4558  4.90604e+20
45.5731  5.05181e+20
45.6904  5.20413e+20
45.8077  5.34728e+20
45.925  5.46295e+20
46.0423  5.53431e+20
46.1596  5.54488e+20
46.2769  5.48527e+20
46.3942  5.35128e+20
46.5115  5.14417e+20
46.6288  4.87737e+20
46.7461  4.56618e+20
46.8634  4.2336e+20
46.9808  3.90462e+20
47.0981  3.60015e+20
47.2154  3.34167e+20
47.3327  3.14043e+20
47.45  3.00631e+20
47.5673  2.93775e+20
47.6846  2.92947e+20
47.8019  2.97358e+20
47.9192  3.05702e+20
48.0365  3.16849e+20
48.1538  3.29659e+20
48.2711  3.43282e+20
48.3884  3.57333e+20
48.5057  3.71576e+20
48.623  3.86441e+20
48.7403  4.02197e+20
48.8576  4.19583e+20
48.9749  4.39104e+20
49.0922  4.61123e+20
49.2095  4.85553e+20
49.3269  5.11982e+20
49.4442  5.39517e+20
49.5615  5.66452e+20
49.6788  5.91174e+20
49.7961  6.11989e+20
49.9134  6.26949e+20
50.0307  6.34801e+20
50.148  6.34811e+20
50.2653  6.26674e+20
50.3826  6.1074e+20
50.4999  5.88106e+20
50.6172  5.60266e+20
50.7345  5.29111e+20
50.8518  4.9659e+20
