#S 1 spectral density
#N 2
#UFWHM 9.73632
#L  abscissas [um]  spectral density
-58.5938  1.34621e+19
-58.4764  1.1433e+19
-58.3591  9.83897e+18
-58.2418  8.54141e+18
-58.1245  7.38209e+18
-58.0072  6.24785e+18
-57.8899  5.13007e+18
-57.7726  4.09997e+18
-57.6553  3.28061e+18
-57.538  2.79e+18
-57.4207  2.70807e+18
-57.3034  3.04327e+18
-57.1861  3.78823e+18
-57.0688  4.92545e+18
-56.9515  6.52034e+18
-56.8342  8.66902e+18
-56.7169  1.15722e+19
-56.5996  1.54125e+19
-56.4823  2.03157e+19
-56.365  2.62568e+19
-56.2477  3.30225e+19
-56.1303  4.02277e+19
-56.013  4.73403e+19
-55.8957  5.37881e+19
-55.7784  5.90611e+19
-55.6611  6.27622e+19
-55.5438  6.48104e+19
-55.4265  6.52498e+19
-55.3092  6.4318e+19
-55.1919  6.24017e+19
-55.0746  5.98743e+19
-54.9573  5.71028e+19
-54.84  5.43669e+19
-54.7227  5.18222e+19
-54.6054  4.95825e+19
-54.4881  4.7626e+19
-54.3708  4.59114e+19
-54.2535  4.42676e+19
-54.1362  4.25064e+19
-54.0189  4.03913e+19
-53.9016  3.77498e+19
-53.7842  3.4422e+19
-53.6669  3.05268e+19
-53.5496  2.62615e+19
-53.4323  2.21024e+19
-53.315  1.87378e+19
-53.1977  1.68877e+19
-53.0804  1.72377e+19
-52.9631  2.02561e+19
-52.8458  2.60528e+19
-52.7285  3.42822e+19
-52.6112  4.42316e+19
-52.4939  5.48732e+19
-52.3766  6.5035e+19
-52.2593  7.35987e+19
-52.142  7.97184e+19
-52.0247  8.29346e+19
-51.9074  8.31797e+19
-51.7901  8.07985e+19
-51.6728  7.63829e+19
-51.5555  7.06687e+19
-51.4381  6.43864e+19
-51.3208  5.81325e+19
-51.2035  5.23358e+19
-51.0862  4.72802e+19
-50.9689  4.30343e+19
-50.8516  3.95771e+19
-50.7343  3.68288e+19
-50.617  3.46258e+19
-50.4997  3.28266e+19
-50.3824  3.12563e+19
-50.2651  2.96977e+19
-50.1478  2.79992e+19
-50.0305  2.60467e+19
-49.9132  2.37299e+19
-49.7959  2.11125e+19
-49.6786  1.83177e+19
-49.5613  1.55819e+19
-49.444  1.31755e+19
-49.3267  1.13938e+19
-49.2094  1.04667e+19
-49.092  1.05428e+19
-48.9747  1.16349e+19
-48.8574  1.36612e+19
-48.7401  1.64368e+19
-48.6228  1.9699e+19
-48.5055  2.3193e+19
-48.3882  2.66586e+19
-48.2709  2.98682e+19
-48.1536  3.26688e+19
-48.0363  3.49443e+19
-47.919  3.67229e+19
-47.8017  3.80688e+19
-47.6844  3.91324e+19
-47.5671  4.01063e+19
-47.4498  4.11941e+19
-47.3325  4.2539e+19
-47.2152  4.42631e+19
-47.0979  4.62596e+19
-46.9806  4.83409e+19
-46.8633  5.01735e+19
-46.7459  5.13637e+19
-46.6286  5.14913e+19
-46.5113  5.02689e+19
-46.394  4.7576e+19
-46.2767  4.34986e+19
-46.1594  3.8337e+19
-46.0421  3.25578e+19
-45.9248  2.66997e+19
-45.8075  2.12467e+19
-45.6902  1.65639e+19
-45.5729  1.28534e+19
-45.4556  1.01508e+19
-45.3383  8.29923e+18
-45.221  7.08209e+18
-45.1037  6.24559e+18
-44.9864  5.57454e+18
-44.8691  4.95389e+18
-44.7518  4.3156e+18
-44.6345  3.67208e+18
-44.5172  3.05561e+18
-44.3998  2.52647e+18
-44.2825  2.16348e+18
-44.1652  2.08149e+18
-44.0479  2.44323e+18
-43.9306  3.51972e+18
-43.8133  5.63662e+18
-43.696  9.17339e+18
-43.5787  1.44721e+19
-43.4614  2.17352e+19
-43.3441  3.09857e+19
-43.2268  4.19532e+19
-43.1095  5.40902e+19
-42.9922  6.65626e+19
-42.8749  7.84445e+19
-42.7576  8.87481e+19
-42.6403  9.66059e+19
-42.523  1.01406e+20
-42.4057  1.02853e+20
-42.2884  1.00978e+20
-42.171  9.61564e+19
-42.0537  8.90783e+19
-41.9364  8.05283e+19
-41.8191  7.1369e+19
-41.7018  6.24173e+19
-41.5845  5.43693e+19
-41.4672  4.7743e+19
-41.3499  4.28673e+19
-41.2326  3.98187e+19
-41.1153  3.85008e+19
-40.998  3.86922e+19
-40.8807  4.00418e+19
-40.7634  4.21645e+19
-40.6461  4.47779e+19
-40.5288  4.76695e+19
-40.4115  5.08363e+19
-40.2942  5.43529e+19
-40.1769  5.84068e+19
-40.0596  6.32435e+19
-39.9423  6.89839e+19
-39.825  7.56478e+19
-39.7076  8.30334e+19
-39.5903  9.07839e+19
-39.473  9.83591e+19
-39.3557  1.05088e+20
-39.2384  1.10443e+20
-39.1211  1.13983e+20
-39.0038  1.1542e+20
-38.8865  1.14702e+20
-38.7692  1.12068e+20
-38.6519  1.07648e+20
-38.5346  1.01858e+20
-38.4173  9.49684e+19
-38.3  8.73963e+19
-38.1827  7.9448e+19
-38.0654  7.15209e+19
-37.9481  6.41142e+19
-37.8308  5.77064e+19
-37.7135  5.28353e+19
-37.5962  4.98729e+19
-37.4789  4.90685e+19
-37.3615  5.03748e+19
-37.2442  5.33515e+19
-37.1269  5.74534e+19
-37.0096  6.18747e+19
-36.8923  6.59108e+19
-36.775  6.90227e+19
-36.6577  7.10109e+19
-36.5404  7.22118e+19
-36.4231  7.31491e+19
-36.3058  7.46382e+19
-36.1885  7.74838e+19
-36.0712  8.22375e+19
-35.9539  8.91027e+19
-35.8366  9.77991e+19
-35.7193  1.07551e+20
-35.602  1.17466e+20
-35.4847  1.26418e+20
-35.3674  1.33527e+20
-35.2501  1.38149e+20
-35.1328  1.40035e+20
-35.0154  1.39299e+20
-34.8981  1.3624e+20
-34.7808  1.31427e+20
-34.6635  1.25502e+20
-34.5462  1.18778e+20
-34.4289  1.11713e+20
-34.3116  1.04481e+20
-34.1943  9.73474e+19
-34.077  9.03746e+19
-33.9597  8.37557e+19
-33.8424  7.75835e+19
-33.7251  7.20875e+19
-33.6078  6.72767e+19
-33.4905  6.31728e+19
-33.3732  5.96535e+19
-33.2559  5.65247e+19
-33.1386  5.35174e+19
-33.0213  5.03874e+19
-32.904  4.69811e+19
-32.7867  4.31872e+19
-32.6693  3.89919e+19
-32.552  3.45752e+19
-32.4347  3.00202e+19
-32.3174  2.56509e+19
-32.2001  2.17019e+19
-32.0828  1.84735e+19
-31.9655  1.6301e+19
-31.8482  1.54973e+19
-31.7309  1.63902e+19
-31.6136  1.92517e+19
-31.4963  2.42604e+19
-31.379  3.1487e+19
-31.2617  4.08237e+19
-31.1444  5.20333e+19
-31.0271  6.47663e+19
-30.9098  7.86477e+19
-30.7925  9.32113e+19
-30.6752  1.08121e+20
-30.5579  1.2305e+20
-30.4406  1.37824e+20
-30.3232  1.52367e+20
-30.2059  1.66467e+20
-30.0886  1.80093e+20
-29.9713  1.93073e+20
-29.854  2.05366e+20
-29.7367  2.16676e+20
-29.6194  2.26987e+20
-29.5021  2.361e+20
-29.3848  2.43947e+20
-29.2675  2.50329e+20
-29.1502  2.55098e+20
-29.0329  2.57988e+20
-28.9156  2.58669e+20
-28.7983  2.56732e+20
-28.681  2.52012e+20
-28.5637  2.44349e+20
-28.4464  2.33976e+20
-28.3291  2.21364e+20
-28.2118  2.07309e+20
-28.0944  1.92854e+20
-27.9771  1.79178e+20
-27.8598  1.67284e+20
-27.7425  1.58041e+20
-27.6252  1.5181e+20
-27.5079  1.48675e+20
-27.3906  1.48329e+20
-27.2733  1.50126e+20
-27.156  1.5338e+20
-27.0387  1.57341e+20
-26.9214  1.61435e+20
-26.8041  1.65312e+20
-26.6868  1.68872e+20
-26.5695  1.72184e+20
-26.4522  1.75469e+20
-26.3349  1.79072e+20
-26.2176  1.83224e+20
-26.1003  1.88259e+20
-25.983  1.94188e+20
-25.8657  2.00943e+20
-25.7483  2.08405e+20
-25.631  2.16098e+20
-25.5137  2.23687e+20
-25.3964  2.30648e+20
-25.2791  2.36501e+20
-25.1618  2.40957e+20
-25.0445  2.43939e+20
-24.9272  2.45527e+20
-24.8099  2.46141e+20
-24.6926  2.46401e+20
-24.5753  2.471e+20
-24.458  2.48939e+20
-24.3407  2.52597e+20
-24.2234  2.58494e+20
-24.1061  2.66808e+20
-23.9888  2.7731e+20
-23.8715  2.89587e+20
-23.7542  3.02857e+20
-23.6369  3.16387e+20
-23.5196  3.29229e+20
-23.4023  3.40562e+20
-23.2849  3.49654e+20
-23.1676  3.55825e+20
-23.0503  3.58704e+20
-22.933  3.57983e+20
-22.8157  3.53664e+20
-22.6984  3.45949e+20
-22.5811  3.35301e+20
-22.4638  3.22516e+20
-22.3465  3.08442e+20
-22.2292  2.94263e+20
-22.1119  2.81075e+20
-21.9946  2.70017e+20
-21.8773  2.62052e+20
-21.76  2.57893e+20
-21.6427  2.57991e+20
-21.5254  2.62562e+20
-21.4081  2.71416e+20
-21.2908  2.84263e+20
-21.1735  3.0059e+20
-21.0561  3.19718e+20
-20.9388  3.40886e+20
-20.8215  3.63442e+20
-20.7042  3.86313e+20
-20.5869  4.0873e+20
-20.4696  4.29861e+20
-20.3523  4.49036e+20
-20.235  4.65619e+20
-20.1177  4.79398e+20
-20.0004  4.9024e+20
-19.8831  4.98655e+20
-19.7658  5.04857e+20
-19.6485  5.09717e+20
-19.5312  5.13869e+20
-19.4139  5.18037e+20
-19.2966  5.22601e+20
-19.1793  5.2787e+20
-19.062  5.33621e+20
-18.9447  5.3955e+20
-18.8274  5.45018e+20
-18.71  5.49394e+20
-18.5927  5.51796e+20
-18.4754  5.51602e+20
-18.3581  5.48498e+20
-18.2408  5.4197e+20
-18.1235  5.32249e+20
-18.0062  5.19488e+20
-17.8889  5.04437e+20
-17.7716  4.87878e+20
-17.6543  4.70635e+20
-17.537  4.53887e+20
-17.4197  4.38575e+20
-17.3024  4.25467e+20
-17.1851  4.15286e+20
-17.0678  4.08394e+20
-16.9505  4.04943e+20
-16.8332  4.04939e+20
-16.7159  4.07906e+20
-16.5986  4.13536e+20
-16.4813  4.21274e+20
-16.364  4.30642e+20
-16.2466  4.41358e+20
-16.1293  4.53348e+20
-16.012  4.66489e+20
-15.8947  4.81221e+20
-15.7774  4.97912e+20
-15.6601  5.17139e+20
-15.5428  5.39746e+20
-15.4255  5.66732e+20
-15.3082  5.98872e+20
-15.1909  6.37067e+20
-15.0736  6.81934e+20
-14.9563  7.34017e+20
-14.839  7.92922e+20
-14.7217  8.58294e+20
-14.6044  9.28729e+20
-14.4871  1.00214e+21
-14.3698  1.07629e+21
-14.2525  1.14841e+21
-14.1352  1.21604e+21
-14.0178  1.27646e+21
-13.9005  1.3282e+21
-13.7832  1.37012e+21
-13.6659  1.40244e+21
-13.5486  1.42587e+21
-13.4313  1.44238e+21
-13.314  1.45424e+21
-13.1967  1.46439e+21
-13.0794  1.47516e+21
-12.9621  1.48952e+21
-12.8448  1.50933e+21
-12.7275  1.53656e+21
-12.6102  1.57164e+21
-12.4929  1.61505e+21
-12.3756  1.66639e+21
-12.2583  1.72446e+21
-12.141  1.78777e+21
-12.0237  1.85471e+21
-11.9064  1.92363e+21
-11.7891  1.99274e+21
-11.6718  2.06113e+21
-11.5544  2.12812e+21
-11.4371  2.19385e+21
-11.3198  2.25951e+21
-11.2025  2.32666e+21
-11.0852  2.39727e+21
-10.9679  2.47397e+21
-10.8506  2.55885e+21
-10.7333  2.654e+21
-10.616  2.76101e+21
-10.4987  2.88033e+21
-10.3814  3.01224e+21
-10.2641  3.15622e+21
-10.1468  3.31143e+21
-10.0295  3.47632e+21
-9.91217  3.64983e+21
-9.79487  3.83061e+21
-9.67756  4.01774e+21
-9.56026  4.21051e+21
-9.44295  4.40876e+21
-9.32565  4.6128e+21
-9.20834  4.8233e+21
-9.09104  5.04151e+21
-8.97373  5.26872e+21
-8.85643  5.50718e+21
-8.73913  5.7588e+21
-8.62182  6.02544e+21
-8.50452  6.30913e+21
-8.38721  6.61153e+21
-8.26991  6.93405e+21
-8.1526  7.27755e+21
-8.03529  7.64238e+21
-7.91799  8.02806e+21
-7.80069  8.43419e+21
-7.68338  8.85907e+21
-7.56608  9.30107e+21
-7.44877  9.75816e+21
-7.33146  1.02284e+22
-7.21416  1.07095e+22
-7.09685  1.12e+22
-6.97955  1.16987e+22
-6.86224  1.22049e+22
-6.74494  1.27182e+22
-6.62763  1.32392e+22
-6.51033  1.37684e+22
-6.39302  1.4307e+22
-6.27572  1.4856e+22
-6.15842  1.54165e+22
-6.04111  1.59889e+22
-5.92381  1.65745e+22
-5.8065  1.71725e+22
-5.68919  1.77827e+22
-5.57189  1.84049e+22
-5.45458  1.90379e+22
-5.33728  1.96799e+22
-5.21997  2.03301e+22
-5.10267  2.09866e+22
-4.98536  2.16478e+22
-4.86806  2.23118e+22
-4.75075  2.29779e+22
-4.63345  2.36447e+22
-4.51614  2.4312e+22
-4.39884  2.49796e+22
-4.28154  2.56478e+22
-4.16423  2.63186e+22
-4.04692  2.69915e+22
-3.92962  2.76679e+22
-3.81231  2.83483e+22
-3.69501  2.90318e+22
-3.5777  2.97181e+22
-3.4604  3.04045e+22
-3.34309  3.10875e+22
-3.22579  3.17632e+22
-3.10849  3.24278e+22
-2.99118  3.30749e+22
-2.87387  3.3701e+22
-2.75657  3.43019e+22
-2.63926  3.48745e+22
-2.52196  3.54171e+22
-2.40465  3.59304e+22
-2.28735  3.6416e+22
-2.17005  3.68775e+22
-2.05274  3.732e+22
-1.93544  3.77494e+22
-1.81813  3.81726e+22
-1.70083  3.85959e+22
-1.58352  3.90255e+22
-1.46622  3.94655e+22
-1.34891  3.99175e+22
-1.2316  4.03826e+22
-1.1143  4.08573e+22
-0.996995  4.13358e+22
-0.87969  4.18095e+22
-0.762385  4.2267e+22
-0.64508  4.26957e+22
-0.527775  4.30818e+22
-0.41047  4.34116e+22
-0.293165  4.36722e+22
-0.17586  4.38534e+22
-0.058555  4.39478e+22
0.05875  4.3951e+22
0.176055  4.3863e+22
0.29336  4.36887e+22
0.410665  4.34345e+22
0.52797  4.31115e+22
0.645275  4.27322e+22
0.76258  4.23108e+22
0.879885  4.18604e+22
0.99719  4.13943e+22
1.1145  4.09234e+22
1.2318  4.0456e+22
1.3491  3.9998e+22
1.46641  3.95529e+22
1.58371  3.91198e+22
1.70102  3.8697e+22
1.81832  3.82799e+22
1.93563  3.78627e+22
2.05294  3.74388e+22
2.17024  3.70017e+22
2.28754  3.65449e+22
2.40485  3.60636e+22
2.52216  3.55545e+22
2.63946  3.50152e+22
2.75677  3.44461e+22
2.87407  3.38483e+22
2.99137  3.32252e+22
3.10868  3.25804e+22
3.22599  3.19187e+22
3.34329  3.12456e+22
3.4606  3.05644e+22
3.5779  2.98802e+22
3.69521  2.91963e+22
3.81251  2.85138e+22
3.92982  2.78349e+22
4.04712  2.71598e+22
4.16443  2.64875e+22
4.28173  2.58176e+22
4.39903  2.51489e+22
4.51634  2.44812e+22
4.63364  2.38132e+22
4.75095  2.31456e+22
4.86825  2.24785e+22
4.98556  2.1813e+22
5.10286  2.11506e+22
5.22017  2.04919e+22
5.33748  1.98399e+22
5.45478  1.91955e+22
5.57209  1.85603e+22
5.68939  1.79361e+22
5.8067  1.7323e+22
5.924  1.67225e+22
6.0413  1.61347e+22
6.15861  1.55596e+22
6.27591  1.49961e+22
6.39322  1.44446e+22
6.51052  1.39031e+22
6.62783  1.33708e+22
6.74514  1.28465e+22
6.86244  1.23298e+22
6.97975  1.18202e+22
7.09705  1.13181e+22
7.21436  1.08239e+22
7.33166  1.0339e+22
7.44897  9.86545e+21
7.56627  9.4049e+21
7.68358  8.95958e+21
7.80088  8.53132e+21
7.91819  8.12209e+21
8.03549  7.73327e+21
8.1528  7.36542e+21
8.2701  7.01897e+21
8.38741  6.69358e+21
8.50471  6.38805e+21
8.62202  6.10177e+21
8.73932  5.83227e+21
8.85662  5.57779e+21
8.97393  5.33639e+21
9.09123  5.1062e+21
9.20854  4.88508e+21
9.32584  4.67147e+21
9.44315  4.46462e+21
9.56045  4.26346e+21
9.67776  4.06777e+21
9.79506  3.878e+21
9.91237  3.6945e+21
10.0297  3.51851e+21
10.147  3.3511e+21
10.2643  3.19356e+21
10.3816  3.04747e+21
10.4989  2.91339e+21
10.6162  2.79208e+21
10.7335  2.68332e+21
10.8508  2.58631e+21
10.9681  2.49958e+21
11.0854  2.42105e+21
11.2027  2.34851e+21
11.32  2.27961e+21
11.4373  2.21217e+21
11.5546  2.14463e+21
11.6719  2.07606e+21
11.7893  2.00613e+21
11.9066  1.93542e+21
12.0239  1.86546e+21
12.1412  1.79729e+21
12.2585  1.73298e+21
12.3758  1.67417e+21
12.4931  1.62225e+21
12.6104  1.57831e+21
12.7277  1.54275e+21
12.845  1.5151e+21
12.9623  1.49497e+21
13.0796  1.48019e+21
13.1969  1.46894e+21
13.3142  1.4584e+21
13.4315  1.4461e+21
13.5488  1.42902e+21
13.6661  1.40493e+21
13.7834  1.37216e+21
13.9007  1.32957e+21
14.018  1.27732e+21
14.1354  1.21645e+21
14.2527  1.14863e+21
14.37  1.07612e+21
14.4873  1.00198e+21
14.6046  9.28559e+20
14.7219  8.58291e+20
14.8392  7.93054e+20
14.9565  7.34264e+20
15.0738  6.82438e+20
15.1911  6.37677e+20
15.3084  5.99706e+20
15.4257  5.67815e+20
15.543  5.41037e+20
15.6603  5.18511e+20
15.7776  4.99334e+20
15.8949  4.82777e+20
16.0122  4.68105e+20
16.1295  4.54973e+20
16.2468  4.43097e+20
16.3641  4.32485e+20
16.4815  4.23178e+20
16.5988  4.1555e+20
16.7161  4.10143e+20
16.8334  4.07266e+20
16.9507  4.07528e+20
17.068  4.11085e+20
17.1853  4.18155e+20
17.3026  4.28513e+20
17.4199  4.4182e+20
17.5372  4.57412e+20
17.6545  4.74287e+20
17.7718  4.91506e+20
17.8891  5.08245e+20
18.0064  5.23263e+20
18.1237  5.35932e+20
18.241  5.45695e+20
18.3583  5.52129e+20
18.4756  5.55225e+20
18.5929  5.55264e+20
18.7102  5.52829e+20
18.8275  5.48388e+20
18.9449  5.42824e+20
19.0622  5.36831e+20
19.1795  5.31002e+20
19.2968  5.25809e+20
19.4141  5.21198e+20
19.5314  5.16993e+20
19.6487  5.12821e+20
19.766  5.07842e+20
19.8833  5.015e+20
20.0006  4.93019e+20
20.1179  4.81985e+20
20.2352  4.68024e+20
20.3525  4.51209e+20
20.4698  4.31911e+20
20.5871  4.10605e+20
20.7044  3.88003e+20
20.8217  3.65009e+20
20.939  3.42461e+20
21.0563  3.21197e+20
21.1736  3.02084e+20
21.291  2.85861e+20
21.4083  2.73096e+20
21.5256  2.64365e+20
21.6429  2.60012e+20
21.7602  2.60084e+20
21.8775  2.64414e+20
21.9948  2.72551e+20
22.1121  2.83739e+20
22.2294  2.97052e+20
22.3467  3.11256e+20
22.464  3.25304e+20
22.5813  3.38051e+20
22.6986  3.48592e+20
22.8159  3.56108e+20
22.9332  3.60275e+20
23.0505  3.6079e+20
23.1678  3.57728e+20
23.2851  3.51346e+20
23.4024  3.42104e+20
23.5198  3.30607e+20
23.6371  3.1763e+20
23.7544  3.04038e+20
23.8717  2.90681e+20
23.989  2.78385e+20
24.1063  2.67894e+20
24.2236  2.59602e+20
24.3409  2.53726e+20
24.4582  2.50096e+20
24.5755  2.48241e+20
24.6928  2.47527e+20
24.8101  2.4719e+20
24.9274  2.46492e+20
25.0447  2.4477e+20
25.162  2.41677e+20
25.2793  2.37091e+20
25.3966  2.31096e+20
25.5139  2.24056e+20
25.6312  2.16397e+20
25.7485  2.08597e+20
25.8658  2.01155e+20
25.9832  1.94289e+20
26.1005  1.88369e+20
26.2178  1.83365e+20
26.3351  1.79121e+20
26.4524  1.75504e+20
26.5697  1.72217e+20
26.687  1.68878e+20
26.8043  1.65281e+20
26.9216  1.61356e+20
27.0389  1.5725e+20
27.1562  1.53351e+20
27.2735  1.50148e+20
27.3908  1.484e+20
27.5081  1.48869e+20
27.6254  1.52082e+20
27.7427  1.58427e+20
27.86  1.67771e+20
27.9773  1.79728e+20
28.0946  1.93441e+20
28.212  2.07841e+20
28.3293  2.21857e+20
28.4466  2.34372e+20
28.5639  2.44641e+20
28.6812  2.5218e+20
28.7985  2.56792e+20
28.9158  2.58606e+20
29.0331  2.57821e+20
29.1504  2.54867e+20
29.2677  2.50018e+20
29.385  2.43567e+20
29.5023  2.35683e+20
29.6196  2.2651e+20
29.7369  2.16174e+20
29.8542  2.04819e+20
29.9715  1.92578e+20
30.0888  1.79553e+20
30.2061  1.6592e+20
30.3234  1.51798e+20
30.4407  1.37296e+20
30.558  1.22518e+20
30.6754  1.07572e+20
30.7927  9.27172e+19
30.91  7.82048e+19
31.0273  6.43836e+19
31.1446  5.16744e+19
31.2619  4.05303e+19
31.3792  3.12523e+19
31.4965  2.4104e+19
31.6138  1.91666e+19
31.7311  1.63672e+19
31.8484  1.551e+19
31.9657  1.63484e+19
32.083  1.85572e+19
32.2003  2.17924e+19
32.3176  2.57598e+19
32.4349  3.01422e+19
32.5522  3.46716e+19
32.6695  3.90948e+19
32.7868  4.32565e+19
32.9042  4.70588e+19
33.0215  5.04421e+19
33.1388  5.35665e+19
33.2561  5.65571e+19
33.3734  5.97194e+19
33.4907  6.32536e+19
33.608  6.73717e+19
33.7253  7.22152e+19
33.8426  7.7745e+19
33.9599  8.39212e+19
34.0772  9.05861e+19
34.1945  9.75824e+19
34.3118  1.04766e+20
34.4291  1.11999e+20
34.5464  1.19114e+20
34.6637  1.25796e+20
34.781  1.31808e+20
34.8983  1.36539e+20
35.0156  1.39522e+20
35.1329  1.40237e+20
35.2503  1.38273e+20
35.3676  1.33589e+20
35.4849  1.26396e+20
35.6022  1.17362e+20
35.7195  1.07469e+20
35.8368  9.77245e+19
35.9541  8.91243e+19
36.0714  8.2328e+19
36.1887  7.76851e+19
36.306  7.49009e+19
36.4233  7.34402e+19
36.5406  7.2498e+19
36.6579  7.13209e+19
36.7752  6.92361e+19
36.8925  6.60887e+19
37.0098  6.20172e+19
37.1271  5.75781e+19
37.2444  5.34811e+19
37.3617  5.05271e+19
37.479  4.92976e+19
37.5964  5.01251e+19
37.7137  5.31479e+19
37.831  5.80785e+19
37.9483  6.45285e+19
38.0656  7.1962e+19
38.1829  7.98751e+19
38.3002  8.78063e+19
38.4175  9.54043e+19
38.5348  1.02224e+20
38.6521  1.07983e+20
38.7694  1.12348e+20
38.8867  1.14966e+20
39.004  1.15584e+20
39.1213  1.1405e+20
39.2386  1.10411e+20
39.3559  1.04998e+20
39.4732  9.82075e+19
39.5905  9.06293e+19
39.7078  8.28761e+19
39.8251  7.5475e+19
39.9425  6.8829e+19
40.0598  6.31092e+19
40.1771  5.83269e+19
40.2944  5.42953e+19
40.4117  5.08141e+19
40.529  4.76826e+19
40.6463  4.47965e+19
40.7636  4.22108e+19
40.8809  4.00945e+19
40.9982  3.88141e+19
41.1155  3.86849e+19
41.2328  4.00602e+19
41.3501  4.31703e+19
41.4674  4.81222e+19
41.5847  5.47944e+19
41.702  6.28798e+19
41.8193  7.18576e+19
41.9366  8.09976e+19
42.0539  8.94957e+19
42.1712  9.64925e+19
42.2885  1.01205e+20
42.4059  1.02946e+20
42.5232  1.01363e+20
42.6405  9.64455e+19
42.7578  8.84661e+19
42.8751  7.80806e+19
42.9924  6.6139e+19
43.1097  5.36324e+19
43.227  4.15278e+19
43.3443  3.06122e+19
43.4616  2.14274e+19
43.5789  1.42244e+19
43.6962  9.00448e+18
43.8135  5.52145e+18
43.9308  3.44777e+18
44.0481  2.40527e+18
44.1654  2.05029e+18
44.2827  2.15097e+18
44.4  2.52502e+18
44.5173  3.05806e+18
44.6347  3.6803e+18
44.752  4.33282e+18
44.8693  4.97154e+18
44.9866  5.59741e+18
45.1039  6.26636e+18
45.2212  7.11259e+18
45.3385  8.34592e+18
45.4558  1.0223e+19
45.5731  1.29566e+19
45.6904  1.66879e+19
45.8077  2.13901e+19
45.925  2.68703e+19
46.0423  3.27402e+19
46.1596  3.8509e+19
46.2769  4.36287e+19
46.3942  4.77019e+19
46.5115  5.03331e+19
46.6288  5.15351e+19
46.7461  5.13759e+19
46.8634  5.01816e+19
46.9808  4.83453e+19
47.0981  4.62822e+19
47.2154  4.42884e+19
47.3327  4.25789e+19
47.45  4.12342e+19
47.5673  4.01382e+19
47.6846  3.91654e+19
47.8019  3.80975e+19
47.9192  3.67126e+19
48.0365  3.49058e+19
48.1538  3.25887e+19
48.2711  2.9766e+19
48.3884  2.65374e+19
48.5057  2.3067e+19
48.623  1.95605e+19
48.7403  1.62894e+19
48.8576  1.35212e+19
48.9749  1.1511e+19
49.0922  1.04467e+19
49.2095  1.04023e+19
49.3269  1.13572e+19
49.4442  1.31559e+19
49.5615  1.55814e+19
49.6788  1.83255e+19
49.7961  2.11289e+19
49.9134  2.37364e+19
50.0307  2.60496e+19
50.148  2.80465e+19
50.2653  2.97556e+19
50.3826  3.1322e+19
50.4999  3.29542e+19
50.6172  3.48098e+19
50.7345  3.70431e+19
50.8518  3.98494e+19
