#S 1 spectral density
#N 2
#UFWHM 28.9743
#L  abscissas [um]  spectral density
-58.5938  2.47821e+20
-58.4764  2.57547e+20
-58.3591  2.67401e+20
-58.2418  2.76716e+20
-58.1245  2.84724e+20
-58.0072  2.90929e+20
-57.8899  2.95245e+20
-57.7726  2.97721e+20
-57.6553  2.98721e+20
-57.538  2.98664e+20
-57.4207  2.97942e+20
-57.3034  2.96938e+20
-57.1861  2.95949e+20
-57.0688  2.95358e+20
-56.9515  2.95405e+20
-56.8342  2.96396e+20
-56.7169  2.98569e+20
-56.5996  3.01977e+20
-56.4823  3.06524e+20
-56.365  3.11801e+20
-56.2477  3.17139e+20
-56.1303  3.21569e+20
-56.013  3.24283e+20
-55.8957  3.24437e+20
-55.7784  3.21701e+20
-55.6611  3.16051e+20
-55.5438  3.08005e+20
-55.4265  2.98531e+20
-55.3092  2.88695e+20
-55.1919  2.79668e+20
-55.0746  2.72394e+20
-54.9573  2.67463e+20
-54.84  2.6519e+20
-54.7227  2.65339e+20
-54.6054  2.67654e+20
-54.4881  2.71387e+20
-54.3708  2.75861e+20
-54.2535  2.80382e+20
-54.1362  2.84376e+20
-54.0189  2.87149e+20
-53.9016  2.88296e+20
-53.7842  2.87578e+20
-53.6669  2.84882e+20
-53.5496  2.80406e+20
-53.4323  2.74615e+20
-53.315  2.68349e+20
-53.1977  2.62568e+20
-53.0804  2.58324e+20
-52.9631  2.56464e+20
-52.8458  2.57654e+20
-52.7285  2.62094e+20
-52.6112  2.69592e+20
-52.4939  2.79511e+20
-52.3766  2.91017e+20
-52.2593  3.03265e+20
-52.142  3.15368e+20
-52.0247  3.26862e+20
-51.9074  3.37374e+20
-51.7901  3.46913e+20
-51.6728  3.55689e+20
-51.5555  3.63908e+20
-51.4381  3.71726e+20
-51.3208  3.7937e+20
-51.2035  3.86791e+20
-51.0862  3.9404e+20
-50.9689  4.00959e+20
-50.8516  4.07548e+20
-50.7343  4.13771e+20
-50.617  4.19636e+20
-50.4997  4.25151e+20
-50.3824  4.30241e+20
-50.2651  4.34758e+20
-50.1478  4.3866e+20
-50.0305  4.41609e+20
-49.9132  4.43597e+20
-49.7959  4.44417e+20
-49.6786  4.44182e+20
-49.5613  4.42986e+20
-49.444  4.41111e+20
-49.3267  4.38889e+20
-49.2094  4.36598e+20
-49.092  4.34553e+20
-48.9747  4.32879e+20
-48.8574  4.3172e+20
-48.7401  4.31061e+20
-48.6228  4.30873e+20
-48.5055  4.31148e+20
-48.3882  4.31968e+20
-48.2709  4.33396e+20
-48.1536  4.35606e+20
-48.0363  4.38942e+20
-47.919  4.43765e+20
-47.8017  4.50509e+20
-47.6844  4.5949e+20
-47.5671  4.71018e+20
-47.4498  4.85165e+20
-47.3325  5.01622e+20
-47.2152  5.1984e+20
-47.0979  5.38622e+20
-46.9806  5.56667e+20
-46.8633  5.72406e+20
-46.7459  5.84072e+20
-46.6286  5.90366e+20
-46.5113  5.90297e+20
-46.394  5.83872e+20
-46.2767  5.71613e+20
-46.1594  5.55023e+20
-46.0421  5.36221e+20
-45.9248  5.1781e+20
-45.8075  5.0237e+20
-45.6902  4.92297e+20
-45.5729  4.8939e+20
-45.4556  4.94839e+20
-45.3383  5.08871e+20
-45.221  5.3106e+20
-45.1037  5.60027e+20
-44.9864  5.94114e+20
-44.8691  6.31095e+20
-44.7518  6.68692e+20
-44.6345  7.04614e+20
-44.5172  7.36726e+20
-44.3998  7.63471e+20
-44.2825  7.8334e+20
-44.1652  7.9588e+20
-44.0479  8.01146e+20
-43.9306  7.99786e+20
-43.8133  7.93104e+20
-43.696  7.82884e+20
-43.5787  7.70912e+20
-43.4614  7.58962e+20
-43.3441  7.48541e+20
-43.2268  7.40572e+20
-43.1095  7.35525e+20
-42.9922  7.33148e+20
-42.8749  7.32757e+20
-42.7576  7.33528e+20
-42.6403  7.34272e+20
-42.523  7.34289e+20
-42.4057  7.32738e+20
-42.2884  7.2945e+20
-42.171  7.24582e+20
-42.0537  7.1849e+20
-41.9364  7.12003e+20
-41.8191  7.0579e+20
-41.7018  7.00926e+20
-41.5845  6.98185e+20
-41.4672  6.98284e+20
-41.3499  7.01727e+20
-41.2326  7.08663e+20
-41.1153  7.18923e+20
-40.998  7.31848e+20
-40.8807  7.46593e+20
-40.7634  7.62005e+20
-40.6461  7.76746e+20
-40.5288  7.89693e+20
-40.4115  7.99748e+20
-40.2942  8.06592e+20
-40.1769  8.09971e+20
-40.0596  8.10406e+20
-39.9423  8.08805e+20
-39.825  8.06569e+20
-39.7076  8.05345e+20
-39.5903  8.065e+20
-39.473  8.11521e+20
-39.3557  8.21745e+20
-39.2384  8.37805e+20
-39.1211  8.59974e+20
-39.0038  8.88186e+20
-38.8865  9.21419e+20
-38.7692  9.58158e+20
-38.6519  9.96582e+20
-38.5346  1.03415e+21
-38.4173  1.06856e+21
-38.3  1.09723e+21
-38.1827  1.11832e+21
-38.0654  1.13065e+21
-37.9481  1.13386e+21
-37.8308  1.1288e+21
-37.7135  1.11687e+21
-37.5962  1.10018e+21
-37.4789  1.08126e+21
-37.3615  1.06232e+21
-37.2442  1.04515e+21
-37.1269  1.03075e+21
-37.0096  1.01935e+21
-36.8923  1.01067e+21
-36.775  1.00386e+21
-36.6577  9.97976e+20
-36.5404  9.922e+20
-36.4231  9.85808e+20
-36.3058  9.78682e+20
-36.1885  9.70954e+20
-36.0712  9.6297e+20
-35.9539  9.55303e+20
-35.8366  9.48499e+20
-35.7193  9.4331e+20
-35.602  9.40711e+20
-35.4847  9.41152e+20
-35.3674  9.45321e+20
-35.2501  9.53994e+20
-35.1328  9.67611e+20
-35.0154  9.8653e+20
-34.8981  1.01033e+21
-34.7808  1.03814e+21
-34.6635  1.06898e+21
-34.5462  1.10092e+21
-34.4289  1.13199e+21
-34.3116  1.16058e+21
-34.1943  1.18485e+21
-34.077  1.20368e+21
-33.9597  1.21682e+21
-33.8424  1.22406e+21
-33.7251  1.22634e+21
-33.6078  1.22443e+21
-33.4905  1.21967e+21
-33.3732  1.2134e+21
-33.2559  1.20693e+21
-33.1386  1.20155e+21
-33.0213  1.19819e+21
-32.904  1.1975e+21
-32.7867  1.20021e+21
-32.6693  1.20644e+21
-32.552  1.21603e+21
-32.4347  1.22846e+21
-32.3174  1.24262e+21
-32.2001  1.2578e+21
-32.0828  1.27274e+21
-31.9655  1.28657e+21
-31.8482  1.29873e+21
-31.7309  1.30881e+21
-31.6136  1.3172e+21
-31.4963  1.32433e+21
-31.379  1.33104e+21
-31.2617  1.33815e+21
-31.1444  1.34641e+21
-31.0271  1.35665e+21
-30.9098  1.36951e+21
-30.7925  1.38482e+21
-30.6752  1.4025e+21
-30.5579  1.42221e+21
-30.4406  1.44317e+21
-30.3232  1.46476e+21
-30.2059  1.48589e+21
-30.0886  1.50544e+21
-29.9713  1.52269e+21
-29.854  1.53689e+21
-29.7367  1.54744e+21
-29.6194  1.55462e+21
-29.5021  1.55875e+21
-29.3848  1.56082e+21
-29.2675  1.5624e+21
-29.1502  1.56471e+21
-29.0329  1.56932e+21
-28.9156  1.57762e+21
-28.7983  1.59048e+21
-28.681  1.60853e+21
-28.5637  1.63188e+21
-28.4464  1.66051e+21
-28.3291  1.6938e+21
-28.2118  1.73091e+21
-28.0944  1.77134e+21
-27.9771  1.81395e+21
-27.8598  1.85768e+21
-27.7425  1.90165e+21
-27.6252  1.94438e+21
-27.5079  1.98523e+21
-27.3906  2.02325e+21
-27.2733  2.05808e+21
-27.156  2.08963e+21
-27.0387  2.1181e+21
-26.9214  2.14449e+21
-26.8041  2.16963e+21
-26.6868  2.19475e+21
-26.5695  2.22073e+21
-26.4522  2.24831e+21
-26.3349  2.27814e+21
-26.2176  2.31035e+21
-26.1003  2.34437e+21
-25.983  2.37953e+21
-25.8657  2.4147e+21
-25.7483  2.44858e+21
-25.631  2.47993e+21
-25.5137  2.50736e+21
-25.3964  2.52939e+21
-25.2791  2.54502e+21
-25.1618  2.55356e+21
-25.0445  2.55442e+21
-24.9272  2.5479e+21
-24.8099  2.53446e+21
-24.6926  2.51547e+21
-24.5753  2.49292e+21
-24.458  2.46865e+21
-24.3407  2.44527e+21
-24.2234  2.42548e+21
-24.1061  2.41185e+21
-23.9888  2.40678e+21
-23.8715  2.4125e+21
-23.7542  2.4309e+21
-23.6369  2.46305e+21
-23.5196  2.5093e+21
-23.4023  2.56992e+21
-23.2849  2.64349e+21
-23.1676  2.72826e+21
-23.0503  2.82181e+21
-22.933  2.92059e+21
-22.8157  3.02124e+21
-22.6984  3.12015e+21
-22.5811  3.21409e+21
-22.4638  3.30058e+21
-22.3465  3.3776e+21
-22.2292  3.44477e+21
-22.1119  3.50223e+21
-21.9946  3.55135e+21
-21.8773  3.59389e+21
-21.76  3.63213e+21
-21.6427  3.66879e+21
-21.5254  3.70627e+21
-21.4081  3.7467e+21
-21.2908  3.79137e+21
-21.1735  3.84116e+21
-21.0561  3.89621e+21
-20.9388  3.956e+21
-20.8215  4.01932e+21
-20.7042  4.08417e+21
-20.5869  4.1484e+21
-20.4696  4.21006e+21
-20.3523  4.26692e+21
-20.235  4.31767e+21
-20.1177  4.36124e+21
-20.0004  4.39787e+21
-19.8831  4.42888e+21
-19.7658  4.45584e+21
-19.6485  4.48169e+21
-19.5312  4.50958e+21
-19.4139  4.54266e+21
-19.2966  4.58395e+21
-19.1793  4.63601e+21
-19.062  4.70055e+21
-18.9447  4.77811e+21
-18.8274  4.86799e+21
-18.71  4.96928e+21
-18.5927  5.07911e+21
-18.4754  5.19441e+21
-18.3581  5.31178e+21
-18.2408  5.42716e+21
-18.1235  5.5371e+21
-18.0062  5.63858e+21
-17.8889  5.7293e+21
-17.7716  5.80853e+21
-17.6543  5.87586e+21
-17.537  5.93316e+21
-17.4197  5.98245e+21
-17.3024  6.02729e+21
-17.1851  6.07123e+21
-17.0678  6.11768e+21
-16.9505  6.17032e+21
-16.8332  6.23175e+21
-16.7159  6.30355e+21
-16.5986  6.38582e+21
-16.4813  6.47783e+21
-16.364  6.57769e+21
-16.2466  6.68274e+21
-16.1293  6.78989e+21
-16.012  6.89527e+21
-15.8947  6.99597e+21
-15.7774  7.08937e+21
-15.6601  7.1736e+21
-15.5428  7.24787e+21
-15.4255  7.31241e+21
-15.3082  7.36846e+21
-15.1909  7.41906e+21
-15.0736  7.46646e+21
-14.9563  7.51442e+21
-14.839  7.56616e+21
-14.7217  7.62425e+21
-14.6044  7.69055e+21
-14.4871  7.76562e+21
-14.3698  7.84899e+21
-14.2525  7.93866e+21
-14.1352  8.03178e+21
-14.0178  8.1257e+21
-13.9005  8.21684e+21
-13.7832  8.30247e+21
-13.6659  8.3808e+21
-13.5486  8.45079e+21
-13.4313  8.51271e+21
-13.314  8.56809e+21
-13.1967  8.61926e+21
-13.0794  8.66976e+21
-12.9621  8.72255e+21
-12.8448  8.78199e+21
-12.7275  8.85087e+21
-12.6102  8.9321e+21
-12.4929  9.02725e+21
-12.3756  9.13646e+21
-12.2583  9.25904e+21
-12.141  9.39271e+21
-12.0237  9.53376e+21
-11.9064  9.67724e+21
-11.7891  9.81789e+21
-11.6718  9.95013e+21
-11.5544  1.0069e+22
-11.4371  1.01708e+22
-11.3198  1.02523e+22
-11.2025  1.03132e+22
-11.0852  1.03545e+22
-10.9679  1.03789e+22
-10.8506  1.03911e+22
-10.7333  1.03967e+22
-10.616  1.04018e+22
-10.4987  1.04135e+22
-10.3814  1.04371e+22
-10.2641  1.04779e+22
-10.1468  1.05394e+22
-10.0295  1.06238e+22
-9.91217  1.07307e+22
-9.79487  1.08583e+22
-9.67756  1.1003e+22
-9.56026  1.11597e+22
-9.44295  1.13218e+22
-9.32565  1.14834e+22
-9.20834  1.1638e+22
-9.09104  1.17804e+22
-8.97373  1.19068e+22
-8.85643  1.2015e+22
-8.73913  1.21047e+22
-8.62182  1.21776e+22
-8.50452  1.22371e+22
-8.38721  1.22877e+22
-8.26991  1.23337e+22
-8.1526  1.2381e+22
-8.03529  1.24334e+22
-7.91799  1.24945e+22
-7.80069  1.25659e+22
-7.68338  1.26479e+22
-7.56608  1.27395e+22
-7.44877  1.28378e+22
-7.33146  1.29389e+22
-7.21416  1.30383e+22
-7.09685  1.31313e+22
-6.97955  1.32139e+22
-6.86224  1.32829e+22
-6.74494  1.33374e+22
-6.62763  1.33763e+22
-6.51033  1.34019e+22
-6.39302  1.34172e+22
-6.27572  1.34266e+22
-6.15842  1.34353e+22
-6.04111  1.34487e+22
-5.92381  1.34716e+22
-5.8065  1.35091e+22
-5.68919  1.35635e+22
-5.57189  1.3637e+22
-5.45458  1.3729e+22
-5.33728  1.38384e+22
-5.21997  1.39608e+22
-5.10267  1.4092e+22
-4.98536  1.4226e+22
-4.86806  1.43568e+22
-4.75075  1.44779e+22
-4.63345  1.45843e+22
-4.51614  1.46717e+22
-4.39884  1.47376e+22
-4.28154  1.47817e+22
-4.16423  1.48047e+22
-4.04692  1.48096e+22
-3.92962  1.48005e+22
-3.81231  1.47824e+22
-3.69501  1.47606e+22
-3.5777  1.47395e+22
-3.4604  1.47236e+22
-3.34309  1.47155e+22
-3.22579  1.47168e+22
-3.10849  1.47273e+22
-2.99118  1.47456e+22
-2.87387  1.47702e+22
-2.75657  1.47974e+22
-2.63926  1.48243e+22
-2.52196  1.48478e+22
-2.40465  1.48652e+22
-2.28735  1.48748e+22
-2.17005  1.48757e+22
-2.05274  1.48695e+22
-1.93544  1.48567e+22
-1.81813  1.48405e+22
-1.70083  1.48244e+22
-1.58352  1.4812e+22
-1.46622  1.48072e+22
-1.34891  1.48134e+22
-1.2316  1.48329e+22
-1.1143  1.48674e+22
-0.996995  1.49164e+22
-0.87969  1.49785e+22
-0.762385  1.50501e+22
-0.64508  1.51273e+22
-0.527775  1.52041e+22
-0.41047  1.52749e+22
-0.293165  1.53337e+22
-0.17586  1.53759e+22
-0.058555  1.53974e+22
0.05875  1.53964e+22
0.176055  1.53731e+22
0.29336  1.53291e+22
0.410665  1.52686e+22
0.52797  1.51964e+22
0.645275  1.51183e+22
0.76258  1.50399e+22
0.879885  1.49672e+22
0.99719  1.49044e+22
1.1145  1.48546e+22
1.2318  1.48197e+22
1.3491  1.47996e+22
1.46641  1.47932e+22
1.58371  1.47975e+22
1.70102  1.48094e+22
1.81832  1.48254e+22
1.93563  1.4841e+22
2.05294  1.48534e+22
2.17024  1.48597e+22
2.28754  1.48582e+22
2.40485  1.48484e+22
2.52216  1.48305e+22
2.63946  1.4807e+22
2.75677  1.47797e+22
2.87407  1.47521e+22
2.99137  1.47272e+22
3.10868  1.47081e+22
3.22599  1.4697e+22
3.34329  1.46951e+22
3.4606  1.47024e+22
3.5779  1.47174e+22
3.69521  1.47371e+22
3.81251  1.47577e+22
3.92982  1.47741e+22
4.04712  1.47814e+22
4.16443  1.47748e+22
4.28173  1.47501e+22
4.39903  1.47044e+22
4.51634  1.46369e+22
4.63364  1.45483e+22
4.75095  1.44407e+22
4.86825  1.43186e+22
4.98556  1.41871e+22
5.10286  1.40526e+22
5.22017  1.39211e+22
5.33748  1.37985e+22
5.45478  1.36893e+22
5.57209  1.35972e+22
5.68939  1.35238e+22
5.8067  1.34691e+22
5.924  1.34316e+22
6.0413  1.34082e+22
6.15861  1.33943e+22
6.27591  1.33849e+22
6.39322  1.33747e+22
6.51052  1.33585e+22
6.62783  1.33316e+22
6.74514  1.32916e+22
6.86244  1.32363e+22
6.97975  1.31661e+22
7.09705  1.30827e+22
7.21436  1.29889e+22
7.33166  1.2889e+22
7.44897  1.27877e+22
7.56627  1.26894e+22
7.68358  1.25977e+22
7.80088  1.25156e+22
7.91819  1.24442e+22
8.03549  1.23833e+22
8.1528  1.23311e+22
8.2701  1.22838e+22
8.38741  1.22373e+22
8.50471  1.21865e+22
8.62202  1.21265e+22
8.73932  1.20529e+22
8.85662  1.19626e+22
8.97393  1.1854e+22
9.09123  1.1727e+22
9.20854  1.15841e+22
9.32584  1.14295e+22
9.44315  1.12678e+22
9.56045  1.11056e+22
9.67776  1.09492e+22
9.79506  1.08049e+22
9.91237  1.06775e+22
10.0297  1.05711e+22
10.147  1.04873e+22
10.2643  1.0426e+22
10.3816  1.03853e+22
10.4989  1.03617e+22
10.6162  1.03499e+22
10.7335  1.03442e+22
10.8508  1.03379e+22
10.9681  1.03247e+22
11.0854  1.02994e+22
11.2027  1.02572e+22
11.32  1.0195e+22
11.4373  1.01122e+22
11.5546  1.00097e+22
11.6719  9.88971e+21
11.7893  9.7569e+21
11.9066  9.6157e+21
12.0239  9.4719e+21
12.1412  9.3311e+21
12.2585  9.19765e+21
12.3758  9.07523e+21
12.4931  8.96649e+21
12.6104  8.87193e+21
12.7277  8.7914e+21
12.845  8.72331e+21
12.9623  8.66452e+21
13.0796  8.61221e+21
13.1969  8.56233e+21
13.3142  8.51144e+21
13.4315  8.4564e+21
13.5488  8.39477e+21
13.6661  8.32504e+21
13.7834  8.2467e+21
13.9007  8.16103e+21
14.018  8.07019e+21
14.1354  7.97627e+21
14.2527  7.88309e+21
14.37  7.79357e+21
14.4873  7.71035e+21
14.6046  7.63538e+21
14.7219  7.56915e+21
14.8392  7.5113e+21
14.9565  7.45973e+21
15.0738  7.41171e+21
15.1911  7.36448e+21
15.3084  7.31403e+21
15.4257  7.25793e+21
15.543  7.19349e+21
15.6603  7.11943e+21
15.7776  7.03562e+21
15.8949  6.94263e+21
16.0122  6.84213e+21
16.1295  6.73709e+21
16.2468  6.63061e+21
16.3641  6.52598e+21
16.4815  6.42678e+21
16.5988  6.3352e+21
16.7161  6.25332e+21
16.8334  6.18222e+21
16.9507  6.1211e+21
17.068  6.06857e+21
17.1853  6.02223e+21
17.3026  5.97842e+21
17.4199  5.93377e+21
17.5372  5.88461e+21
17.6545  5.82727e+21
17.7718  5.75998e+21
17.8891  5.68108e+21
18.0064  5.59051e+21
18.1237  5.48944e+21
18.241  5.37998e+21
18.3583  5.26525e+21
18.4756  5.14855e+21
18.5929  5.0339e+21
18.7102  4.925e+21
18.8275  4.82451e+21
18.9449  4.7352e+21
19.0622  4.6584e+21
19.1795  4.59446e+21
19.2968  4.54293e+21
19.4141  4.50195e+21
19.5314  4.46933e+21
19.6487  4.44181e+21
19.766  4.41608e+21
19.8833  4.38937e+21
20.0006  4.35859e+21
20.1179  4.32214e+21
20.2352  4.27874e+21
20.3525  4.22848e+21
20.4698  4.17217e+21
20.5871  4.11117e+21
20.7044  4.04736e+21
20.8217  3.98316e+21
20.939  3.92053e+21
21.0563  3.86129e+21
21.1736  3.80687e+21
21.291  3.75754e+21
21.4083  3.71323e+21
21.5256  3.67335e+21
21.6429  3.63609e+21
21.7602  3.59951e+21
21.8775  3.56126e+21
21.9948  3.51871e+21
22.1121  3.46977e+21
22.2294  3.41244e+21
22.3467  3.34524e+21
22.464  3.26837e+21
22.5813  3.18226e+21
22.6986  3.08873e+21
22.8159  2.99035e+21
22.9332  2.89038e+21
23.0505  2.79241e+21
23.1678  2.69978e+21
23.2851  2.61587e+21
23.4024  2.54335e+21
23.5198  2.48366e+21
23.6371  2.43817e+21
23.7544  2.4069e+21
23.8717  2.38919e+21
23.989  2.38406e+21
24.1063  2.38956e+21
24.2236  2.40365e+21
24.3409  2.42379e+21
24.4582  2.44732e+21
24.5755  2.47182e+21
24.6928  2.4946e+21
24.8101  2.51363e+21
24.9274  2.52704e+21
25.0447  2.5337e+21
25.162  2.53304e+21
25.2793  2.52485e+21
25.3966  2.50934e+21
25.5139  2.48748e+21
25.6312  2.46037e+21
25.7485  2.4293e+21
25.8658  2.39577e+21
25.9832  2.3609e+21
26.1005  2.32612e+21
26.2178  2.29252e+21
26.3351  2.26076e+21
26.4524  2.23113e+21
26.5697  2.20376e+21
26.687  2.178e+21
26.8043  2.15321e+21
26.9216  2.12832e+21
27.0389  2.10203e+21
27.1562  2.07368e+21
27.2735  2.04226e+21
27.3908  2.00758e+21
27.5081  1.96969e+21
27.6254  1.92904e+21
27.7427  1.88651e+21
27.86  1.8429e+21
27.9773  1.79944e+21
28.0946  1.75736e+21
28.212  1.71731e+21
28.3293  1.68061e+21
28.4466  1.64785e+21
28.5639  1.61978e+21
28.6812  1.5969e+21
28.7985  1.57935e+21
28.9158  1.567e+21
29.0331  1.55917e+21
29.1504  1.55482e+21
29.2677  1.55287e+21
29.385  1.55158e+21
29.5023  1.54962e+21
29.6196  1.54547e+21
29.7369  1.53833e+21
29.8542  1.52778e+21
29.9715  1.51372e+21
30.0888  1.4965e+21
30.2061  1.47684e+21
30.3234  1.45578e+21
30.4407  1.43436e+21
30.558  1.41352e+21
30.6754  1.39394e+21
30.7927  1.37639e+21
30.91  1.36136e+21
31.0273  1.34888e+21
31.1446  1.33868e+21
31.2619  1.33057e+21
31.3792  1.32358e+21
31.4965  1.31702e+21
31.6138  1.31008e+21
31.7311  1.3017e+21
31.8484  1.29162e+21
31.9657  1.2795e+21
32.083  1.26571e+21
32.2003  1.2508e+21
32.3176  1.23569e+21
32.4349  1.22164e+21
32.5522  1.20938e+21
32.6695  1.19998e+21
32.7868  1.19404e+21
32.9042  1.19148e+21
33.0215  1.19235e+21
33.1388  1.19598e+21
33.2561  1.20161e+21
33.3734  1.20822e+21
33.4907  1.21458e+21
33.608  1.2195e+21
33.7253  1.22147e+21
33.8426  1.21915e+21
33.9599  1.21185e+21
34.0772  1.19866e+21
34.1945  1.17969e+21
34.3118  1.15523e+21
34.4291  1.12668e+21
34.5464  1.09552e+21
34.6637  1.06364e+21
34.781  1.03296e+21
34.8983  1.00507e+21
35.0156  9.81387e+20
35.1329  9.62766e+20
35.2503  9.49266e+20
35.3676  9.40687e+20
35.4849  9.36553e+20
35.6022  9.36347e+20
35.7195  9.39144e+20
35.8368  9.44309e+20
35.9541  9.51163e+20
36.0714  9.58826e+20
36.1887  9.66832e+20
36.306  9.74696e+20
36.4233  9.81679e+20
36.5406  9.88016e+20
36.6579  9.93779e+20
36.7752  9.9969e+20
36.8925  1.00649e+21
37.0098  1.01521e+21
37.1271  1.02672e+21
37.2444  1.04119e+21
37.3617  1.05842e+21
37.479  1.07745e+21
37.5964  1.09636e+21
37.7137  1.1129e+21
37.831  1.12477e+21
37.9483  1.12965e+21
38.0656  1.12621e+21
38.1829  1.11365e+21
38.3002  1.0924e+21
38.4175  1.06357e+21
38.5348  1.02907e+21
38.6521  9.9151e+20
38.7694  9.53142e+20
38.8867  9.16443e+20
39.004  8.83338e+20
39.1213  8.55374e+20
39.2386  8.33367e+20
39.3559  8.17478e+20
39.4732  8.07469e+20
39.5905  8.02438e+20
39.7078  8.01329e+20
39.8251  8.02766e+20
39.9425  8.04972e+20
40.0598  8.06563e+20
40.1771  8.05962e+20
40.2944  8.02578e+20
40.4117  7.95693e+20
40.529  7.85514e+20
40.6463  7.72555e+20
40.7636  7.57696e+20
40.8809  7.42338e+20
40.9982  7.27683e+20
41.1155  7.14698e+20
41.2328  7.04523e+20
41.3501  6.97654e+20
41.4674  6.94318e+20
41.5847  6.9425e+20
41.702  6.9709e+20
41.8193  7.02028e+20
41.9366  7.08227e+20
42.0539  7.14725e+20
42.1712  7.20797e+20
42.2885  7.25726e+20
42.4059  7.28942e+20
42.5232  7.30491e+20
42.6405  7.3045e+20
42.7578  7.29725e+20
42.8751  7.2901e+20
42.9924  7.2942e+20
43.1097  7.31842e+20
43.227  7.3691e+20
43.3443  7.44911e+20
43.4616  7.55273e+20
43.5789  7.67113e+20
43.6962  7.78959e+20
43.8135  7.89035e+20
43.9308  7.95537e+20
44.0481  7.96639e+20
44.1654  7.91148e+20
44.2827  7.78347e+20
44.4  7.58277e+20
44.5173  7.31541e+20
44.6347  6.99359e+20
44.752  6.63586e+20
44.8693  6.26028e+20
44.9866  5.89265e+20
45.1039  5.55458e+20
45.2212  5.26798e+20
45.3385  5.04981e+20
45.4558  4.91241e+20
45.5731  4.86132e+20
45.6904  4.89274e+20
45.8077  4.99495e+20
45.925  5.15005e+20
46.0423  5.33446e+20
46.1596  5.52103e+20
46.2769  5.68528e+20
46.3942  5.80598e+20
46.5115  5.86808e+20
46.6288  5.86643e+20
46.7461  5.80179e+20
46.8634  5.68366e+20
46.9808  5.52626e+20
47.0981  5.34577e+20
47.2154  5.15879e+20
47.3327  4.97804e+20
47.45  4.8153e+20
47.5673  4.67566e+20
47.6846  4.56249e+20
47.8019  4.47426e+20
47.9192  4.40845e+20
48.0365  4.36175e+20
48.1538  4.32911e+20
48.2711  4.30747e+20
48.3884  4.29371e+20
48.5057  4.28605e+20
48.623  4.28343e+20
48.7403  4.28523e+20
48.8576  4.29216e+20
48.9749  4.3036e+20
49.0922  4.32004e+20
49.2095  4.34077e+20
49.3269  4.36327e+20
49.4442  4.38604e+20
49.5615  4.40429e+20
49.6788  4.416e+20
49.7961  4.41821e+20
49.9134  4.41042e+20
50.0307  4.39086e+20
50.148  4.36109e+20
50.2653  4.32293e+20
50.3826  4.27785e+20
50.4999  4.22743e+20
50.6172  4.17288e+20
50.7345  4.11467e+20
50.8518  4.05317e+20
