#S 1 spectral density
#N 2
#UFWHM 33.7838
#L  abscissas [um]  spectral density
-58.5938  2.86114e+20
-58.4764  2.81635e+20
-58.3591  2.78715e+20
-58.2418  2.78478e+20
-58.1245  2.81856e+20
-58.0072  2.89694e+20
-57.8899  3.02359e+20
-57.7726  3.1965e+20
-57.6553  3.40777e+20
-57.538  3.64269e+20
-57.4207  3.88004e+20
-57.3034  4.09612e+20
-57.1861  4.2666e+20
-57.0688  4.37204e+20
-56.9515  4.39902e+20
-56.8342  4.34405e+20
-56.7169  4.21454e+20
-56.5996  4.02636e+20
-56.4823  3.80194e+20
-56.365  3.56732e+20
-56.2477  3.3482e+20
-56.1303  3.16618e+20
-56.013  3.03753e+20
-55.8957  2.97215e+20
-55.7784  2.97267e+20
-55.6611  3.03643e+20
-55.5438  3.15482e+20
-55.4265  3.31563e+20
-55.3092  3.50407e+20
-55.1919  3.70468e+20
-55.0746  3.90111e+20
-54.9573  4.07918e+20
-54.84  4.22728e+20
-54.7227  4.33986e+20
-54.6054  4.413e+20
-54.4881  4.44939e+20
-54.3708  4.45392e+20
-54.2535  4.4348e+20
-54.1362  4.39925e+20
-54.0189  4.35339e+20
-53.9016  4.2975e+20
-53.7842  4.23218e+20
-53.6669  4.15167e+20
-53.5496  4.0535e+20
-53.4323  3.93291e+20
-53.315  3.78945e+20
-53.1977  3.6267e+20
-53.0804  3.44992e+20
-52.9631  3.27019e+20
-52.8458  3.09905e+20
-52.7285  2.94791e+20
-52.6112  2.82764e+20
-52.4939  2.74639e+20
-52.3766  2.71046e+20
-52.2593  2.72264e+20
-52.142  2.78371e+20
-52.0247  2.89202e+20
-51.9074  3.04398e+20
-51.7901  3.2327e+20
-51.6728  3.44946e+20
-51.5555  3.68349e+20
-51.4381  3.91944e+20
-51.3208  4.14394e+20
-51.2035  4.34238e+20
-51.0862  4.50515e+20
-50.9689  4.62462e+20
-50.8516  4.69881e+20
-50.7343  4.73315e+20
-50.617  4.73601e+20
-50.4997  4.72052e+20
-50.3824  4.70041e+20
-50.2651  4.68847e+20
-50.1478  4.69606e+20
-50.0305  4.72861e+20
-49.9132  4.78865e+20
-49.7959  4.87122e+20
-49.6786  4.96743e+20
-49.5613  5.06637e+20
-49.444  5.1557e+20
-49.3267  5.22062e+20
-49.2094  5.24841e+20
-49.092  5.23298e+20
-48.9747  5.16689e+20
-48.8574  5.05298e+20
-48.7401  4.89703e+20
-48.6228  4.71021e+20
-48.5055  4.50783e+20
-48.3882  4.30625e+20
-48.2709  4.12172e+20
-48.1536  3.96797e+20
-48.0363  3.85499e+20
-47.919  3.78759e+20
-47.8017  3.76644e+20
-47.6844  3.78646e+20
-47.5671  3.8402e+20
-47.4498  3.91689e+20
-47.3325  4.00525e+20
-47.2152  4.09435e+20
-47.0979  4.17416e+20
-46.9806  4.23804e+20
-46.8633  4.28241e+20
-46.7459  4.30479e+20
-46.6286  4.31118e+20
-46.5113  4.30634e+20
-46.394  4.30245e+20
-46.2767  4.30971e+20
-46.1594  4.34073e+20
-46.0421  4.40632e+20
-45.9248  4.51195e+20
-45.8075  4.65902e+20
-45.6902  4.84185e+20
-45.5729  5.04891e+20
-45.4556  5.26637e+20
-45.3383  5.47362e+20
-45.221  5.65516e+20
-45.1037  5.7932e+20
-44.9864  5.87787e+20
-44.8691  5.90224e+20
-44.7518  5.86626e+20
-44.6345  5.77323e+20
-44.5172  5.63213e+20
-44.3998  5.45395e+20
-44.2825  5.2495e+20
-44.1652  5.03091e+20
-44.0479  4.80964e+20
-43.9306  4.59555e+20
-43.8133  4.39729e+20
-43.696  4.22279e+20
-43.5787  4.0756e+20
-43.4614  3.95675e+20
-43.3441  3.86641e+20
-43.2268  3.80002e+20
-43.1095  3.75298e+20
-42.9922  3.71865e+20
-42.8749  3.69347e+20
-42.7576  3.67568e+20
-42.6403  3.66672e+20
-42.523  3.67294e+20
-42.4057  3.70211e+20
-42.2884  3.76557e+20
-42.171  3.87303e+20
-42.0537  4.03255e+20
-41.9364  4.24818e+20
-41.8191  4.51706e+20
-41.7018  4.83271e+20
-41.5845  5.18178e+20
-41.4672  5.54899e+20
-41.3499  5.9157e+20
-41.2326  6.26552e+20
-41.1153  6.58214e+20
-40.998  6.85439e+20
-40.8807  7.07484e+20
-40.7634  7.24247e+20
-40.6461  7.35932e+20
-40.5288  7.43307e+20
-40.4115  7.47275e+20
-40.2942  7.49134e+20
-40.1769  7.49801e+20
-40.0596  7.49948e+20
-39.9423  7.50136e+20
-39.825  7.50288e+20
-39.7076  7.49883e+20
-39.5903  7.48111e+20
-39.473  7.43982e+20
-39.3557  7.36699e+20
-39.2384  7.25623e+20
-39.1211  7.10709e+20
-39.0038  6.9251e+20
-38.8865  6.7195e+20
-38.7692  6.50429e+20
-38.6519  6.29498e+20
-38.5346  6.10725e+20
-38.4173  5.95466e+20
-38.3  5.84697e+20
-38.1827  5.79013e+20
-38.0654  5.78917e+20
-37.9481  5.84404e+20
-37.8308  5.95575e+20
-37.7135  6.12044e+20
-37.5962  6.33439e+20
-37.4789  6.59031e+20
-37.3615  6.87907e+20
-37.2442  7.18527e+20
-37.1269  7.49235e+20
-37.0096  7.78125e+20
-36.8923  8.03503e+20
-36.775  8.239e+20
-36.6577  8.38378e+20
-36.5404  8.46795e+20
-36.4231  8.49727e+20
-36.3058  8.48161e+20
-36.1885  8.43757e+20
-36.0712  8.37959e+20
-35.9539  8.32377e+20
-35.8366  8.27968e+20
-35.7193  8.25569e+20
-35.602  8.2558e+20
-35.4847  8.27901e+20
-35.3674  8.32311e+20
-35.2501  8.38621e+20
-35.1328  8.46393e+20
-35.0154  8.55354e+20
-34.8981  8.64916e+20
-34.7808  8.7481e+20
-34.6635  8.84681e+20
-34.5462  8.94179e+20
-34.4289  9.03283e+20
-34.3116  9.12223e+20
-34.1943  9.21499e+20
-34.077  9.31894e+20
-33.9597  9.44292e+20
-33.8424  9.59629e+20
-33.7251  9.78575e+20
-33.6078  1.00137e+21
-33.4905  1.02763e+21
-33.3732  1.05666e+21
-33.2559  1.08721e+21
-33.1386  1.11801e+21
-33.0213  1.14769e+21
-32.904  1.17513e+21
-32.7867  1.19981e+21
-32.6693  1.22158e+21
-32.552  1.2407e+21
-32.4347  1.2577e+21
-32.3174  1.27348e+21
-32.2001  1.28899e+21
-32.0828  1.30504e+21
-31.9655  1.32235e+21
-31.8482  1.34145e+21
-31.7309  1.3627e+21
-31.6136  1.38616e+21
-31.4963  1.41169e+21
-31.379  1.43884e+21
-31.2617  1.46715e+21
-31.1444  1.49572e+21
-31.0271  1.52379e+21
-30.9098  1.55075e+21
-30.7925  1.57581e+21
-30.6752  1.59861e+21
-30.5579  1.61904e+21
-30.4406  1.63712e+21
-30.3232  1.65329e+21
-30.2059  1.66755e+21
-30.0886  1.68039e+21
-29.9713  1.69225e+21
-29.854  1.70335e+21
-29.7367  1.71404e+21
-29.6194  1.72486e+21
-29.5021  1.73627e+21
-29.3848  1.74894e+21
-29.2675  1.76365e+21
-29.1502  1.78109e+21
-29.0329  1.80191e+21
-28.9156  1.82665e+21
-28.7983  1.85547e+21
-28.681  1.88846e+21
-28.5637  1.92573e+21
-28.4464  1.96717e+21
-28.3291  2.01274e+21
-28.2118  2.06227e+21
-28.0944  2.11597e+21
-27.9771  2.17361e+21
-27.8598  2.23507e+21
-27.7425  2.29956e+21
-27.6252  2.3664e+21
-27.5079  2.43431e+21
-27.3906  2.50194e+21
-27.2733  2.56791e+21
-27.156  2.63108e+21
-27.0387  2.69054e+21
-26.9214  2.74597e+21
-26.8041  2.79742e+21
-26.6868  2.84584e+21
-26.5695  2.89226e+21
-26.4522  2.93821e+21
-26.3349  2.98522e+21
-26.2176  3.03502e+21
-26.1003  3.08842e+21
-25.983  3.14615e+21
-25.8657  3.20815e+21
-25.7483  3.27343e+21
-25.631  3.3406e+21
-25.5137  3.40677e+21
-25.3964  3.4692e+21
-25.2791  3.52458e+21
-25.1618  3.56983e+21
-25.0445  3.60209e+21
-24.9272  3.61981e+21
-24.8099  3.62225e+21
-24.6926  3.61019e+21
-24.5753  3.58611e+21
-24.458  3.55324e+21
-24.3407  3.51602e+21
-24.2234  3.47962e+21
-24.1061  3.44894e+21
-23.9888  3.429e+21
-23.8715  3.42387e+21
-23.7542  3.4368e+21
-23.6369  3.4693e+21
-23.5196  3.52184e+21
-23.4023  3.59351e+21
-23.2849  3.68156e+21
-23.1676  3.78244e+21
-23.0503  3.8914e+21
-22.933  4.00329e+21
-22.8157  4.11296e+21
-22.6984  4.21563e+21
-22.5811  4.30763e+21
-22.4638  4.38637e+21
-22.3465  4.45074e+21
-22.2292  4.5014e+21
-22.1119  4.54015e+21
-21.9946  4.57047e+21
-21.8773  4.59612e+21
-21.76  4.62151e+21
-21.6427  4.651e+21
-21.5254  4.68861e+21
-21.4081  4.73678e+21
-21.2908  4.79731e+21
-21.1735  4.87055e+21
-21.0561  4.95524e+21
-20.9388  5.04934e+21
-20.8215  5.1492e+21
-20.7042  5.25071e+21
-20.5869  5.34931e+21
-20.4696  5.44087e+21
-20.3523  5.52133e+21
-20.235  5.58853e+21
-20.1177  5.64073e+21
-20.0004  5.67847e+21
-19.8831  5.70379e+21
-19.7658  5.7196e+21
-19.6485  5.72993e+21
-19.5312  5.73928e+21
-19.4139  5.75177e+21
-19.2966  5.7711e+21
-19.1793  5.7996e+21
-19.062  5.83873e+21
-18.9447  5.88798e+21
-18.8274  5.94549e+21
-18.71  6.0094e+21
-18.5927  6.07596e+21
-18.4754  6.14175e+21
-18.3581  6.20381e+21
-18.2408  6.25901e+21
-18.1235  6.30596e+21
-18.0062  6.3441e+21
-17.8889  6.37402e+21
-17.7716  6.39775e+21
-17.6543  6.41756e+21
-17.537  6.43734e+21
-17.4197  6.46048e+21
-17.3024  6.4908e+21
-17.1851  6.53124e+21
-17.0678  6.58378e+21
-16.9505  6.64998e+21
-16.8332  6.73002e+21
-16.7159  6.82261e+21
-16.5986  6.92554e+21
-16.4813  7.03602e+21
-16.364  7.15053e+21
-16.2466  7.26604e+21
-16.1293  7.37947e+21
-16.012  7.48791e+21
-15.8947  7.58966e+21
-15.7774  7.68405e+21
-15.6601  7.771e+21
-15.5428  7.8519e+21
-15.4255  7.9282e+21
-15.3082  8.00263e+21
-15.1909  8.07876e+21
-15.0736  8.15883e+21
-14.9563  8.24578e+21
-14.839  8.34128e+21
-14.7217  8.44598e+21
-14.6044  8.55906e+21
-14.4871  8.67831e+21
-14.3698  8.80048e+21
-14.2525  8.92075e+21
-14.1352  9.03365e+21
-14.0178  9.13514e+21
-13.9005  9.22026e+21
-13.7832  9.28612e+21
-13.6659  9.33192e+21
-13.5486  9.35731e+21
-13.4313  9.36519e+21
-13.314  9.3592e+21
-13.1967  9.34423e+21
-13.0794  9.32654e+21
-12.9621  9.31082e+21
-12.8448  9.30309e+21
-12.7275  9.30714e+21
-12.6102  9.32597e+21
-12.4929  9.36075e+21
-12.3756  9.41061e+21
-12.2583  9.47405e+21
-12.141  9.54754e+21
-12.0237  9.62661e+21
-11.9064  9.70574e+21
-11.7891  9.77995e+21
-11.6718  9.84423e+21
-11.5544  9.89512e+21
-11.4371  9.931e+21
-11.3198  9.9506e+21
-11.2025  9.95579e+21
-11.0852  9.94997e+21
-10.9679  9.93796e+21
-10.8506  9.92556e+21
-10.7333  9.91897e+21
-10.616  9.92436e+21
-10.4987  9.94862e+21
-10.3814  9.99513e+21
-10.2641  1.00679e+22
-10.1468  1.01681e+22
-10.0295  1.02953e+22
-9.91217  1.04468e+22
-9.79487  1.06182e+22
-9.67756  1.08034e+22
-9.56026  1.09949e+22
-9.44295  1.11843e+22
-9.32565  1.1364e+22
-9.20834  1.1526e+22
-9.09104  1.16641e+22
-8.97373  1.17744e+22
-8.85643  1.18537e+22
-8.73913  1.19026e+22
-8.62182  1.19229e+22
-8.50452  1.19185e+22
-8.38721  1.18956e+22
-8.26991  1.18595e+22
-8.1526  1.18175e+22
-8.03529  1.17755e+22
-7.91799  1.17389e+22
-7.80069  1.17117e+22
-7.68338  1.16961e+22
-7.56608  1.16941e+22
-7.44877  1.17047e+22
-7.33146  1.17269e+22
-7.21416  1.17579e+22
-7.09685  1.17949e+22
-6.97955  1.18348e+22
-6.86224  1.18747e+22
-6.74494  1.19133e+22
-6.62763  1.19477e+22
-6.51033  1.1978e+22
-6.39302  1.20039e+22
-6.27572  1.20265e+22
-6.15842  1.20466e+22
-6.04111  1.20664e+22
-5.92381  1.20873e+22
-5.8065  1.21125e+22
-5.68919  1.21426e+22
-5.57189  1.21804e+22
-5.45458  1.22265e+22
-5.33728  1.22822e+22
-5.21997  1.23473e+22
-5.10267  1.24209e+22
-4.98536  1.25015e+22
-4.86806  1.25868e+22
-4.75075  1.26735e+22
-4.63345  1.27588e+22
-4.51614  1.28391e+22
-4.39884  1.29118e+22
-4.28154  1.2975e+22
-4.16423  1.30271e+22
-4.04692  1.30678e+22
-3.92962  1.30975e+22
-3.81231  1.31178e+22
-3.69501  1.31309e+22
-3.5777  1.31381e+22
-3.4604  1.31428e+22
-3.34309  1.31465e+22
-3.22579  1.3151e+22
-3.10849  1.31571e+22
-2.99118  1.31653e+22
-2.87387  1.31763e+22
-2.75657  1.31891e+22
-2.63926  1.32032e+22
-2.52196  1.32178e+22
-2.40465  1.32317e+22
-2.28735  1.32439e+22
-2.17005  1.32535e+22
-2.05274  1.32609e+22
-1.93544  1.32643e+22
-1.81813  1.32645e+22
-1.70083  1.32612e+22
-1.58352  1.32543e+22
-1.46622  1.32442e+22
-1.34891  1.32318e+22
-1.2316  1.32171e+22
-1.1143  1.32015e+22
-0.996995  1.31847e+22
-0.87969  1.31685e+22
-0.762385  1.31529e+22
-0.64508  1.31391e+22
-0.527775  1.31272e+22
-0.41047  1.31175e+22
-0.293165  1.311e+22
-0.17586  1.3105e+22
-0.058555  1.31023e+22
0.05875  1.31019e+22
0.176055  1.31036e+22
0.29336  1.31076e+22
0.410665  1.31141e+22
0.52797  1.3123e+22
0.645275  1.31341e+22
0.76258  1.3147e+22
0.879885  1.31617e+22
0.99719  1.31772e+22
1.1145  1.31927e+22
1.2318  1.32081e+22
1.3491  1.32222e+22
1.46641  1.32342e+22
1.58371  1.32436e+22
1.70102  1.325e+22
1.81832  1.32532e+22
1.93563  1.32525e+22
2.05294  1.32487e+22
2.17024  1.32415e+22
2.28754  1.32314e+22
2.40485  1.3219e+22
2.52216  1.32048e+22
2.63946  1.31903e+22
2.75677  1.31758e+22
2.87407  1.31627e+22
2.99137  1.31514e+22
3.10868  1.31424e+22
3.22599  1.31356e+22
3.34329  1.31307e+22
3.4606  1.31263e+22
3.5779  1.31208e+22
3.69521  1.3112e+22
3.81251  1.3098e+22
3.92982  1.30762e+22
4.04712  1.30451e+22
4.16443  1.30032e+22
4.28173  1.29499e+22
4.39903  1.28856e+22
4.51634  1.28115e+22
4.63364  1.27305e+22
4.75095  1.26445e+22
4.86825  1.25571e+22
4.98556  1.24715e+22
5.10286  1.23905e+22
5.22017  1.23167e+22
5.33748  1.22515e+22
5.45478  1.21957e+22
5.57209  1.21494e+22
5.68939  1.21113e+22
5.8067  1.20808e+22
5.924  1.20556e+22
6.0413  1.2034e+22
6.15861  1.20137e+22
6.27591  1.19928e+22
6.39322  1.19699e+22
6.51052  1.19435e+22
6.62783  1.19124e+22
6.74514  1.18772e+22
6.86244  1.18385e+22
6.97975  1.17979e+22
7.09705  1.17578e+22
7.21436  1.17205e+22
7.33166  1.16895e+22
7.44897  1.16674e+22
7.56627  1.16568e+22
7.68358  1.16589e+22
7.80088  1.16742e+22
7.91819  1.17013e+22
8.03549  1.17379e+22
8.1528  1.17797e+22
8.2701  1.1821e+22
8.38741  1.18562e+22
8.50471  1.18784e+22
8.62202  1.18813e+22
8.73932  1.18597e+22
8.85662  1.18096e+22
8.97393  1.1729e+22
9.09123  1.16176e+22
9.20854  1.14782e+22
9.32584  1.13158e+22
9.44315  1.11355e+22
9.56045  1.09457e+22
9.67776  1.07543e+22
9.79506  1.05694e+22
9.91237  1.03986e+22
10.0297  1.02476e+22
10.147  1.01211e+22
10.2643  1.00218e+22
10.3816  9.94934e+21
10.4989  9.90334e+21
10.6162  9.87954e+21
10.7335  9.87385e+21
10.8508  9.88001e+21
10.9681  9.89197e+21
11.0854  9.90346e+21
11.2027  9.90844e+21
11.32  9.90181e+21
11.4373  9.88102e+21
11.5546  9.84431e+21
11.6719  9.79204e+21
11.7893  9.727e+21
11.9066  9.65208e+21
12.0239  9.57235e+21
12.1412  9.49333e+21
12.2585  9.41984e+21
12.3758  9.35639e+21
12.4931  9.3066e+21
12.6104  9.27232e+21
12.7277  9.25408e+21
12.845  9.25068e+21
12.9623  9.25853e+21
13.0796  9.27438e+21
13.1969  9.29242e+21
13.3142  9.30697e+21
13.4315  9.3126e+21
13.5488  9.30425e+21
13.6661  9.27809e+21
13.7834  9.23155e+21
13.9007  9.1647e+21
14.018  9.07903e+21
14.1354  8.97671e+21
14.2527  8.86294e+21
14.37  8.74224e+21
14.4873  8.6197e+21
14.6046  8.50016e+21
14.7219  8.38674e+21
14.8392  8.28214e+21
14.9565  8.18679e+21
15.0738  8.09978e+21
15.1911  8.02001e+21
15.3084  7.94416e+21
15.4257  7.86973e+21
15.543  7.79348e+21
15.6603  7.7131e+21
15.7776  7.62663e+21
15.8949  7.53285e+21
16.0122  7.43127e+21
16.1295  7.32331e+21
16.2468  7.21057e+21
16.3641  7.09559e+21
16.4815  6.98177e+21
16.5988  6.872e+21
16.7161  6.7697e+21
16.8334  6.67812e+21
16.9507  6.59887e+21
17.068  6.53314e+21
17.1853  6.48107e+21
17.3026  6.44125e+21
17.4199  6.41149e+21
17.5372  6.38888e+21
17.6545  6.36916e+21
17.7718  6.34956e+21
17.8891  6.32606e+21
18.0064  6.29615e+21
18.1237  6.25792e+21
18.241  6.21089e+21
18.3583  6.15564e+21
18.4756  6.09356e+21
18.5929  6.02766e+21
18.7102  5.96128e+21
18.8275  5.89733e+21
18.9449  5.83953e+21
19.0622  5.79038e+21
19.1795  5.75108e+21
19.2968  5.72227e+21
19.4141  5.70265e+21
19.5314  5.68994e+21
19.6487  5.68015e+21
19.766  5.66925e+21
19.8833  5.6531e+21
20.0006  5.62725e+21
20.1179  5.58896e+21
20.2352  5.53621e+21
20.3525  5.4689e+21
20.4698  5.38847e+21
20.5871  5.29729e+21
20.7044  5.19893e+21
20.8217  5.09787e+21
20.939  4.99856e+21
21.0563  4.90525e+21
21.1736  4.82123e+21
21.291  4.74886e+21
21.4083  4.68883e+21
21.5256  4.64137e+21
21.6429  4.60439e+21
21.7602  4.57513e+21
21.8775  4.54996e+21
21.9948  4.52436e+21
22.1121  4.49419e+21
22.2294  4.45554e+21
22.3467  4.4048e+21
22.464  4.3406e+21
22.5813  4.26208e+21
22.6986  4.17045e+21
22.8159  4.06813e+21
22.9332  3.95914e+21
23.0505  3.84808e+21
23.1678  3.73998e+21
23.2851  3.6401e+21
23.4024  3.5531e+21
23.5198  3.48244e+21
23.6371  3.43071e+21
23.7544  3.39907e+21
23.8717  3.38676e+21
23.989  3.39233e+21
24.1063  3.41259e+21
24.2236  3.44334e+21
24.3409  3.47969e+21
24.4582  3.51652e+21
24.5755  3.54909e+21
24.6928  3.57275e+21
24.8101  3.58417e+21
24.9274  3.58116e+21
25.0447  3.56302e+21
25.162  3.53054e+21
25.2793  3.48525e+21
25.3966  3.42995e+21
25.5139  3.36755e+21
25.6312  3.30154e+21
25.7485  3.23496e+21
25.8658  3.17011e+21
25.9832  3.10875e+21
26.1005  3.05141e+21
26.2178  2.9986e+21
26.3351  2.94943e+21
26.4524  2.90285e+21
26.5697  2.8573e+21
26.687  2.81122e+21
26.8043  2.76317e+21
26.9216  2.71205e+21
27.0389  2.65692e+21
27.1562  2.59786e+21
27.2735  2.53506e+21
27.3908  2.46955e+21
27.5081  2.4024e+21
27.6254  2.33509e+21
27.7427  2.26893e+21
27.86  2.20504e+21
27.9773  2.14435e+21
28.0946  2.0874e+21
28.212  2.03442e+21
28.3293  1.98553e+21
28.4466  1.94077e+21
28.5639  1.90005e+21
28.6812  1.86349e+21
28.7985  1.83112e+21
28.9158  1.80291e+21
29.0331  1.77887e+21
29.1504  1.75853e+21
29.2677  1.7416e+21
29.385  1.72731e+21
29.5023  1.71491e+21
29.6196  1.70372e+21
29.7369  1.69309e+21
29.8542  1.68257e+21
29.9715  1.67155e+21
30.0888  1.65985e+21
30.2061  1.64693e+21
30.3234  1.63266e+21
30.4407  1.61658e+21
30.558  1.59853e+21
30.6754  1.57818e+21
30.7927  1.55538e+21
30.91  1.53051e+21
31.0273  1.50383e+21
31.1446  1.47597e+21
31.2619  1.44766e+21
31.3792  1.41975e+21
31.4965  1.39288e+21
31.6138  1.36777e+21
31.7311  1.34463e+21
31.8484  1.32375e+21
31.9657  1.30494e+21
32.083  1.28793e+21
32.2003  1.27214e+21
32.3176  1.25684e+21
32.4349  1.24124e+21
32.5522  1.22436e+21
32.6695  1.20547e+21
32.7868  1.1839e+21
32.9042  1.1594e+21
33.0215  1.13215e+21
33.1388  1.10282e+21
33.2561  1.07246e+21
33.3734  1.04229e+21
33.4907  1.01371e+21
33.608  9.87956e+20
33.7253  9.65711e+20
33.8426  9.47208e+20
33.9599  9.32322e+20
34.0772  9.20243e+20
34.1945  9.10171e+20
34.3118  9.01147e+20
34.4291  8.924e+20
34.5464  8.8345e+20
34.6637  8.74039e+20
34.781  8.64357e+20
34.8983  8.54575e+20
35.0156  8.45149e+20
35.1329  8.36432e+20
35.2503  8.28847e+20
35.3676  8.22755e+20
35.4849  8.18469e+20
35.6022  8.16436e+20
35.7195  8.16717e+20
35.8368  8.19286e+20
35.9541  8.23892e+20
36.0714  8.29637e+20
36.1887  8.35511e+20
36.306  8.4002e+20
36.4233  8.41475e+20
36.5406  8.38536e+20
36.6579  8.30001e+20
36.7752  8.15465e+20
36.8925  7.95045e+20
37.0098  7.69651e+20
37.1271  7.40877e+20
37.2444  7.10316e+20
37.3617  6.79959e+20
37.479  6.51468e+20
37.5964  6.2617e+20
37.7137  6.05193e+20
37.831  5.89136e+20
37.9483  5.78432e+20
38.0656  5.73263e+20
38.1829  5.73693e+20
38.3002  5.79727e+20
38.4175  5.9077e+20
38.5348  6.06249e+20
38.6521  6.25178e+20
38.7694  6.4611e+20
38.8867  6.67664e+20
39.004  6.88144e+20
39.1213  7.06326e+20
39.2386  7.21068e+20
39.3559  7.3202e+20
39.4732  7.39282e+20
39.5905  7.43334e+20
39.7078  7.45158e+20
39.8251  7.45731e+20
39.9425  7.45715e+20
40.0598  7.45667e+20
40.1771  7.4559e+20
40.2944  7.45171e+20
40.4117  7.43418e+20
40.529  7.39516e+20
40.6463  7.32204e+20
40.7636  7.20407e+20
40.8809  7.03624e+20
40.9982  6.81577e+20
41.1155  6.54248e+20
41.2328  6.22531e+20
41.3501  5.87617e+20
41.4674  5.51064e+20
41.5847  5.14503e+20
41.702  4.79809e+20
41.8193  4.48535e+20
41.9366  4.2194e+20
42.0539  4.00693e+20
42.1712  3.85035e+20
42.2885  3.74598e+20
42.4059  3.68472e+20
42.5232  3.65748e+20
42.6405  3.65246e+20
42.7578  3.6625e+20
42.8751  3.68102e+20
42.9924  3.70685e+20
43.1097  3.74109e+20
43.227  3.78888e+20
43.3443  3.8559e+20
43.4616  3.94685e+20
43.5789  4.06539e+20
43.6962  4.21308e+20
43.8135  4.38821e+20
43.9308  4.58647e+20
44.0481  4.80046e+20
44.1654  5.02186e+20
44.2827  5.23953e+20
44.4  5.44293e+20
44.5173  5.62126e+20
44.6347  5.76117e+20
44.752  5.85338e+20
44.8693  5.88788e+20
44.9866  5.86272e+20
45.1039  5.77667e+20
45.2212  5.63812e+20
45.3385  5.4569e+20
45.4558  5.24879e+20
45.5731  5.03269e+20
45.6904  4.82622e+20
45.8077  4.64437e+20
45.925  4.49858e+20
46.0423  4.39407e+20
46.1596  4.32972e+20
46.2769  4.29885e+20
46.3942  4.2923e+20
46.5115  4.29637e+20
46.6288  4.30079e+20
46.7461  4.29413e+20
46.8634  4.27017e+20
46.9808  4.22695e+20
47.0981  4.16209e+20
47.2154  4.08266e+20
47.3327  3.9932e+20
47.45  3.90642e+20
47.5673  3.83101e+20
47.6846  3.77813e+20
47.8019  3.75957e+20
47.9192  3.78225e+20
48.0365  3.85124e+20
48.1538  3.96564e+20
48.2711  4.11979e+20
48.3884  4.30488e+20
48.5057  4.50578e+20
48.623  4.70828e+20
48.7403  4.89353e+20
48.8576  5.04772e+20
48.9749  5.1595e+20
49.0922  5.22308e+20
49.2095  5.23723e+20
49.3269  5.20694e+20
49.4442  5.14233e+20
49.5615  5.05184e+20
49.6788  4.95174e+20
49.7961  4.85551e+20
49.9134  4.77344e+20
50.0307  4.71402e+20
50.148  4.68189e+20
50.2653  4.6752e+20
50.3826  4.68666e+20
50.4999  4.70655e+20
50.6172  4.72152e+20
50.7345  4.7178e+20
50.8518  4.68157e+20
