#S 1 spectral density
#N 2
#UFWHM 29.5609
#L  abscissas [um]  spectral density
-58.5938  2.87523e+20
-58.4764  2.67958e+20
-58.3591  2.46951e+20
-58.2418  2.28392e+20
-58.1245  2.15836e+20
-58.0072  2.11648e+20
-57.8899  2.16214e+20
-57.7726  2.28062e+20
-57.6553  2.43953e+20
-57.538  2.59731e+20
-57.4207  2.71275e+20
-57.3034  2.75482e+20
-57.1861  2.7102e+20
-57.0688  2.58732e+20
-56.9515  2.41273e+20
-56.8342  2.2259e+20
-56.7169  2.06943e+20
-56.5996  1.97715e+20
-56.4823  1.96828e+20
-56.365  2.03955e+20
-56.2477  2.16908e+20
-56.1303  2.32162e+20
-56.013  2.45644e+20
-55.8957  2.53836e+20
-55.7784  2.54856e+20
-55.6611  2.48589e+20
-55.5438  2.36954e+20
-55.4265  2.23164e+20
-55.3092  2.10826e+20
-55.1919  2.03005e+20
-55.0746  2.01219e+20
-54.9573  2.05119e+20
-54.84  2.12621e+20
-54.7227  2.20299e+20
-54.6054  2.24682e+20
-54.4881  2.2305e+20
-54.3708  2.14283e+20
-54.2535  1.99458e+20
-54.1362  1.81332e+20
-54.0189  1.63737e+20
-53.9016  1.50583e+20
-53.7842  1.44658e+20
-53.6669  1.46955e+20
-53.5496  1.56286e+20
-53.4323  1.6971e+20
-53.315  1.83409e+20
-53.1977  1.93757e+20
-53.0804  1.98484e+20
-52.9631  1.97263e+20
-52.8458  1.91784e+20
-52.7285  1.85541e+20
-52.6112  1.82342e+20
-52.4939  1.85431e+20
-52.3766  1.96271e+20
-52.2593  2.13988e+20
-52.142  2.35325e+20
-52.0247  2.55695e+20
-51.9074  2.70081e+20
-51.7901  2.74655e+20
-51.6728  2.67987e+20
-51.5555  2.51323e+20
-51.4381  2.28669e+20
-51.3208  2.05717e+20
-51.2035  1.88372e+20
-51.0862  1.8148e+20
-50.9689  1.87374e+20
-50.8516  2.05372e+20
-50.7343  2.31892e+20
-50.617  2.61748e+20
-50.4997  2.89011e+20
-50.3824  3.08932e+20
-50.2651  3.18868e+20
-50.1478  3.18959e+20
-50.0305  3.11757e+20
-49.9132  3.0144e+20
-49.7959  2.92472e+20
-49.6786  2.88375e+20
-49.5613  2.90731e+20
-49.444  2.9906e+20
-49.3267  3.10887e+20
-49.2094  3.22879e+20
-49.092  3.31866e+20
-48.9747  3.3597e+20
-48.8574  3.35165e+20
-48.7401  3.31053e+20
-48.6228  3.267e+20
-48.5055  3.25164e+20
-48.3882  3.28577e+20
-48.2709  3.37344e+20
-48.1536  3.49522e+20
-48.0363  3.61607e+20
-47.919  3.69041e+20
-47.8017  3.67632e+20
-47.6844  3.54901e+20
-47.5671  3.30764e+20
-47.4498  2.97698e+20
-47.3325  2.60652e+20
-47.2152  2.25375e+20
-47.0979  1.97543e+20
-46.9806  1.80994e+20
-46.8633  1.77166e+20
-46.7459  1.84632e+20
-46.6286  1.99512e+20
-46.5113  2.16607e+20
-46.394  2.30639e+20
-46.2767  2.37626e+20
-46.1594  2.35742e+20
-46.0421  2.25624e+20
-45.9248  2.09986e+20
-45.8075  1.9276e+20
-45.6902  1.77854e+20
-45.5729  1.68221e+20
-45.4556  1.65009e+20
-45.3383  1.67238e+20
-45.221  1.72494e+20
-45.1037  1.77573e+20
-44.9864  1.79443e+20
-44.8691  1.76519e+20
-44.7518  1.68905e+20
-44.6345  1.58596e+20
-44.5172  1.49006e+20
-44.3998  1.44049e+20
-44.2825  1.47155e+20
-44.1652  1.60134e+20
-44.0479  1.82814e+20
-43.9306  2.12936e+20
-43.8133  2.46549e+20
-43.696  2.78957e+20
-43.5787  3.05933e+20
-43.4614  3.24389e+20
-43.3441  3.33378e+20
-43.2268  3.33929e+20
-43.1095  3.28932e+20
-42.9922  3.22358e+20
-42.8749  3.17918e+20
-42.7576  3.18683e+20
-42.6403  3.2607e+20
-42.523  3.39636e+20
-42.4057  3.57556e+20
-42.2884  3.77194e+20
-42.171  3.95694e+20
-42.0537  4.11191e+20
-41.9364  4.22858e+20
-41.8191  4.31383e+20
-41.7018  4.38399e+20
-41.5845  4.4592e+20
-41.4672  4.55681e+20
-41.3499  4.68258e+20
-41.2326  4.83096e+20
-41.1153  4.97949e+20
-40.998  5.10263e+20
-40.8807  5.17313e+20
-40.7634  5.17378e+20
-40.6461  5.10549e+20
-40.5288  4.98862e+20
-40.4115  4.86023e+20
-40.2942  4.76814e+20
-40.1769  4.76072e+20
-40.0596  4.87188e+20
-39.9423  5.11288e+20
-39.825  5.47081e+20
-39.7076  5.90758e+20
-39.5903  6.36672e+20
-39.473  6.78629e+20
-39.3557  7.11195e+20
-39.2384  7.30947e+20
-39.1211  7.36796e+20
-39.0038  7.30223e+20
-38.8865  7.14904e+20
-38.7692  6.95029e+20
-38.6519  6.74946e+20
-38.5346  6.57543e+20
-38.4173  6.43993e+20
-38.3  6.33575e+20
-38.1827  6.24547e+20
-38.0654  6.1459e+20
-37.9481  6.0232e+20
-37.8308  5.87244e+20
-37.7135  5.71002e+20
-37.5962  5.55912e+20
-37.4789  5.4525e+20
-37.3615  5.41588e+20
-37.2442  5.45959e+20
-37.1269  5.57254e+20
-37.0096  5.72292e+20
-36.8923  5.8653e+20
-36.775  5.94815e+20
-36.6577  5.93034e+20
-36.5404  5.79281e+20
-36.4231  5.54061e+20
-36.3058  5.20861e+20
-36.1885  4.84984e+20
-36.0712  4.52608e+20
-35.9539  4.29073e+20
-35.8366  4.17754e+20
-35.7193  4.19294e+20
-35.602  4.31477e+20
-35.4847  4.49907e+20
-35.3674  4.69257e+20
-35.2501  4.84431e+20
-35.1328  4.92152e+20
-35.0154  4.91263e+20
-34.8981  4.83128e+20
-34.7808  4.70794e+20
-34.6635  4.5776e+20
-34.5462  4.47362e+20
-34.4289  4.41146e+20
-34.3116  4.3891e+20
-34.1943  4.38871e+20
-34.077  4.38362e+20
-33.9597  4.35062e+20
-33.8424  4.28131e+20
-33.7251  4.18935e+20
-33.6078  4.11175e+20
-33.4905  4.10035e+20
-33.3732  4.21528e+20
-33.2559  4.50522e+20
-33.1386  4.99318e+20
-33.0213  5.67221e+20
-32.904  6.50055e+20
-32.7867  7.40531e+20
-32.6693  8.30428e+20
-32.552  9.11063e+20
-32.4347  9.76185e+20
-32.3174  1.02208e+21
-32.2001  1.04853e+21
-32.0828  1.05859e+21
-31.9655  1.05758e+21
-31.8482  1.05135e+21
-31.7309  1.04517e+21
-31.6136  1.04287e+21
-31.4963  1.04604e+21
-31.379  1.05444e+21
-31.2617  1.0662e+21
-31.1444  1.07955e+21
-31.0271  1.09277e+21
-30.9098  1.1051e+21
-30.7925  1.11726e+21
-30.6752  1.13031e+21
-30.5579  1.14533e+21
-30.4406  1.16288e+21
-30.3232  1.18213e+21
-30.2059  1.20127e+21
-30.0886  1.21687e+21
-29.9713  1.22612e+21
-29.854  1.22695e+21
-29.7367  1.21918e+21
-29.6194  1.20504e+21
-29.5021  1.18953e+21
-29.3848  1.17894e+21
-29.2675  1.18034e+21
-29.1502  1.19955e+21
-29.0329  1.24037e+21
-28.9156  1.30247e+21
-28.7983  1.38273e+21
-28.681  1.47436e+21
-28.5637  1.56885e+21
-28.4464  1.65677e+21
-28.3291  1.73074e+21
-28.2118  1.78489e+21
-28.0944  1.81702e+21
-27.9771  1.82815e+21
-27.8598  1.82164e+21
-27.7425  1.80242e+21
-27.6252  1.77549e+21
-27.5079  1.74582e+21
-27.3906  1.71685e+21
-27.2733  1.69073e+21
-27.156  1.66929e+21
-27.0387  1.65371e+21
-26.9214  1.64615e+21
-26.8041  1.64939e+21
-26.6868  1.66695e+21
-26.5695  1.70289e+21
-26.4522  1.76012e+21
-26.3349  1.84024e+21
-26.2176  1.94225e+21
-26.1003  2.06215e+21
-25.983  2.19342e+21
-25.8657  2.32734e+21
-25.7483  2.45482e+21
-25.631  2.56784e+21
-25.5137  2.66018e+21
-25.3964  2.72943e+21
-25.2791  2.77595e+21
-25.1618  2.80389e+21
-25.0445  2.819e+21
-24.9272  2.82844e+21
-24.8099  2.83887e+21
-24.6926  2.85593e+21
-24.5753  2.88324e+21
-24.458  2.92322e+21
-24.3407  2.97711e+21
-24.2234  3.04592e+21
-24.1061  3.13057e+21
-23.9888  3.23313e+21
-23.8715  3.35597e+21
-23.7542  3.50176e+21
-23.6369  3.67275e+21
-23.5196  3.86961e+21
-23.4023  4.09137e+21
-23.2849  4.33559e+21
-23.1676  4.59746e+21
-23.0503  4.8729e+21
-22.933  5.15791e+21
-22.8157  5.451e+21
-22.6984  5.75266e+21
-22.5811  6.06731e+21
-22.4638  6.40106e+21
-22.3465  6.76165e+21
-22.2292  7.15621e+21
-22.1119  7.59038e+21
-21.9946  8.06578e+21
-21.8773  8.58102e+21
-21.76  9.13046e+21
-21.6427  9.70543e+21
-21.5254  1.02965e+22
-21.4081  1.0894e+22
-21.2908  1.1491e+22
-21.1735  1.20823e+22
-21.0561  1.26672e+22
-20.9388  1.32472e+22
-20.8215  1.38267e+22
-20.7042  1.44102e+22
-20.5869  1.50024e+22
-20.4696  1.56079e+22
-20.3523  1.62293e+22
-20.235  1.68682e+22
-20.1177  1.7526e+22
-20.0004  1.82043e+22
-19.8831  1.89042e+22
-19.7658  1.9627e+22
-19.6485  2.03749e+22
-19.5312  2.11468e+22
-19.4139  2.19417e+22
-19.2966  2.27551e+22
-19.1793  2.35799e+22
-19.062  2.44064e+22
-18.9447  2.52244e+22
-18.8274  2.60243e+22
-18.71  2.67971e+22
-18.5927  2.75383e+22
-18.4754  2.82461e+22
-18.3581  2.89231e+22
-18.2408  2.95738e+22
-18.1235  3.02046e+22
-18.0062  3.08212e+22
-17.8889  3.14275e+22
-17.7716  3.20249e+22
-17.6543  3.26122e+22
-17.537  3.31862e+22
-17.4197  3.37432e+22
-17.3024  3.42801e+22
-17.1851  3.47956e+22
-17.0678  3.52908e+22
-16.9505  3.57695e+22
-16.8332  3.62378e+22
-16.7159  3.67011e+22
-16.5986  3.71649e+22
-16.4813  3.76326e+22
-16.364  3.81054e+22
-16.2466  3.85825e+22
-16.1293  3.90613e+22
-16.012  3.95395e+22
-15.8947  4.00153e+22
-15.7774  4.04895e+22
-15.6601  4.09644e+22
-15.5428  4.14441e+22
-15.4255  4.19333e+22
-15.3082  4.24363e+22
-15.1909  4.29549e+22
-15.0736  4.34884e+22
-14.9563  4.4033e+22
-14.839  4.45822e+22
-14.7217  4.51286e+22
-14.6044  4.56647e+22
-14.4871  4.61846e+22
-14.3698  4.66843e+22
-14.2525  4.71647e+22
-14.1352  4.76272e+22
-14.0178  4.80767e+22
-13.9005  4.85182e+22
-13.7832  4.89569e+22
-13.6659  4.93963e+22
-13.5486  4.98395e+22
-13.4313  5.02888e+22
-13.314  5.07459e+22
-13.1967  5.12133e+22
-13.0794  5.16945e+22
-12.9621  5.21946e+22
-12.8448  5.27185e+22
-12.7275  5.32713e+22
-12.6102  5.38558e+22
-12.4929  5.44727e+22
-12.3756  5.51178e+22
-12.2583  5.5784e+22
-12.141  5.64612e+22
-12.0237  5.7137e+22
-11.9064  5.77996e+22
-11.7891  5.8439e+22
-11.6718  5.90486e+22
-11.5544  5.96256e+22
-11.4371  6.0171e+22
-11.3198  6.06896e+22
-11.2025  6.11873e+22
-11.0852  6.16708e+22
-10.9679  6.21452e+22
-10.8506  6.2614e+22
-10.7333  6.30784e+22
-10.616  6.35389e+22
-10.4987  6.39937e+22
-10.3814  6.44419e+22
-10.2641  6.48838e+22
-10.1468  6.53197e+22
-10.0295  6.5752e+22
-9.91217  6.61834e+22
-9.79487  6.66159e+22
-9.67756  6.7051e+22
-9.56026  6.74887e+22
-9.44295  6.79274e+22
-9.32565  6.83644e+22
-9.20834  6.87969e+22
-9.09104  6.92225e+22
-8.97373  6.96404e+22
-8.85643  7.00519e+22
-8.73913  7.04592e+22
-8.62182  7.08666e+22
-8.50452  7.12778e+22
-8.38721  7.16955e+22
-8.26991  7.21204e+22
-8.1526  7.25507e+22
-8.03529  7.29822e+22
-7.91799  7.34087e+22
-7.80069  7.38235e+22
-7.68338  7.42208e+22
-7.56608  7.45961e+22
-7.44877  7.49483e+22
-7.33146  7.52782e+22
-7.21416  7.55894e+22
-7.09685  7.58863e+22
-6.97955  7.6174e+22
-6.86224  7.64566e+22
-6.74494  7.67361e+22
-6.62763  7.70132e+22
-6.51033  7.72872e+22
-6.39302  7.75568e+22
-6.27572  7.78218e+22
-6.15842  7.80827e+22
-6.04111  7.83421e+22
-5.92381  7.86043e+22
-5.8065  7.88744e+22
-5.68919  7.91575e+22
-5.57189  7.94571e+22
-5.45458  7.97744e+22
-5.33728  8.01083e+22
-5.21997  8.04541e+22
-5.10267  8.08059e+22
-4.98536  8.11564e+22
-4.86806  8.14998e+22
-4.75075  8.18312e+22
-4.63345  8.21489e+22
-4.51614  8.2453e+22
-4.39884  8.27462e+22
-4.28154  8.3031e+22
-4.16423  8.33104e+22
-4.04692  8.35854e+22
-3.92962  8.38556e+22
-3.81231  8.41181e+22
-3.69501  8.43693e+22
-3.5777  8.46059e+22
-3.4604  8.48249e+22
-3.34309  8.50259e+22
-3.22579  8.52107e+22
-3.10849  8.5383e+22
-2.99118  8.55473e+22
-2.87387  8.57092e+22
-2.75657  8.58724e+22
-2.63926  8.60386e+22
-2.52196  8.62075e+22
-2.40465  8.63766e+22
-2.28735  8.65425e+22
-2.17005  8.67019e+22
-2.05274  8.68522e+22
-1.93544  8.69937e+22
-1.81813  8.71282e+22
-1.70083  8.72595e+22
-1.58352  8.73917e+22
-1.46622  8.75284e+22
-1.34891  8.7671e+22
-1.2316  8.78188e+22
-1.1143  8.79676e+22
-0.996995  8.81121e+22
-0.87969  8.82457e+22
-0.762385  8.83626e+22
-0.64508  8.84584e+22
-0.527775  8.85319e+22
-0.41047  8.85839e+22
-0.293165  8.86174e+22
-0.17586  8.8636e+22
-0.058555  8.86431e+22
0.05875  8.86404e+22
0.176055  8.86273e+22
0.29336  8.86012e+22
0.410665  8.85585e+22
0.52797  8.84959e+22
0.645275  8.84106e+22
0.76258  8.83029e+22
0.879885  8.81755e+22
0.99719  8.80333e+22
1.1145  8.78825e+22
1.2318  8.773e+22
1.3491  8.75805e+22
1.46641  8.7437e+22
1.58371  8.72991e+22
1.70102  8.71646e+22
1.81832  8.70292e+22
1.93563  8.68888e+22
2.05294  8.674e+22
2.17024  8.65815e+22
2.28754  8.64143e+22
2.40485  8.62415e+22
2.52216  8.60666e+22
2.63946  8.58931e+22
2.75677  8.57229e+22
2.87407  8.55558e+22
2.99137  8.53894e+22
3.10868  8.5219e+22
3.22599  8.50396e+22
3.34329  8.48466e+22
3.4606  8.46365e+22
3.5779  8.44089e+22
3.69521  8.41649e+22
3.81251  8.39077e+22
3.92982  8.36406e+22
4.04712  8.33672e+22
4.16443  8.30887e+22
4.28173  8.28052e+22
4.39903  8.25146e+22
4.51634  8.22139e+22
4.63364  8.19003e+22
4.75095  8.15721e+22
4.86825  8.12299e+22
4.98556  8.08774e+22
5.10286  8.05199e+22
5.22017  8.01642e+22
5.33748  7.98174e+22
5.45478  7.94853e+22
5.57209  7.91705e+22
5.68939  7.8874e+22
5.8067  7.85932e+22
5.924  7.83231e+22
6.0413  7.80591e+22
6.15861  7.77961e+22
6.27591  7.75302e+22
6.39322  7.72597e+22
6.51052  7.69849e+22
6.62783  7.67065e+22
6.74514  7.6426e+22
6.86244  7.61435e+22
6.97975  7.58579e+22
7.09705  7.5566e+22
7.21436  7.52633e+22
7.33166  7.49449e+22
7.44897  7.46061e+22
7.56627  7.42446e+22
7.68358  7.38599e+22
7.80088  7.34548e+22
7.91819  7.30343e+22
8.03549  7.26048e+22
8.1528  7.21727e+22
8.2701  7.17433e+22
8.38741  7.13202e+22
8.50471  7.09036e+22
8.62202  7.04926e+22
8.73932  7.00833e+22
8.85662  6.96721e+22
8.97393  6.92558e+22
9.09123  6.88325e+22
9.20854  6.84018e+22
9.32584  6.79653e+22
9.44315  6.75256e+22
9.56045  6.70855e+22
9.67776  6.66471e+22
9.79506  6.62111e+22
9.91237  6.57774e+22
10.0297  6.53436e+22
10.147  6.49076e+22
10.2643  6.44672e+22
10.3816  6.40211e+22
10.4989  6.35685e+22
10.6162  6.31109e+22
10.7335  6.26488e+22
10.8508  6.21834e+22
10.9681  6.17138e+22
11.0854  6.12376e+22
11.2027  6.07507e+22
11.32  6.0246e+22
11.4373  5.97176e+22
11.5546  5.91594e+22
11.6719  5.85685e+22
11.7893  5.79451e+22
11.9066  5.72934e+22
12.0239  5.6622e+22
12.1412  5.59419e+22
12.2585  5.52653e+22
12.3758  5.46044e+22
12.4931  5.39681e+22
12.6104  5.33626e+22
12.7277  5.27902e+22
12.845  5.22491e+22
12.9623  5.17358e+22
13.0796  5.12449e+22
13.1969  5.07712e+22
13.3142  5.03099e+22
13.4315  4.98579e+22
13.5488  4.94125e+22
13.6661  4.8972e+22
13.7834  4.85338e+22
13.9007  4.80947e+22
14.018  4.76501e+22
14.1354  4.71955e+22
14.2527  4.6726e+22
14.37  4.6238e+22
14.4873  4.57306e+22
14.6046  4.52052e+22
14.7219  4.46662e+22
14.8392  4.41201e+22
14.9565  4.35747e+22
15.0738  4.30369e+22
15.1911  4.25117e+22
15.3084  4.20014e+22
15.4257  4.15055e+22
15.543  4.10206e+22
15.6603  4.05416e+22
15.7776  4.00643e+22
15.8949  3.95848e+22
16.0122  3.91016e+22
16.1295  3.86153e+22
16.2468  3.81283e+22
16.3641  3.76438e+22
16.4815  3.71638e+22
16.5988  3.6689e+22
16.7161  3.6218e+22
16.8334  3.57467e+22
16.9507  3.52695e+22
17.068  3.47802e+22
17.1853  3.42737e+22
17.3026  3.37474e+22
17.4199  3.32004e+22
17.5372  3.26343e+22
17.6545  3.20527e+22
17.7718  3.14591e+22
17.8891  3.08554e+22
18.0064  3.02421e+22
18.1237  2.96163e+22
18.241  2.89738e+22
18.3583  2.83083e+22
18.4756  2.76147e+22
18.5929  2.68886e+22
18.7102  2.61301e+22
18.8275  2.53419e+22
18.9449  2.45309e+22
19.0622  2.37063e+22
19.1795  2.28788e+22
19.2968  2.20584e+22
19.4141  2.12532e+22
19.5314  2.04696e+22
19.6487  1.971e+22
19.766  1.8976e+22
19.8833  1.82658e+22
20.0006  1.75786e+22
20.1179  1.69125e+22
20.2352  1.62662e+22
20.3525  1.56386e+22
20.4698  1.50288e+22
20.5871  1.44346e+22
20.7044  1.38522e+22
20.8217  1.32783e+22
20.939  1.27076e+22
21.0563  1.21354e+22
21.1736  1.15584e+22
21.291  1.09759e+22
21.4083  1.03906e+22
21.5256  9.80737e+21
21.6429  9.23527e+21
21.7602  8.6835e+21
21.8775  8.16127e+21
21.9948  7.67559e+21
22.1121  7.23087e+21
22.2294  6.82657e+21
22.3467  6.45889e+21
22.464  6.12138e+21
22.5813  5.80616e+21
22.6986  5.50613e+21
22.8159  5.21534e+21
22.9332  4.9316e+21
23.0505  4.65531e+21
23.1678  4.3893e+21
23.2851  4.13829e+21
23.4024  3.90681e+21
23.5198  3.69916e+21
23.6371  3.51734e+21
23.7544  3.36131e+21
23.8717  3.22994e+21
23.989  3.12077e+21
24.1063  3.03099e+21
24.2236  2.95804e+21
24.3409  2.90077e+21
24.4582  2.85781e+21
24.5755  2.82792e+21
24.6928  2.8097e+21
24.8101  2.79978e+21
24.9274  2.7935e+21
25.0447  2.7845e+21
25.162  2.76598e+21
25.2793  2.73105e+21
25.3966  2.67461e+21
25.5139  2.59428e+21
25.6312  2.49097e+21
25.7485  2.36925e+21
25.8658  2.23642e+21
25.9832  2.10121e+21
26.1005  1.97317e+21
26.2178  1.86007e+21
26.3351  1.76736e+21
26.4524  1.69779e+21
26.5697  1.65093e+21
26.687  1.62457e+21
26.8043  1.61465e+21
26.9216  1.61738e+21
27.0389  1.62942e+21
27.1562  1.64813e+21
27.2735  1.6719e+21
27.3908  1.69903e+21
27.5081  1.72802e+21
27.6254  1.75609e+21
27.7427  1.77936e+21
27.86  1.79311e+21
27.9773  1.79223e+21
28.0946  1.77268e+21
28.212  1.73206e+21
28.3293  1.67098e+21
28.4466  1.59306e+21
28.5639  1.50512e+21
28.6812  1.41507e+21
28.7985  1.33184e+21
28.9158  1.26305e+21
29.0331  1.21369e+21
29.1504  1.18567e+21
29.2677  1.17709e+21
29.385  1.18319e+21
29.5023  1.1976e+21
29.6196  1.21342e+21
29.7369  1.22511e+21
29.8542  1.22884e+21
29.9715  1.22373e+21
30.0888  1.21078e+21
30.2061  1.19283e+21
30.3234  1.173e+21
30.4407  1.1541e+21
30.558  1.13759e+21
30.6754  1.12371e+21
30.7927  1.1118e+21
30.91  1.10025e+21
31.0273  1.08828e+21
31.1446  1.07565e+21
31.2619  1.06349e+21
31.3792  1.05335e+21
31.4965  1.04728e+21
31.6138  1.04652e+21
31.7311  1.0505e+21
31.8484  1.05678e+21
31.9657  1.061e+21
32.083  1.05754e+21
32.2003  1.04051e+21
32.3176  1.00593e+21
32.4349  9.5177e+20
32.5522  8.79515e+20
32.6695  7.94055e+20
32.7868  7.02845e+20
32.9042  6.14273e+20
33.0215  5.36657e+20
33.1388  4.75807e+20
33.2561  4.34812e+20
33.3734  4.13181e+20
33.4907  4.07329e+20
33.608  4.1179e+20
33.7253  4.20869e+20
33.8426  4.29601e+20
33.9599  4.35195e+20
34.0772  4.37198e+20
34.1945  4.36979e+20
34.3118  4.3723e+20
34.4291  4.40366e+20
34.5464  4.47802e+20
34.6637  4.5902e+20
34.781  4.71775e+20
34.8983  4.82683e+20
35.0156  4.88152e+20
35.1329  4.85866e+20
35.2503  4.7526e+20
35.3676  4.58357e+20
35.4849  4.39316e+20
35.6022  4.23298e+20
35.7195  4.15481e+20
35.8368  4.19599e+20
35.9541  4.3669e+20
36.0714  4.65005e+20
36.1887  5.00102e+20
36.306  5.36122e+20
36.4233  5.66957e+20
36.5406  5.87786e+20
36.6579  5.963e+20
36.7752  5.92678e+20
36.8925  5.80253e+20
37.0098  5.63689e+20
37.1271  5.48258e+20
37.2444  5.38197e+20
37.3617  5.36185e+20
37.479  5.42334e+20
37.5964  5.55098e+20
37.7137  5.71336e+20
37.831  5.88029e+20
37.9483  6.02904e+20
38.0656  6.14979e+20
38.1829  6.25077e+20
38.3002  6.35083e+20
38.4175  6.47059e+20
38.5348  6.62541e+20
38.6521  6.81408e+20
38.7694  7.01771e+20
38.8867  7.19995e+20
39.004  7.31771e+20
39.1213  7.3295e+20
39.2386  7.20693e+20
39.3559  6.94727e+20
39.4732  6.57361e+20
39.5905  6.13116e+20
39.7078  5.67954e+20
39.8251  5.28051e+20
39.9425  4.98382e+20
40.0598  4.81648e+20
40.1771  4.77943e+20
40.2944  4.84546e+20
40.4117  4.97131e+20
40.529  5.10668e+20
40.6463  5.20577e+20
40.7636  5.23818e+20
40.8809  5.19396e+20
40.9982  5.08449e+20
41.1155  4.93372e+20
41.2328  4.77349e+20
41.3501  4.62836e+20
41.4674  4.51537e+20
41.5847  4.43339e+20
41.702  4.37111e+20
41.8193  4.30576e+20
41.9366  4.21667e+20
42.0539  4.08978e+20
42.1712  3.9256e+20
42.2885  3.7363e+20
42.4059  3.54623e+20
42.5232  3.3836e+20
42.6405  3.27427e+20
42.7578  3.22947e+20
42.8751  3.24428e+20
42.9924  3.29679e+20
43.1097  3.3535e+20
43.227  3.37376e+20
43.3443  3.32339e+20
43.4616  3.18342e+20
43.5789  2.95131e+20
43.6962  2.6485e+20
43.8135  2.31214e+20
43.9308  1.98756e+20
44.0481  1.71787e+20
44.1654  1.53513e+20
44.2827  1.45148e+20
44.4  1.45801e+20
44.5173  1.52966e+20
44.6347  1.6285e+20
44.752  1.71816e+20
44.8693  1.77099e+20
44.9866  1.77535e+20
45.1039  1.73867e+20
45.2212  1.68365e+20
45.3385  1.64145e+20
45.4558  1.64067e+20
45.5731  1.69886e+20
45.6904  1.81639e+20
45.8077  1.97427e+20
45.925  2.13882e+20
46.0423  2.27121e+20
46.1596  2.3371e+20
46.2769  2.31752e+20
46.3942  2.21705e+20
46.5115  2.06285e+20
46.6288  1.89921e+20
46.7461  1.77859e+20
46.8634  1.74804e+20
46.9808  1.83644e+20
47.0981  2.0476e+20
47.2154  2.35756e+20
47.3327  2.72119e+20
47.45  3.08118e+20
47.5673  3.3822e+20
47.6846  3.58521e+20
47.8019  3.67361e+20
47.9192  3.65644e+20
48.0365  3.56653e+20
48.1538  3.44555e+20
48.2711  3.33553e+20
48.3884  3.2668e+20
48.5057  3.25064e+20
48.623  3.27651e+20
48.7403  3.32022e+20
48.8576  3.35257e+20
48.9749  3.34656e+20
49.0922  3.29188e+20
49.2095  3.19514e+20
49.3269  3.08041e+20
49.4442  2.97895e+20
49.5615  2.92044e+20
49.6788  2.92275e+20
49.7961  2.98313e+20
49.9134  3.07773e+20
50.0307  3.16742e+20
50.148  3.20765e+20
50.2653  3.16274e+20
50.3826  3.01582e+20
50.4999  2.77749e+20
50.6172  2.48298e+20
50.7345  2.18683e+20
50.8518  1.9472e+20
