#S 1 spectral density
#N 2
#UFWHM 23.9302
#L  abscissas [um]  spectral density
-58.5938  2.81164e+20
-58.4764  2.67948e+20
-58.3591  2.51506e+20
-58.2418  2.35732e+20
-58.1245  2.24254e+20
-58.0072  2.19798e+20
-57.8899  2.2334e+20
-57.7726  2.33875e+20
-57.6553  2.48787e+20
-57.538  2.6425e+20
-57.4207  2.76573e+20
-57.3034  2.82824e+20
-57.1861  2.81538e+20
-57.0688  2.73224e+20
-56.9515  2.60387e+20
-56.8342  2.46094e+20
-56.7169  2.34169e+20
-56.5996  2.27268e+20
-56.4823  2.26804e+20
-56.365  2.32065e+20
-56.2477  2.40748e+20
-56.1303  2.4951e+20
-56.013  2.54854e+20
-55.8957  2.54112e+20
-55.7784  2.46493e+20
-55.6611  2.3314e+20
-55.5438  2.17282e+20
-55.4265  2.03132e+20
-55.3092  1.95335e+20
-55.1919  1.9745e+20
-55.0746  2.10828e+20
-54.9573  2.34805e+20
-54.84  2.66177e+20
-54.7227  3.00451e+20
-54.6054  3.32335e+20
-54.4881  3.57493e+20
-54.3708  3.73226e+20
-54.2535  3.79116e+20
-54.1362  3.76908e+20
-54.0189  3.69764e+20
-53.9016  3.61389e+20
-53.7842  3.54783e+20
-53.6669  3.51657e+20
-53.5496  3.51736e+20
-53.4323  3.53173e+20
-53.315  3.53404e+20
-53.1977  3.49783e+20
-53.0804  3.40967e+20
-52.9631  3.27303e+20
-52.8458  3.10769e+20
-52.7285  2.94945e+20
-52.6112  2.83353e+20
-52.4939  2.78876e+20
-52.3766  2.82491e+20
-52.2593  2.92769e+20
-52.142  3.06082e+20
-52.0247  3.17634e+20
-51.9074  3.22368e+20
-51.7901  3.16682e+20
-51.6728  2.99558e+20
-51.5555  2.72818e+20
-51.4381  2.41193e+20
-51.3208  2.10995e+20
-51.2035  1.88695e+20
-51.0862  1.79493e+20
-50.9689  1.85883e+20
-50.8516  2.07034e+20
-50.7343  2.391e+20
-50.617  2.76064e+20
-50.4997  3.11408e+20
-50.3824  3.39392e+20
-50.2651  3.56577e+20
-50.1478  3.62305e+20
-50.0305  3.58558e+20
-49.9132  3.49098e+20
-49.7959  3.38231e+20
-49.6786  3.295e+20
-49.5613  3.24757e+20
-49.444  3.23951e+20
-49.3267  3.25088e+20
-49.2094  3.25468e+20
-49.092  3.22571e+20
-48.9747  3.15084e+20
-48.8574  3.03665e+20
-48.7401  2.90442e+20
-48.6228  2.79034e+20
-48.5055  2.73e+20
-48.3882  2.74839e+20
-48.2709  2.85315e+20
-48.1536  3.02552e+20
-48.0363  3.23161e+20
-47.919  3.42382e+20
-47.8017  3.55714e+20
-47.6844  3.6009e+20
-47.5671  3.54829e+20
-47.4498  3.41473e+20
-47.3325  3.2416e+20
-47.2152  3.07723e+20
-47.0979  2.97013e+20
-46.9806  2.9517e+20
-46.8633  3.03214e+20
-46.7459  3.19426e+20
-46.6286  3.4009e+20
-46.5113  3.60351e+20
-46.394  3.75498e+20
-46.2767  3.82383e+20
-46.1594  3.80079e+20
-46.0421  3.69888e+20
-45.9248  3.55415e+20
-45.8075  3.40968e+20
-45.6902  3.30446e+20
-45.5729  3.26716e+20
-45.4556  3.3016e+20
-45.3383  3.39219e+20
-45.221  3.50267e+20
-45.1037  3.59181e+20
-44.9864  3.62122e+20
-44.8691  3.56983e+20
-44.7518  3.43701e+20
-44.6345  3.24586e+20
-44.5172  3.03717e+20
-44.3998  2.86012e+20
-44.2825  2.76248e+20
-44.1652  2.77392e+20
-44.0479  2.90532e+20
-43.9306  3.14273e+20
-43.8133  3.45102e+20
-43.696  3.78422e+20
-43.5787  4.0954e+20
-43.4614  4.34503e+20
-43.3441  4.51161e+20
-43.2268  4.59162e+20
-43.1095  4.59961e+20
-42.9922  4.56282e+20
-42.8749  4.50803e+20
-42.7576  4.45932e+20
-42.6403  4.42959e+20
-42.523  4.41679e+20
-42.4057  4.40927e+20
-42.2884  4.39077e+20
-42.171  4.34544e+20
-42.0537  4.26703e+20
-41.9364  4.15955e+20
-41.8191  4.03877e+20
-41.7018  3.92801e+20
-41.5845  3.85063e+20
-41.4672  3.82204e+20
-41.3499  3.84459e+20
-41.2326  3.90468e+20
-41.1153  3.97293e+20
-40.998  4.01422e+20
-40.8807  3.99433e+20
-40.7634  3.89143e+20
-40.6461  3.70334e+20
-40.5288  3.44996e+20
-40.4115  3.17225e+20
-40.2942  2.92323e+20
-40.1769  2.75706e+20
-40.0596  2.71584e+20
-39.9423  2.81759e+20
-39.825  3.05608e+20
-39.7076  3.39762e+20
-39.5903  3.78905e+20
-39.473  4.17145e+20
-39.3557  4.48981e+20
-39.2384  4.70924e+20
-39.1211  4.81685e+20
-39.0038  4.82534e+20
-38.8865  4.76831e+20
-38.7692  4.68388e+20
-38.6519  4.61216e+20
-38.5346  4.57734e+20
-38.4173  4.58713e+20
-38.3  4.62988e+20
-38.1827  4.68213e+20
-38.0654  4.71694e+20
-37.9481  4.71573e+20
-37.8308  4.67145e+20
-37.7135  4.59773e+20
-37.5962  4.52028e+20
-37.4789  4.47273e+20
-37.3615  4.48625e+20
-37.2442  4.57722e+20
-37.1269  4.74316e+20
-37.0096  4.95916e+20
-36.8923  5.18658e+20
-36.775  5.38032e+20
-36.6577  5.50083e+20
-36.5404  5.52897e+20
-36.4231  5.46608e+20
-36.3058  5.33855e+20
-36.1885  5.19034e+20
-36.0712  5.0701e+20
-35.9539  5.01932e+20
-35.8366  5.05985e+20
-35.7193  5.18904e+20
-35.602  5.37928e+20
-35.4847  5.58672e+20
-35.3674  5.76129e+20
-35.2501  5.8633e+20
-35.1328  5.87254e+20
-35.0154  5.7931e+20
-34.8981  5.65677e+20
-34.7808  5.50599e+20
-34.6635  5.38932e+20
-34.5462  5.34334e+20
-34.4289  5.3819e+20
-34.3116  5.49339e+20
-34.1943  5.64458e+20
-34.077  5.78796e+20
-33.9597  5.87491e+20
-33.8424  5.87389e+20
-33.7251  5.77689e+20
-33.6078  5.60506e+20
-33.4905  5.40172e+20
-33.3732  5.22706e+20
-33.2559  5.14021e+20
-33.1386  5.17976e+20
-33.0213  5.3643e+20
-32.904  5.67724e+20
-32.7867  6.07708e+20
-32.6693  6.50576e+20
-32.552  6.90069e+20
-32.4347  7.21183e+20
-32.3174  7.41115e+20
-32.2001  7.49429e+20
-32.0828  7.48318e+20
-31.9655  7.41408e+20
-31.8482  7.32817e+20
-31.7309  7.25558e+20
-31.6136  7.21533e+20
-31.4963  7.20474e+20
-31.379  7.21054e+20
-31.2617  7.20963e+20
-31.1444  7.18326e+20
-31.0271  7.12373e+20
-30.9098  7.03699e+20
-30.7925  6.94551e+20
-30.6752  6.87778e+20
-30.5579  6.85942e+20
-30.4406  6.90957e+20
-30.3232  7.02629e+20
-30.2059  7.18962e+20
-30.0886  7.36219e+20
-29.9713  7.50038e+20
-29.854  7.56758e+20
-29.7367  7.54088e+20
-29.6194  7.42314e+20
-29.5021  7.24348e+20
-29.3848  7.05081e+20
-29.2675  6.90713e+20
-29.1502  6.8676e+20
-29.0329  6.97479e+20
-28.9156  7.24188e+20
-28.7983  7.65164e+20
-28.681  8.16323e+20
-28.5637  8.71681e+20
-28.4464  9.24748e+20
-28.3291  9.7031e+20
-28.2118  1.00503e+21
-28.0944  1.02782e+21
-27.9771  1.04072e+21
-27.8598  1.04653e+21
-27.7425  1.0494e+21
-27.6252  1.05229e+21
-27.5079  1.05743e+21
-27.3906  1.06494e+21
-27.2733  1.07368e+21
-27.156  1.08152e+21
-27.0387  1.08631e+21
-26.9214  1.08724e+21
-26.8041  1.08485e+21
-26.6868  1.08143e+21
-26.5695  1.08045e+21
-26.4522  1.08602e+21
-26.3349  1.10124e+21
-26.2176  1.12786e+21
-26.1003  1.16534e+21
-25.983  1.21082e+21
-25.8657  1.25973e+21
-25.7483  1.30668e+21
-25.631  1.34688e+21
-25.5137  1.37715e+21
-25.3964  1.39612e+21
-25.2791  1.40508e+21
-25.1618  1.40738e+21
-25.0445  1.40717e+21
-24.9272  1.40875e+21
-24.8099  1.41553e+21
-24.6926  1.42921e+21
-24.5753  1.44942e+21
-24.458  1.47481e+21
-24.3407  1.50325e+21
-24.2234  1.53263e+21
-24.1061  1.5624e+21
-23.9888  1.59326e+21
-23.8715  1.62751e+21
-23.7542  1.66767e+21
-23.6369  1.71728e+21
-23.5196  1.77763e+21
-23.4023  1.84895e+21
-23.2849  1.92918e+21
-23.1676  2.01426e+21
-23.0503  2.09951e+21
-22.933  2.18033e+21
-22.8157  2.25398e+21
-22.6984  2.31986e+21
-22.5811  2.38064e+21
-22.4638  2.44154e+21
-22.3465  2.50897e+21
-22.2292  2.59001e+21
-22.1119  2.68996e+21
-21.9946  2.81161e+21
-21.8773  2.95434e+21
-21.76  3.11419e+21
-21.6427  3.28417e+21
-21.5254  3.45612e+21
-21.4081  3.62197e+21
-21.2908  3.7752e+21
-21.1735  3.91075e+21
-21.0561  4.02759e+21
-20.9388  4.12635e+21
-20.8215  4.20982e+21
-20.7042  4.2818e+21
-20.5869  4.34611e+21
-20.4696  4.40686e+21
-20.3523  4.46751e+21
-20.235  4.53193e+21
-20.1177  4.60464e+21
-20.0004  4.69152e+21
-19.8831  4.79932e+21
-19.7658  4.93538e+21
-19.6485  5.10768e+21
-19.5312  5.32211e+21
-19.4139  5.5814e+21
-19.2966  5.88522e+21
-19.1793  6.2279e+21
-19.062  6.59987e+21
-18.9447  6.98855e+21
-18.8274  7.38049e+21
-18.71  7.76177e+21
-18.5927  8.12254e+21
-18.4754  8.45526e+21
-18.3581  8.75845e+21
-18.2408  9.03399e+21
-18.1235  9.28882e+21
-18.0062  9.53066e+21
-17.8889  9.77004e+21
-17.7716  1.00167e+22
-17.6543  1.02807e+22
-17.537  1.05718e+22
-17.4197  1.08998e+22
-17.3024  1.12742e+22
-17.1851  1.17058e+22
-17.0678  1.22046e+22
-16.9505  1.27792e+22
-16.8332  1.34366e+22
-16.7159  1.4178e+22
-16.5986  1.50007e+22
-16.4813  1.58949e+22
-16.364  1.68452e+22
-16.2466  1.78318e+22
-16.1293  1.88317e+22
-16.012  1.98229e+22
-15.8947  2.0785e+22
-15.7774  2.17031e+22
-15.6601  2.25683e+22
-15.5428  2.3378e+22
-15.4255  2.41356e+22
-15.3082  2.4849e+22
-15.1909  2.55277e+22
-15.0736  2.61837e+22
-14.9563  2.68284e+22
-14.839  2.74716e+22
-14.7217  2.81231e+22
-14.6044  2.87911e+22
-14.4871  2.94829e+22
-14.3698  3.02046e+22
-14.2525  3.09623e+22
-14.1352  3.17585e+22
-14.0178  3.25943e+22
-13.9005  3.34659e+22
-13.7832  3.43662e+22
-13.6659  3.52832e+22
-13.5486  3.62032e+22
-13.4313  3.71097e+22
-13.314  3.79873e+22
-13.1967  3.88233e+22
-13.0794  3.96088e+22
-12.9621  4.03402e+22
-12.8448  4.10188e+22
-12.7275  4.165e+22
-12.6102  4.22423e+22
-12.4929  4.28058e+22
-12.3756  4.33495e+22
-12.2583  4.38819e+22
-12.141  4.44095e+22
-12.0237  4.49373e+22
-11.9064  4.54694e+22
-11.7891  4.60094e+22
-11.6718  4.6562e+22
-11.5544  4.71317e+22
-11.4371  4.77233e+22
-11.3198  4.83408e+22
-11.2025  4.89869e+22
-11.0852  4.96613e+22
-10.9679  5.03607e+22
-10.8506  5.10785e+22
-10.7333  5.18061e+22
-10.616  5.25343e+22
-10.4987  5.3254e+22
-10.3814  5.39578e+22
-10.2641  5.46427e+22
-10.1468  5.53079e+22
-10.0295  5.5957e+22
-9.91217  5.6595e+22
-9.79487  5.72275e+22
-9.67756  5.78603e+22
-9.56026  5.84976e+22
-9.44295  5.91407e+22
-9.32565  5.97887e+22
-9.20834  6.04396e+22
-9.09104  6.109e+22
-8.97373  6.17367e+22
-8.85643  6.23774e+22
-8.73913  6.30118e+22
-8.62182  6.36399e+22
-8.50452  6.42627e+22
-8.38721  6.48809e+22
-8.26991  6.54954e+22
-8.1526  6.61054e+22
-8.03529  6.67096e+22
-7.91799  6.73058e+22
-7.80069  6.78927e+22
-7.68338  6.84693e+22
-7.56608  6.90367e+22
-7.44877  6.95984e+22
-7.33146  7.01581e+22
-7.21416  7.07212e+22
-7.09685  7.1292e+22
-6.97955  7.18734e+22
-6.86224  7.24656e+22
-6.74494  7.30652e+22
-6.62763  7.36669e+22
-6.51033  7.42628e+22
-6.39302  7.48451e+22
-6.27572  7.54071e+22
-6.15842  7.5944e+22
-6.04111  7.64544e+22
-5.92381  7.69401e+22
-5.8065  7.7405e+22
-5.68919  7.78548e+22
-5.57189  7.82949e+22
-5.45458  7.87296e+22
-5.33728  7.9161e+22
-5.21997  7.95889e+22
-5.10267  8.00117e+22
-4.98536  8.04262e+22
-4.86806  8.08306e+22
-4.75075  8.12234e+22
-4.63345  8.16059e+22
-4.51614  8.198e+22
-4.39884  8.23502e+22
-4.28154  8.27195e+22
-4.16423  8.30916e+22
-4.04692  8.34667e+22
-3.92962  8.38438e+22
-3.81231  8.42189e+22
-3.69501  8.45869e+22
-3.5777  8.49424e+22
-3.4604  8.52814e+22
-3.34309  8.5601e+22
-3.22579  8.59019e+22
-3.10849  8.61862e+22
-2.99118  8.64575e+22
-2.87387  8.67204e+22
-2.75657  8.6978e+22
-2.63926  8.72315e+22
-2.52196  8.74803e+22
-2.40465  8.77215e+22
-2.28735  8.79515e+22
-2.17005  8.81666e+22
-2.05274  8.83638e+22
-1.93544  8.85423e+22
-1.81813  8.87036e+22
-1.70083  8.88504e+22
-1.58352  8.89863e+22
-1.46622  8.91143e+22
-1.34891  8.92357e+22
-1.2316  8.93502e+22
-1.1143  8.94551e+22
-0.996995  8.95465e+22
-0.87969  8.96203e+22
-0.762385  8.96735e+22
-0.64508  8.97061e+22
-0.527775  8.97195e+22
-0.41047  8.97189e+22
-0.293165  8.97102e+22
-0.17586  8.97002e+22
-0.058555  8.96937e+22
0.05875  8.96935e+22
0.176055  8.96986e+22
0.29336  8.97059e+22
0.410665  8.97087e+22
0.52797  8.97009e+22
0.645275  8.96766e+22
0.76258  8.96321e+22
0.879885  8.95661e+22
0.99719  8.94806e+22
1.1145  8.93791e+22
1.2318  8.92657e+22
1.3491  8.91442e+22
1.46641  8.90167e+22
1.58371  8.88828e+22
1.70102  8.87398e+22
1.81832  8.85849e+22
1.93563  8.84142e+22
2.05294  8.82255e+22
2.17024  8.8018e+22
2.28754  8.77936e+22
2.40485  8.75553e+22
2.52216  8.73073e+22
2.63946  8.70527e+22
2.75677  8.67942e+22
2.87407  8.65314e+22
2.99137  8.62622e+22
3.10868  8.59828e+22
3.22599  8.56891e+22
3.34329  8.53776e+22
3.4606  8.50466e+22
3.5779  8.46973e+22
3.69521  8.43328e+22
3.81251  8.3958e+22
3.92982  8.35786e+22
4.04712  8.31992e+22
4.16443  8.28226e+22
4.28173  8.24494e+22
4.39903  8.20781e+22
4.51634  8.17047e+22
4.63364  8.13254e+22
4.75095  8.09369e+22
4.86825  8.0537e+22
4.98556  8.01262e+22
5.10286  7.97058e+22
5.22017  7.92787e+22
5.33748  7.88474e+22
5.45478  7.84134e+22
5.57209  7.79754e+22
5.68939  7.75305e+22
5.8067  7.70737e+22
5.924  7.65992e+22
6.0413  7.61018e+22
6.15861  7.55785e+22
6.27591  7.50283e+22
6.39322  7.44545e+22
6.51052  7.38627e+22
6.62783  7.32606e+22
6.74514  7.26561e+22
6.86244  7.20563e+22
6.97975  7.1466e+22
7.09705  7.08868e+22
7.21436  7.03174e+22
7.33166  6.97544e+22
7.44897  6.91924e+22
7.56627  6.86272e+22
7.68358  6.80544e+22
7.80088  6.7472e+22
7.91819  6.68797e+22
8.03549  6.62788e+22
8.1528  6.56707e+22
8.2701  6.50574e+22
8.38741  6.44401e+22
8.50471  6.38186e+22
8.62202  6.31925e+22
8.73932  6.25606e+22
8.85662  6.19218e+22
8.97393  6.12774e+22
9.09123  6.06282e+22
9.20854  5.99772e+22
9.32584  5.93275e+22
9.44315  5.86824e+22
9.56045  5.80432e+22
9.67776  5.74097e+22
9.79506  5.67788e+22
9.91237  5.61461e+22
10.0297  5.55052e+22
10.147  5.485e+22
10.2643  5.41763e+22
10.3816  5.34827e+22
10.4989  5.27704e+22
10.6162  5.20452e+22
10.7335  5.13147e+22
10.8508  5.05886e+22
10.9681  4.98762e+22
11.0854  4.91851e+22
11.2027  4.85214e+22
11.32  4.78861e+22
11.4373  4.72791e+22
11.5546  4.6697e+22
11.6719  4.61356e+22
11.7893  4.55896e+22
11.9066  4.50545e+22
12.0239  4.45259e+22
12.1412  4.39999e+22
12.2585  4.34716e+22
12.3758  4.29356e+22
12.4931  4.23839e+22
12.6104  4.18083e+22
12.7277  4.11984e+22
12.845  4.05454e+22
12.9623  3.98417e+22
13.0796  3.90839e+22
13.1969  3.82727e+22
13.3142  3.74143e+22
13.4315  3.65195e+22
13.5488  3.56022e+22
13.6661  3.46787e+22
13.7834  3.3765e+22
13.9007  3.28735e+22
14.018  3.20146e+22
14.1354  3.11938e+22
14.2527  3.0413e+22
14.37  2.96699e+22
14.4873  2.89609e+22
14.6046  2.8279e+22
14.7219  2.76177e+22
14.8392  2.69695e+22
14.9565  2.63254e+22
15.0738  2.5676e+22
15.1911  2.50107e+22
15.3084  2.43182e+22
15.4257  2.35881e+22
15.543  2.28112e+22
15.6603  2.19808e+22
15.7776  2.10969e+22
15.8949  2.01642e+22
16.0122  1.9194e+22
16.1295  1.82034e+22
16.2468  1.72135e+22
16.3641  1.6247e+22
16.4815  1.53252e+22
16.5988  1.44664e+22
16.7161  1.36838e+22
16.8334  1.2984e+22
16.9507  1.23681e+22
17.068  1.18319e+22
17.1853  1.13677e+22
17.3026  1.09663e+22
17.4199  1.06176e+22
17.5372  1.0311e+22
17.6545  1.00371e+22
17.7718  9.78636e+21
17.8891  9.54913e+21
18.0064  9.31547e+21
18.1237  9.07484e+21
18.241  8.81827e+21
18.3583  8.53788e+21
18.4756  8.22858e+21
18.5929  7.88981e+21
18.7102  7.5255e+21
18.8275  7.14393e+21
18.9449  6.75698e+21
19.0622  6.37795e+21
19.1795  6.02118e+21
19.2968  5.69795e+21
19.4141  5.41589e+21
19.5314  5.17821e+21
19.6487  4.98475e+21
19.766  4.83075e+21
19.8833  4.70902e+21
20.0006  4.61237e+21
20.1179  4.53308e+21
20.2352  4.46466e+21
20.3525  4.40233e+21
20.4698  4.34202e+21
20.5871  4.28012e+21
20.7044  4.21277e+21
20.8217  4.13656e+21
20.939  4.04744e+21
21.0563  3.94197e+21
21.1736  3.81826e+21
21.291  3.67608e+21
21.4083  3.5185e+21
21.5256  3.35067e+21
21.6429  3.1803e+21
21.7602  3.01566e+21
21.8775  2.86452e+21
21.9948  2.73243e+21
22.1121  2.62214e+21
22.2294  2.53276e+21
22.3467  2.4599e+21
22.464  2.39725e+21
22.5813  2.33785e+21
22.6986  2.27547e+21
22.8159  2.20587e+21
22.9332  2.12814e+21
23.0505  2.04394e+21
23.1678  1.9573e+21
23.2851  1.87314e+21
23.4024  1.79619e+21
23.5198  1.72958e+21
23.6371  1.67492e+21
23.7544  1.6308e+21
23.8717  1.59528e+21
23.989  1.56468e+21
24.1063  1.53642e+21
24.2236  1.50867e+21
24.3409  1.48132e+21
24.4582  1.45562e+21
24.5755  1.43365e+21
24.6928  1.41739e+21
24.8101  1.40802e+21
24.9274  1.4047e+21
25.0447  1.40507e+21
25.162  1.40534e+21
25.2793  1.40102e+21
25.3966  1.3882e+21
25.5139  1.36449e+21
25.6312  1.32963e+21
25.7485  1.28591e+21
25.8658  1.23727e+21
25.9832  1.18891e+21
26.1005  1.14635e+21
26.2178  1.11309e+21
26.3351  1.0911e+21
26.4524  1.07995e+21
26.5697  1.07719e+21
26.687  1.07918e+21
26.8043  1.08202e+21
26.9216  1.08276e+21
27.0389  1.07987e+21
27.1562  1.07344e+21
27.2735  1.06508e+21
27.3908  1.05677e+21
27.5081  1.05017e+21
27.6254  1.04623e+21
27.7427  1.04373e+21
27.86  1.03993e+21
27.9773  1.03139e+21
28.0946  1.01439e+21
28.212  9.86453e+20
28.3293  9.47016e+20
28.4466  8.9796e+20
28.5639  8.43739e+20
28.6812  7.90168e+20
28.7985  7.43377e+20
28.9158  7.08627e+20
29.0331  6.89249e+20
29.1504  6.85337e+20
29.2677  6.94301e+20
29.385  7.11399e+20
29.5023  7.30405e+20
29.6196  7.45898e+20
29.7369  7.53735e+20
29.8542  7.52153e+20
29.9715  7.41997e+20
30.0888  7.26143e+20
30.2061  7.08908e+20
30.3234  6.94235e+20
30.4407  6.85235e+20
30.558  6.83202e+20
30.6754  6.87417e+20
30.7927  6.95801e+20
30.91  7.05304e+20
31.0273  7.13338e+20
31.1446  7.18364e+20
31.2619  7.20266e+20
31.3792  7.20261e+20
31.4965  7.20397e+20
31.6138  7.22783e+20
31.7311  7.2817e+20
31.8484  7.36071e+20
31.9657  7.44118e+20
32.083  7.48685e+20
32.2003  7.45885e+20
32.3176  7.3273e+20
32.4349  7.08014e+20
32.5522  6.73026e+20
32.6695  6.31628e+20
32.7868  5.89421e+20
32.9042  5.52447e+20
33.0215  5.26219e+20
33.1388  5.13712e+20
33.2561  5.15422e+20
33.3734  5.28514e+20
33.4907  5.48051e+20
33.608  5.67963e+20
33.7253  5.82823e+20
33.8426  5.88876e+20
33.9599  5.85117e+20
34.0772  5.73432e+20
34.1945  5.57814e+20
34.3118  5.43168e+20
34.4291  5.33986e+20
34.5464  5.32966e+20
34.6637  5.40349e+20
34.781  5.53793e+20
34.8983  5.69129e+20
35.0156  5.81477e+20
35.1329  5.86802e+20
35.2503  5.82896e+20
35.3676  5.70069e+20
35.4849  5.51403e+20
35.6022  5.31145e+20
35.7195  5.14231e+20
35.8368  5.04682e+20
35.9541  5.0436e+20
36.0714  5.12573e+20
36.1887  5.26249e+20
36.306  5.40822e+20
36.4233  5.51479e+20
36.5406  5.54325e+20
36.6579  5.4763e+20
36.7752  5.31958e+20
36.8925  5.1037e+20
37.0098  4.87156e+20
37.1271  4.66766e+20
37.2444  4.52652e+20
37.3617  4.46535e+20
37.479  4.47788e+20
37.5964  4.54189e+20
37.7137  4.62209e+20
37.831  4.68684e+20
37.9483  4.71416e+20
38.0656  4.6986e+20
38.1829  4.65128e+20
38.3002  4.59788e+20
38.4175  4.56463e+20
38.5348  4.57162e+20
38.6521  4.62374e+20
38.7694  4.70667e+20
38.8867  4.78587e+20
39.004  4.82259e+20
39.1213  4.77644e+20
39.2386  4.62187e+20
39.3559  4.35676e+20
39.4732  4.00425e+20
39.5905  3.61041e+20
39.7078  3.23262e+20
39.8251  2.93172e+20
39.9425  2.75307e+20
40.0598  2.71924e+20
40.1771  2.82551e+20
40.2944  3.03879e+20
40.4117  3.30926e+20
40.529  3.58122e+20
40.6463  3.80522e+20
40.7636  3.94936e+20
40.8809  4.00378e+20
40.9982  3.98291e+20
41.1155  3.91649e+20
41.2328  3.84296e+20
41.3501  3.79528e+20
41.4674  3.79638e+20
41.5847  3.85167e+20
41.702  3.95186e+20
41.8193  4.07461e+20
41.9366  4.19552e+20
42.0539  4.29296e+20
42.1712  4.35733e+20
42.2885  4.38968e+20
42.4059  4.40221e+20
42.5232  4.41187e+20
42.6405  4.43596e+20
42.7578  4.4807e+20
42.8751  4.53945e+20
42.9924  4.594e+20
43.1097  4.61784e+20
43.227  4.58086e+20
43.3443  4.46224e+20
43.4616  4.25569e+20
43.5789  3.97259e+20
43.6962  3.64405e+20
43.8135  3.31529e+20
43.9308  3.03355e+20
44.0481  2.84071e+20
44.1654  2.76257e+20
44.2827  2.80197e+20
44.4  2.93779e+20
44.5173  3.13182e+20
44.6347  3.33558e+20
44.752  3.50256e+20
44.8693  3.59973e+20
44.9866  3.61405e+20
45.1039  3.5555e+20
45.2212  3.45428e+20
45.3385  3.34946e+20
45.4558  3.27973e+20
45.5731  3.27251e+20
45.6904  3.33585e+20
45.8077  3.45643e+20
45.925  3.60174e+20
46.0423  3.73018e+20
46.1596  3.80156e+20
46.2769  3.79144e+20
46.3942  3.69407e+20
46.5115  3.52661e+20
46.6288  3.32753e+20
46.7461  3.14224e+20
46.8634  3.01478e+20
46.9808  2.97425e+20
47.0981  3.02651e+20
47.2154  3.15422e+20
47.3327  3.31946e+20
47.45  3.47393e+20
47.5673  3.57172e+20
47.6846  3.58425e+20
47.8019  3.50233e+20
47.9192  3.34181e+20
48.0365  3.14121e+20
48.1538  2.94463e+20
48.2711  2.79473e+20
48.3884  2.72145e+20
48.5057  2.73261e+20
48.623  2.81385e+20
48.7403  2.93625e+20
48.8576  3.06455e+20
48.9749  3.16693e+20
49.0922  3.22556e+20
49.2095  3.24247e+20
49.3269  3.23466e+20
49.4442  3.22916e+20
49.5615  3.24966e+20
49.6788  3.31025e+20
49.7961  3.4052e+20
49.9134  3.50932e+20
50.0307  3.58443e+20
50.148  3.58802e+20
50.2653  3.48896e+20
50.3826  3.27651e+20
50.4999  2.96807e+20
50.6172  2.60686e+20
50.7345  2.25473e+20
