#S 1 spectral density
#N 2
#UFWHM 28.5051
#L  abscissas [um]  spectral density
-58.5938  3.44898e+20
-58.4764  3.41046e+20
-58.3591  3.3801e+20
-58.2418  3.3716e+20
-58.1245  3.39496e+20
-58.0072  3.45366e+20
-57.8899  3.53942e+20
-57.7726  3.63529e+20
-57.6553  3.71522e+20
-57.538  3.75129e+20
-57.4207  3.72085e+20
-57.3034  3.61174e+20
-57.1861  3.42658e+20
-57.0688  3.18603e+20
-56.9515  2.92279e+20
-56.8342  2.67703e+20
-56.7169  2.4894e+20
-56.5996  2.3905e+20
-56.4823  2.39581e+20
-56.365  2.50257e+20
-56.2477  2.6903e+20
-56.1303  2.92844e+20
-56.013  3.17885e+20
-55.8957  3.40982e+20
-55.7784  3.60024e+20
-55.6611  3.74444e+20
-55.5438  3.8509e+20
-55.4265  3.93899e+20
-55.3092  4.0319e+20
-55.1919  4.14729e+20
-55.0746  4.29028e+20
-54.9573  4.45349e+20
-54.84  4.6142e+20
-54.7227  4.74257e+20
-54.6054  4.80815e+20
-54.4881  4.79028e+20
-54.3708  4.68102e+20
-54.2535  4.49419e+20
-54.1362  4.25884e+20
-54.0189  4.01273e+20
-53.9016  3.79677e+20
-53.7842  3.64172e+20
-53.6669  3.56372e+20
-53.5496  3.56038e+20
-53.4323  3.61278e+20
-53.315  3.69314e+20
-53.1977  3.77348e+20
-53.0804  3.83344e+20
-52.9631  3.86977e+20
-52.8458  3.89267e+20
-52.7285  3.92684e+20
-52.6112  3.99993e+20
-52.4939  4.13595e+20
-52.3766  4.34539e+20
-52.2593  4.61955e+20
-52.142  4.93184e+20
-52.0247  5.2452e+20
-51.9074  5.51761e+20
-51.7901  5.71775e+20
-51.6728  5.83014e+20
-51.5555  5.8611e+20
-51.4381  5.83618e+20
-51.3208  5.79312e+20
-51.2035  5.76772e+20
-51.0862  5.78871e+20
-50.9689  5.865e+20
-50.8516  5.98033e+20
-50.7343  6.10091e+20
-50.617  6.18316e+20
-50.4997  6.18437e+20
-50.3824  6.07602e+20
-50.2651  5.85247e+20
-50.1478  5.53649e+20
-50.0305  5.16781e+20
-49.9132  4.80499e+20
-49.7959  4.50303e+20
-49.6786  4.30444e+20
-49.5613  4.23249e+20
-49.444  4.28396e+20
-49.3267  4.43591e+20
-49.2094  4.65072e+20
-49.092  4.89006e+20
-48.9747  5.12142e+20
-48.8574  5.32866e+20
-48.7401  5.51169e+20
-48.6228  5.6812e+20
-48.5055  5.85545e+20
-48.3882  6.04688e+20
-48.2709  6.25938e+20
-48.1536  6.4795e+20
-48.0363  6.68454e+20
-47.919  6.84368e+20
-47.8017  6.92938e+20
-47.6844  6.92817e+20
-47.5671  6.8405e+20
-47.4498  6.68742e+20
-47.3325  6.50582e+20
-47.2152  6.33442e+20
-47.0979  6.2114e+20
-46.9806  6.15657e+20
-46.8633  6.17119e+20
-46.7459  6.23397e+20
-46.6286  6.30807e+20
-46.5113  6.34871e+20
-46.394  6.31756e+20
-46.2767  6.19052e+20
-46.1594  5.96658e+20
-46.0421  5.668e+20
-45.9248  5.33645e+20
-45.8075  5.02207e+20
-45.6902  4.77324e+20
-45.5729  4.62545e+20
-45.4556  4.59485e+20
-45.3383  4.67173e+20
-45.221  4.82917e+20
-45.1037  5.02635e+20
-44.9864  5.22042e+20
-44.8691  5.37699e+20
-44.7518  5.47588e+20
-44.6345  5.51347e+20
-44.5172  5.50559e+20
-44.3998  5.4773e+20
-44.2825  5.45747e+20
-44.1652  5.46949e+20
-44.0479  5.52716e+20
-43.9306  5.6316e+20
-43.8133  5.77001e+20
-43.696  5.92294e+20
-43.5787  6.06923e+20
-43.4614  6.19018e+20
-43.3441  6.27697e+20
-43.2268  6.32837e+20
-43.1095  6.35063e+20
-42.9922  6.35471e+20
-42.8749  6.34887e+20
-42.7576  6.33474e+20
-42.6403  6.30808e+20
-42.523  6.25317e+20
-42.4057  6.15447e+20
-42.2884  5.99612e+20
-42.171  5.7724e+20
-42.0537  5.49171e+20
-41.9364  5.17789e+20
-41.8191  4.86779e+20
-41.7018  4.60868e+20
-41.5845  4.44546e+20
-41.4672  4.41403e+20
-41.3499  4.53244e+20
-41.2326  4.79668e+20
-41.1153  5.17915e+20
-40.998  5.63443e+20
-40.8807  6.10947e+20
-40.7634  6.55011e+20
-40.6461  6.91432e+20
-40.5288  7.17641e+20
-40.4115  7.33172e+20
-40.2942  7.39159e+20
-40.1769  7.38212e+20
-40.0596  7.33128e+20
-39.9423  7.26215e+20
-39.825  7.19125e+20
-39.7076  7.12349e+20
-39.5903  7.05503e+20
-39.473  6.97731e+20
-39.3557  6.88552e+20
-39.2384  6.78161e+20
-39.1211  6.67601e+20
-39.0038  6.58874e+20
-38.8865  6.5437e+20
-38.7692  6.55861e+20
-38.6519  6.6426e+20
-38.5346  6.78834e+20
-38.4173  6.97456e+20
-38.3  7.16684e+20
-38.1827  7.32652e+20
-38.0654  7.42364e+20
-37.9481  7.4432e+20
-37.8308  7.38851e+20
-37.7135  7.28994e+20
-37.5962  7.19146e+20
-37.4789  7.14608e+20
-37.3615  7.20229e+20
-37.2442  7.39329e+20
-37.1269  7.72811e+20
-37.0096  8.18963e+20
-36.8923  8.73647e+20
-36.775  9.31399e+20
-36.6577  9.86212e+20
-36.5404  1.03321e+21
-36.4231  1.06877e+21
-36.3058  1.0915e+21
-36.1885  1.10175e+21
-36.0712  1.10095e+21
-35.9539  1.09133e+21
-35.8366  1.07455e+21
-35.7193  1.05167e+21
-35.602  1.0232e+21
-35.4847  9.89248e+20
-35.3674  9.50164e+20
-35.2501  9.07578e+20
-35.1328  8.64583e+20
-35.0154  8.25709e+20
-34.8981  7.96469e+20
-34.7808  7.82402e+20
-34.6635  7.87449e+20
-34.5462  8.13557e+20
-34.4289  8.59225e+20
-34.3116  9.19881e+20
-34.1943  9.88484e+20
-34.077  1.0563e+21
-33.9597  1.11512e+21
-33.8424  1.15812e+21
-33.7251  1.18169e+21
-33.6078  1.18537e+21
-33.4905  1.17212e+21
-33.3732  1.14729e+21
-33.2559  1.11749e+21
-33.1386  1.0887e+21
-33.0213  1.06616e+21
-32.904  1.05268e+21
-32.7867  1.04893e+21
-32.6693  1.05415e+21
-32.552  1.06649e+21
-32.4347  1.08405e+21
-32.3174  1.10507e+21
-32.2001  1.12873e+21
-32.0828  1.15481e+21
-31.9655  1.18286e+21
-31.8482  1.21213e+21
-31.7309  1.24054e+21
-31.6136  1.26527e+21
-31.4963  1.28249e+21
-31.379  1.28839e+21
-31.2617  1.28048e+21
-31.1444  1.25787e+21
-31.0271  1.22239e+21
-30.9098  1.17896e+21
-30.7925  1.13433e+21
-30.6752  1.09684e+21
-30.5579  1.07409e+21
-30.4406  1.07265e+21
-30.3232  1.09566e+21
-30.2059  1.14323e+21
-30.0886  1.21172e+21
-29.9713  1.29463e+21
-29.854  1.38419e+21
-29.7367  1.47195e+21
-29.6194  1.55049e+21
-29.5021  1.61447e+21
-29.3848  1.66054e+21
-29.2675  1.6878e+21
-29.1502  1.69684e+21
-29.0329  1.68966e+21
-28.9156  1.66853e+21
-28.7983  1.63625e+21
-28.681  1.59578e+21
-28.5637  1.55037e+21
-28.4464  1.50399e+21
-28.3291  1.46188e+21
-28.2118  1.42975e+21
-28.0944  1.41384e+21
-27.9771  1.42026e+21
-27.8598  1.45312e+21
-27.7425  1.51452e+21
-27.6252  1.60242e+21
-27.5079  1.71207e+21
-27.3906  1.83484e+21
-27.2733  1.96034e+21
-27.156  2.07742e+21
-27.0387  2.17605e+21
-26.9214  2.2495e+21
-26.8041  2.29502e+21
-26.6868  2.31445e+21
-26.5695  2.31415e+21
-26.4522  2.30409e+21
-26.3349  2.29581e+21
-26.2176  2.30143e+21
-26.1003  2.33151e+21
-25.983  2.39431e+21
-25.8657  2.4944e+21
-25.7483  2.63328e+21
-25.631  2.80909e+21
-25.5137  3.01756e+21
-25.3964  3.25224e+21
-25.2791  3.50528e+21
-25.1618  3.76799e+21
-25.0445  4.03087e+21
-24.9272  4.2838e+21
-24.8099  4.51719e+21
-24.6926  4.7217e+21
-24.5753  4.88971e+21
-24.458  5.01592e+21
-24.3407  5.0993e+21
-24.2234  5.14271e+21
-24.1061  5.15384e+21
-23.9888  5.14506e+21
-23.8715  5.13158e+21
-23.7542  5.13041e+21
-23.6369  5.15827e+21
-23.5196  5.22902e+21
-23.4023  5.35286e+21
-23.2849  5.53403e+21
-23.1676  5.77138e+21
-23.0503  6.05926e+21
-22.933  6.38739e+21
-22.8157  6.74434e+21
-22.6984  7.11722e+21
-22.5811  7.4953e+21
-22.4638  7.86915e+21
-22.3465  8.23238e+21
-22.2292  8.58096e+21
-22.1119  8.91318e+21
-21.9946  9.22817e+21
-21.8773  9.5273e+21
-21.76  9.81218e+21
-21.6427  1.00851e+22
-21.5254  1.03501e+22
-21.4081  1.0612e+22
-21.2908  1.08769e+22
-21.1735  1.11519e+22
-21.0561  1.14443e+22
-20.9388  1.17607e+22
-20.8215  1.2106e+22
-20.7042  1.24834e+22
-20.5869  1.28917e+22
-20.4696  1.33287e+22
-20.3523  1.37889e+22
-20.235  1.42663e+22
-20.1177  1.4755e+22
-20.0004  1.52509e+22
-19.8831  1.57519e+22
-19.7658  1.6258e+22
-19.6485  1.6772e+22
-19.5312  1.7297e+22
-19.4139  1.78367e+22
-19.2966  1.83934e+22
-19.1793  1.89669e+22
-19.062  1.95551e+22
-18.9447  2.01539e+22
-18.8274  2.07575e+22
-18.71  2.13603e+22
-18.5927  2.19572e+22
-18.4754  2.25448e+22
-18.3581  2.31222e+22
-18.2408  2.36898e+22
-18.1235  2.42492e+22
-18.0062  2.48026e+22
-17.8889  2.53526e+22
-17.7716  2.59003e+22
-17.6543  2.64469e+22
-17.537  2.69927e+22
-17.4197  2.75391e+22
-17.3024  2.80871e+22
-17.1851  2.86398e+22
-17.0678  2.92005e+22
-16.9505  2.97731e+22
-16.8332  3.03606e+22
-16.7159  3.0964e+22
-16.5986  3.15818e+22
-16.4813  3.22086e+22
-16.364  3.28367e+22
-16.2466  3.34556e+22
-16.1293  3.40544e+22
-16.012  3.46234e+22
-15.8947  3.51558e+22
-15.7774  3.56492e+22
-15.6601  3.61058e+22
-15.5428  3.65323e+22
-15.4255  3.69386e+22
-15.3082  3.73371e+22
-15.1909  3.77394e+22
-15.0736  3.81561e+22
-14.9563  3.85954e+22
-14.839  3.90615e+22
-14.7217  3.95563e+22
-14.6044  4.00786e+22
-14.4871  4.06251e+22
-14.3698  4.11913e+22
-14.2525  4.17716e+22
-14.1352  4.23599e+22
-14.0178  4.29488e+22
-13.9005  4.35308e+22
-13.7832  4.4097e+22
-13.6659  4.46388e+22
-13.5486  4.51484e+22
-13.4313  4.56201e+22
-13.314  4.60515e+22
-13.1967  4.64441e+22
-13.0794  4.68046e+22
-12.9621  4.71438e+22
-12.8448  4.74759e+22
-12.7275  4.7817e+22
-12.6102  4.81829e+22
-12.4929  4.85866e+22
-12.3756  4.90369e+22
-12.2583  4.95373e+22
-12.141  5.0086e+22
-12.0237  5.06758e+22
-11.9064  5.12963e+22
-11.7891  5.19352e+22
-11.6718  5.25798e+22
-11.5544  5.32188e+22
-11.4371  5.38422e+22
-11.3198  5.44433e+22
-11.2025  5.50173e+22
-11.0852  5.55617e+22
-10.9679  5.60757e+22
-10.8506  5.65598e+22
-10.7333  5.7016e+22
-10.616  5.74483e+22
-10.4987  5.78616e+22
-10.3814  5.8263e+22
-10.2641  5.86608e+22
-10.1468  5.90633e+22
-10.0295  5.94792e+22
-9.91217  5.99151e+22
-9.79487  6.03742e+22
-9.67756  6.08566e+22
-9.56026  6.13586e+22
-9.44295  6.18723e+22
-9.32565  6.23881e+22
-9.20834  6.28949e+22
-9.09104  6.33832e+22
-8.97373  6.38453e+22
-8.85643  6.42781e+22
-8.73913  6.46819e+22
-8.62182  6.50614e+22
-8.50452  6.5424e+22
-8.38721  6.57786e+22
-8.26991  6.61349e+22
-8.1526  6.65005e+22
-8.03529  6.68815e+22
-7.91799  6.72807e+22
-7.80069  6.76992e+22
-7.68338  6.81346e+22
-7.56608  6.85842e+22
-7.44877  6.90437e+22
-7.33146  6.95078e+22
-7.21416  6.99714e+22
-7.09685  7.04283e+22
-6.97955  7.08727e+22
-6.86224  7.12984e+22
-6.74494  7.16985e+22
-6.62763  7.20682e+22
-6.51033  7.24037e+22
-6.39302  7.27042e+22
-6.27572  7.2972e+22
-6.15842  7.32134e+22
-6.04111  7.34373e+22
-5.92381  7.36563e+22
-5.8065  7.38824e+22
-5.68919  7.41276e+22
-5.57189  7.44007e+22
-5.45458  7.47064e+22
-5.33728  7.5045e+22
-5.21997  7.54113e+22
-5.10267  7.57971e+22
-4.98536  7.61908e+22
-4.86806  7.65815e+22
-4.75075  7.69587e+22
-4.63345  7.73148e+22
-4.51614  7.76453e+22
-4.39884  7.79495e+22
-4.28154  7.82284e+22
-4.16423  7.8486e+22
-4.04692  7.87262e+22
-3.92962  7.89533e+22
-3.81231  7.91706e+22
-3.69501  7.93806e+22
-3.5777  7.95856e+22
-3.4604  7.97874e+22
-3.34309  7.99876e+22
-3.22579  8.0188e+22
-3.10849  8.03899e+22
-2.99118  8.05935e+22
-2.87387  8.07984e+22
-2.75657  8.10019e+22
-2.63926  8.11991e+22
-2.52196  8.13843e+22
-2.40465  8.15508e+22
-2.28735  8.16932e+22
-2.17005  8.18076e+22
-2.05274  8.18934e+22
-1.93544  8.19535e+22
-1.81813  8.19949e+22
-1.70083  8.20264e+22
-1.58352  8.20583e+22
-1.46622  8.21004e+22
-1.34891  8.21599e+22
-1.2316  8.22407e+22
-1.1143  8.23428e+22
-0.996995  8.24625e+22
-0.87969  8.25934e+22
-0.762385  8.27272e+22
-0.64508  8.28562e+22
-0.527775  8.29726e+22
-0.41047  8.30712e+22
-0.293165  8.31482e+22
-0.17586  8.32013e+22
-0.058555  8.32292e+22
0.05875  8.32315e+22
0.176055  8.32078e+22
0.29336  8.31585e+22
0.410665  8.30844e+22
0.52797  8.29881e+22
0.645275  8.28739e+22
0.76258  8.27485e+22
0.879885  8.26192e+22
0.99719  8.24952e+22
1.1145  8.23845e+22
1.2318  8.22931e+22
1.3491  8.22242e+22
1.46641  8.21768e+22
1.58371  8.21457e+22
1.70102  8.21227e+22
1.81832  8.2098e+22
1.93563  8.2061e+22
2.05294  8.20034e+22
2.17024  8.19193e+22
2.28754  8.18068e+22
2.40485  8.16671e+22
2.52216  8.15047e+22
2.63946  8.13252e+22
2.75677  8.11348e+22
2.87407  8.0939e+22
2.99137  8.07416e+22
3.10868  8.05446e+22
3.22599  8.03487e+22
3.34329  8.01534e+22
3.4606  7.99575e+22
3.5779  7.97598e+22
3.69521  7.95591e+22
3.81251  7.9354e+22
3.92982  7.91424e+22
4.04712  7.89214e+22
4.16443  7.86869e+22
4.28173  7.84344e+22
4.39903  7.81594e+22
4.51634  7.78583e+22
4.63364  7.75298e+22
4.75095  7.7176e+22
4.86825  7.68015e+22
4.98556  7.64158e+22
5.10286  7.6029e+22
5.22017  7.56533e+22
5.33748  7.5299e+22
5.45478  7.49741e+22
5.57209  7.46818e+22
5.68939  7.44209e+22
5.8067  7.41853e+22
5.924  7.39655e+22
6.0413  7.37492e+22
6.15861  7.35243e+22
6.27591  7.32797e+22
6.39322  7.30071e+22
6.51052  7.27018e+22
6.62783  7.23619e+22
6.74514  7.19892e+22
6.86244  7.15877e+22
6.97975  7.11624e+22
7.09705  7.07191e+22
7.21436  7.02641e+22
7.33166  6.9803e+22
7.44897  6.93419e+22
7.56627  6.8886e+22
7.68358  6.84409e+22
7.80088  6.80109e+22
7.91819  6.75996e+22
8.03549  6.72084e+22
8.1528  6.68359e+22
8.2701  6.64786e+22
8.38741  6.61299e+22
8.50471  6.57804e+22
8.62202  6.54213e+22
8.73932  6.50432e+22
8.85662  6.46389e+22
8.97393  6.42053e+22
9.09123  6.37428e+22
9.20854  6.32556e+22
9.32584  6.27523e+22
9.44315  6.22426e+22
9.56045  6.17369e+22
9.67776  6.12446e+22
9.79506  6.07718e+22
9.91237  6.03214e+22
10.0297  5.98924e+22
10.147  5.94806e+22
10.2643  5.90794e+22
10.3816  5.86809e+22
10.4989  5.8277e+22
10.6162  5.78602e+22
10.7335  5.74244e+22
10.8508  5.69651e+22
10.9681  5.64782e+22
11.0854  5.59621e+22
11.2027  5.54159e+22
11.32  5.48401e+22
11.4373  5.42377e+22
11.5546  5.36138e+22
11.6719  5.2976e+22
11.7893  5.23344e+22
11.9066  5.17011e+22
12.0239  5.10889e+22
12.1412  5.05098e+22
12.2585  4.99737e+22
12.3758  4.9486e+22
12.4931  4.9047e+22
12.6104  4.86519e+22
12.7277  4.82906e+22
12.845  4.79487e+22
12.9623  4.76111e+22
13.0796  4.72622e+22
13.1969  4.68889e+22
13.3142  4.64818e+22
13.4315  4.60359e+22
13.5488  4.55508e+22
13.6661  4.50301e+22
13.7834  4.44804e+22
13.9007  4.39091e+22
14.018  4.33249e+22
14.1354  4.2736e+22
14.2527  4.21501e+22
14.37  4.15742e+22
14.4873  4.10147e+22
14.6046  4.04768e+22
14.7219  3.99649e+22
14.8392  3.9482e+22
14.9565  3.90282e+22
15.0738  3.86014e+22
15.1911  3.8195e+22
15.3084  3.78005e+22
15.4257  3.74063e+22
15.543  3.69999e+22
15.6603  3.65695e+22
15.7776  3.61058e+22
15.8949  3.56034e+22
16.0122  3.50614e+22
16.1295  3.4484e+22
16.2468  3.3879e+22
16.3641  3.32571e+22
16.4815  3.26291e+22
16.5988  3.20048e+22
16.7161  3.13918e+22
16.8334  3.07945e+22
16.9507  3.02135e+22
17.068  2.96476e+22
17.1853  2.90935e+22
17.3026  2.85477e+22
17.4199  2.80071e+22
17.5372  2.74689e+22
17.6545  2.69317e+22
17.7718  2.63942e+22
17.8891  2.58549e+22
18.0064  2.53119e+22
18.1237  2.47628e+22
18.241  2.42047e+22
18.3583  2.36348e+22
18.4756  2.30515e+22
18.5929  2.2455e+22
18.7102  2.18472e+22
18.8275  2.1233e+22
18.9449  2.06182e+22
19.0622  2.00089e+22
19.1795  1.94116e+22
19.2968  1.883e+22
19.4141  1.82661e+22
19.5314  1.77192e+22
19.6487  1.71866e+22
19.766  1.66649e+22
19.8833  1.61503e+22
20.0006  1.56409e+22
20.1179  1.51371e+22
20.2352  1.46411e+22
20.3525  1.41574e+22
20.4698  1.36922e+22
20.5871  1.32505e+22
20.7044  1.28367e+22
20.8217  1.24528e+22
20.939  1.20985e+22
21.0563  1.17703e+22
21.1736  1.14631e+22
21.291  1.11706e+22
21.4083  1.08862e+22
21.5256  1.06045e+22
21.6429  1.03199e+22
21.7602  1.00288e+22
21.8775  9.72787e+21
21.9948  9.41504e+21
22.1121  9.08853e+21
22.2294  8.74715e+21
22.3467  8.39108e+21
22.464  8.02212e+21
22.5813  7.64421e+21
22.6986  7.26448e+21
22.8159  6.89205e+21
22.9332  6.53874e+21
23.0505  6.21682e+21
23.1678  5.938e+21
23.2851  5.71087e+21
23.4024  5.54052e+21
23.5198  5.42617e+21
23.6371  5.36205e+21
23.7544  5.33646e+21
23.8717  5.33504e+21
23.989  5.34102e+21
24.1063  5.33801e+21
24.2236  5.31145e+21
24.3409  5.25107e+21
24.4582  5.15058e+21
24.5755  5.00819e+21
24.6928  4.82643e+21
24.8101  4.61079e+21
24.9274  4.36901e+21
25.0447  4.10998e+21
25.162  3.8436e+21
25.2793  3.57922e+21
25.3966  3.32616e+21
25.5139  3.09318e+21
25.6312  2.88816e+21
25.7485  2.71717e+21
25.8658  2.58445e+21
25.9832  2.49085e+21
26.1005  2.43447e+21
26.2178  2.40908e+21
26.3351  2.40582e+21
26.4524  2.41299e+21
26.5697  2.41833e+21
26.687  2.4102e+21
26.8043  2.37949e+21
26.9216  2.32103e+21
27.0389  2.23432e+21
27.1562  2.12343e+21
27.2735  1.99644e+21
27.3908  1.86356e+21
27.5081  1.73605e+21
27.6254  1.62393e+21
27.7427  1.53485e+21
27.86  1.47309e+21
27.9773  1.43961e+21
28.0946  1.43206e+21
28.212  1.44613e+21
28.3293  1.47642e+21
28.4466  1.51683e+21
28.5639  1.56239e+21
28.6812  1.60823e+21
28.7985  1.65025e+21
28.9158  1.68476e+21
29.0331  1.70841e+21
29.1504  1.71773e+21
29.2677  1.7097e+21
29.385  1.68218e+21
29.5023  1.63459e+21
29.6196  1.56829e+21
29.7369  1.48743e+21
29.8542  1.39816e+21
29.9715  1.30856e+21
30.0888  1.22707e+21
30.2061  1.1617e+21
30.3234  1.11819e+21
30.4407  1.09921e+21
30.558  1.10379e+21
30.6754  1.12787e+21
30.7927  1.16485e+21
30.91  1.20664e+21
31.0273  1.24549e+21
31.1446  1.27553e+21
31.2619  1.29274e+21
31.3792  1.29619e+21
31.4965  1.28696e+21
31.6138  1.2681e+21
31.7311  1.24307e+21
31.8484  1.21514e+21
31.9657  1.18689e+21
32.083  1.15944e+21
32.2003  1.13384e+21
32.3176  1.11044e+21
32.4349  1.08988e+21
32.5522  1.07348e+21
32.6695  1.06327e+21
32.7868  1.06142e+21
32.9042  1.06946e+21
33.0215  1.08791e+21
33.1388  1.11493e+21
33.2561  1.14696e+21
33.3734  1.17826e+21
33.4907  1.20201e+21
33.608  1.21192e+21
33.7253  1.203e+21
33.8426  1.17329e+21
33.9599  1.12425e+21
34.0772  1.06062e+21
34.1945  9.89685e+20
34.3118  9.20137e+20
34.4291  8.60215e+20
34.5464  8.16437e+20
34.6637  7.92565e+20
34.781  7.8903e+20
34.8983  8.03603e+20
35.0156  8.31676e+20
35.1329  8.68267e+20
35.2503  9.082e+20
35.3676  9.47833e+20
35.4849  9.84611e+20
35.6022  1.01763e+21
35.7195  1.04631e+21
35.8368  1.07066e+21
35.9541  1.08941e+21
36.0714  1.10116e+21
36.1887  1.10343e+21
36.306  1.09407e+21
36.4233  1.07141e+21
36.5406  1.03562e+21
36.6579  9.88528e+20
36.7752  9.34293e+20
36.8925  8.78343e+20
37.0098  8.26664e+20
37.1271  7.84491e+20
37.2444  7.55214e+20
37.3617  7.39775e+20
37.479  7.36582e+20
37.5964  7.41571e+20
37.7137  7.49919e+20
37.831  7.56356e+20
37.9483  7.57142e+20
38.0656  7.50358e+20
38.1829  7.36181e+20
38.3002  7.16971e+20
38.4175  6.96151e+20
38.5348  6.7732e+20
38.6521  6.63505e+20
38.7694  6.56299e+20
38.8867  6.55506e+20
39.004  6.59975e+20
39.1213  6.6746e+20
39.2386  6.7602e+20
39.3559  6.84113e+20
39.4732  6.91423e+20
39.5905  6.98274e+20
39.7078  7.05567e+20
39.8251  7.14105e+20
39.9425  7.24048e+20
40.0598  7.34174e+20
40.1771  7.42327e+20
40.2944  7.45151e+20
40.4117  7.39589e+20
40.529  7.23121e+20
40.6463  6.94957e+20
40.7636  6.56263e+20
40.8809  6.10311e+20
40.9982  5.62111e+20
41.1155  5.17332e+20
41.2328  4.81445e+20
41.3501  4.58388e+20
41.4674  4.50191e+20
41.5847  4.56372e+20
41.702  4.74587e+20
41.8193  5.00623e+20
41.9366  5.30037e+20
42.0539  5.58597e+20
42.1712  5.83126e+20
42.2885  6.02101e+20
42.4059  6.15455e+20
42.5232  6.24128e+20
42.6405  6.29835e+20
42.7578  6.33798e+20
42.8751  6.36864e+20
42.9924  6.38957e+20
43.1097  6.39473e+20
43.227  6.37138e+20
43.3443  6.31132e+20
43.4616  6.21177e+20
43.5789  6.07754e+20
43.6962  5.92526e+20
43.8135  5.77666e+20
43.9308  5.65292e+20
44.0481  5.57138e+20
44.1654  5.53853e+20
44.2827  5.54614e+20
44.4  5.57417e+20
44.5173  5.59535e+20
44.6347  5.58005e+20
44.752  5.50725e+20
44.8693  5.37071e+20
44.9866  5.18024e+20
45.1039  4.96297e+20
45.2212  4.75964e+20
45.3385  4.61428e+20
45.4558  4.56224e+20
45.5731  4.62447e+20
45.6904  4.80072e+20
45.8077  5.06805e+20
45.925  5.38584e+20
46.0423  5.7049e+20
46.1596  5.97732e+20
46.2769  6.16957e+20
46.3942  6.26809e+20
46.5115  6.28144e+20
46.6288  6.23785e+20
46.7461  6.17801e+20
46.8634  6.14321e+20
46.9808  6.16326e+20
47.0981  6.25219e+20
47.2154  6.40097e+20
47.3327  6.585e+20
47.45  6.76625e+20
47.5673  6.90588e+20
47.6846  6.97389e+20
47.8019  6.95729e+20
47.9192  6.85775e+20
48.0365  6.69548e+20
48.1538  6.49771e+20
48.2711  6.28917e+20
48.3884  6.09001e+20
48.5057  5.90599e+20
48.623  5.72926e+20
48.7403  5.54523e+20
48.8576  5.33903e+20
48.9749  5.10315e+20
49.0922  4.84404e+20
49.2095  4.58683e+20
49.3269  4.36707e+20
49.4442  4.22486e+20
49.5615  4.19478e+20
49.6788  4.29441e+20
49.7961  4.51947e+20
49.9134  4.8398e+20
50.0307  5.20803e+20
50.148  5.56628e+20
50.2653  5.86264e+20
50.3826  6.05963e+20
50.4999  6.14522e+20
50.6172  6.13074e+20
50.7345  6.05123e+20
50.8518  5.94943e+20
