#S 1 spectral density
#N 2
#UFWHM 23.6956
#L  abscissas [um]  spectral density
-58.5938  3.23843e+20
-58.4764  3.33162e+20
-58.3591  3.44548e+20
-58.2418  3.59494e+20
-58.1245  3.79042e+20
-58.0072  4.0349e+20
-57.8899  4.31701e+20
-57.7726  4.6162e+20
-57.6553  4.89904e+20
-57.538  5.13077e+20
-57.4207  5.27918e+20
-57.3034  5.32253e+20
-57.1861  5.25306e+20
-57.0688  5.08298e+20
-56.9515  4.83566e+20
-56.8342  4.54609e+20
-56.7169  4.25191e+20
-56.5996  3.98575e+20
-56.4823  3.76808e+20
-56.365  3.60615e+20
-56.2477  3.49311e+20
-56.1303  3.41382e+20
-56.013  3.35027e+20
-55.8957  3.28853e+20
-55.7784  3.22659e+20
-55.6611  3.17402e+20
-55.5438  3.1527e+20
-55.4265  3.18966e+20
-55.3092  3.31115e+20
-55.1919  3.53373e+20
-55.0746  3.85594e+20
-54.9573  4.25824e+20
-54.84  4.70273e+20
-54.7227  5.14257e+20
-54.6054  5.52655e+20
-54.4881  5.81182e+20
-54.3708  5.97427e+20
-54.2535  6.00726e+20
-54.1362  5.92644e+20
-54.0189  5.76052e+20
-53.9016  5.546e+20
-53.7842  5.31458e+20
-53.6669  5.09156e+20
-53.5496  4.88668e+20
-53.4323  4.69618e+20
-53.315  4.51197e+20
-53.1977  4.32512e+20
-53.0804  4.1337e+20
-52.9631  3.94791e+20
-52.8458  3.78886e+20
-52.7285  3.6866e+20
-52.6112  3.66804e+20
-52.4939  3.75015e+20
-52.3766  3.93491e+20
-52.2593  4.20181e+20
-52.142  4.50965e+20
-52.0247  4.80892e+20
-51.9074  5.04858e+20
-51.7901  5.1902e+20
-51.6728  5.21562e+20
-51.5555  5.13228e+20
-51.4381  4.97182e+20
-51.3208  4.78088e+20
-51.2035  4.60607e+20
-51.0862  4.48684e+20
-50.9689  4.44249e+20
-50.8516  4.46685e+20
-50.7343  4.53118e+20
-50.617  4.59441e+20
-50.4997  4.61172e+20
-50.3824  4.54916e+20
-50.2651  4.39304e+20
-50.1478  4.15458e+20
-50.0305  3.86399e+20
-49.9132  3.56677e+20
-49.7959  3.30911e+20
-49.6786  3.12786e+20
-49.5613  3.04267e+20
-49.444  3.05325e+20
-49.3267  3.14042e+20
-49.2094  3.27477e+20
-49.092  3.42672e+20
-48.9747  3.57596e+20
-48.8574  3.7131e+20
-48.7401  3.84277e+20
-48.6228  3.97935e+20
-48.5055  4.13718e+20
-48.3882  4.32207e+20
-48.2709  4.52662e+20
-48.1536  4.72562e+20
-48.0363  4.88389e+20
-47.919  4.95952e+20
-47.8017  4.91809e+20
-47.6844  4.74351e+20
-47.5671  4.44101e+20
-47.4498  4.04246e+20
-47.3325  3.5993e+20
-47.2152  3.17262e+20
-47.0979  2.82086e+20
-46.9806  2.58703e+20
-46.8633  2.49062e+20
-46.7459  2.52441e+20
-46.6286  2.6583e+20
-46.5113  2.84728e+20
-46.394  3.04356e+20
-46.2767  3.20771e+20
-46.1594  3.31746e+20
-46.0421  3.36858e+20
-45.9248  3.37798e+20
-45.8075  3.37066e+20
-45.6902  3.37469e+20
-45.5729  3.41095e+20
-45.4556  3.48639e+20
-45.3383  3.59293e+20
-45.221  3.70898e+20
-45.1037  3.80566e+20
-44.9864  3.8572e+20
-44.8691  3.84725e+20
-44.7518  3.77444e+20
-44.6345  3.65179e+20
-44.5172  3.50691e+20
-44.3998  3.37323e+20
-44.2825  3.28261e+20
-44.1652  3.25797e+20
-44.0479  3.30582e+20
-43.9306  3.4201e+20
-43.8133  3.58045e+20
-43.696  3.75891e+20
-43.5787  3.93004e+20
-43.4614  4.07287e+20
-43.3441  4.1804e+20
-43.2268  4.25718e+20
-43.1095  4.31774e+20
-42.9922  4.38287e+20
-42.8749  4.46932e+20
-42.7576  4.58549e+20
-42.6403  4.72917e+20
-42.523  4.88299e+20
-42.4057  5.02185e+20
-42.2884  5.11575e+20
-42.171  5.14008e+20
-42.0537  5.08022e+20
-41.9364  4.93802e+20
-41.8191  4.72856e+20
-41.7018  4.48157e+20
-41.5845  4.23271e+20
-41.4672  4.01568e+20
-41.3499  3.85504e+20
-41.2326  3.76382e+20
-41.1153  3.73761e+20
-40.998  3.76247e+20
-40.8807  3.81767e+20
-40.7634  3.88435e+20
-40.6461  3.95056e+20
-40.5288  4.01681e+20
-40.4115  4.09592e+20
-40.2942  4.20831e+20
-40.1769  4.37594e+20
-40.0596  4.61574e+20
-39.9423  4.92759e+20
-39.825  5.29991e+20
-39.7076  5.70229e+20
-39.5903  6.09657e+20
-39.473  6.4402e+20
-39.3557  6.69729e+20
-39.2384  6.84748e+20
-39.1211  6.88687e+20
-39.0038  6.83001e+20
-38.8865  6.70538e+20
-38.7692  6.54516e+20
-38.6519  6.3792e+20
-38.5346  6.22616e+20
-38.4173  6.09064e+20
-38.3  5.96682e+20
-38.1827  5.83871e+20
-38.0654  5.69268e+20
-37.9481  5.52313e+20
-37.8308  5.33574e+20
-37.7135  5.15377e+20
-37.5962  5.00795e+20
-37.4789  4.93381e+20
-37.3615  4.96061e+20
-37.2442  5.10198e+20
-37.1269  5.35094e+20
-37.0096  5.67888e+20
-36.8923  6.04196e+20
-36.775  6.38913e+20
-36.6577  6.67251e+20
-36.5404  6.8617e+20
-36.4231  6.94212e+20
-36.3058  6.92506e+20
-36.1885  6.83858e+20
-36.0712  6.71996e+20
-35.9539  6.60412e+20
-35.8366  6.51733e+20
-35.7193  6.46863e+20
-35.602  6.45045e+20
-35.4847  6.44356e+20
-35.3674  6.42569e+20
-35.2501  6.37937e+20
-35.1328  6.3001e+20
-35.0154  6.19967e+20
-34.8981  6.10587e+20
-34.7808  6.05048e+20
-34.6635  6.06609e+20
-34.5462  6.17168e+20
-34.4289  6.36594e+20
-34.3116  6.62839e+20
-34.1943  6.92151e+20
-34.077  7.19692e+20
-33.9597  7.41185e+20
-33.8424  7.53629e+20
-33.7251  7.56374e+20
-33.6078  7.50896e+20
-33.4905  7.40692e+20
-33.3732  7.30488e+20
-33.2559  7.24566e+20
-33.1386  7.25697e+20
-33.0213  7.34933e+20
-32.904  7.50468e+20
-32.7867  7.68613e+20
-32.6693  7.848e+20
-32.552  7.94432e+20
-32.4347  7.94221e+20
-32.3174  7.83075e+20
-32.2001  7.62295e+20
-32.0828  7.35298e+20
-31.9655  7.06741e+20
-31.8482  6.81778e+20
-31.7309  6.64291e+20
-31.6136  6.56938e+20
-31.4963  6.60231e+20
-31.379  6.73333e+20
-31.2617  6.9408e+20
-31.1444  7.20131e+20
-31.0271  7.49412e+20
-30.9098  7.80758e+20
-30.7925  8.13795e+20
-30.6752  8.48461e+20
-30.5579  8.84523e+20
-30.4406  9.21167e+20
-30.3232  9.56288e+20
-30.2059  9.86763e+20
-30.0886  1.0085e+21
-29.9713  1.01766e+21
-29.854  1.01166e+21
-29.7367  9.89704e+20
-29.6194  9.53636e+20
-29.5021  9.07912e+20
-29.3848  8.58929e+20
-29.2675  8.14188e+20
-29.1502  7.80605e+20
-29.0329  7.63623e+20
-28.9156  7.65977e+20
-28.7983  7.87439e+20
-28.681  8.25033e+20
-28.5637  8.74001e+20
-28.4464  9.2816e+20
-28.3291  9.82498e+20
-28.2118  1.03278e+21
-28.0944  1.07694e+21
-27.9771  1.11512e+21
-27.8598  1.14858e+21
-27.7425  1.17969e+21
-27.6252  1.21036e+21
-27.5079  1.24189e+21
-27.3906  1.27444e+21
-27.2733  1.30713e+21
-27.156  1.33843e+21
-27.0387  1.36677e+21
-26.9214  1.39166e+21
-26.8041  1.41358e+21
-26.6868  1.43429e+21
-26.5695  1.4564e+21
-26.4522  1.48276e+21
-26.3349  1.51557e+21
-26.2176  1.55542e+21
-26.1003  1.60126e+21
-25.983  1.65034e+21
-25.8657  1.69789e+21
-25.7483  1.73963e+21
-25.631  1.7713e+21
-25.5137  1.79091e+21
-25.3964  1.79806e+21
-25.2791  1.79526e+21
-25.1618  1.78694e+21
-25.0445  1.77848e+21
-24.9272  1.77557e+21
-24.8099  1.78316e+21
-24.6926  1.80446e+21
-24.5753  1.84056e+21
-24.458  1.89084e+21
-24.3407  1.95358e+21
-24.2234  2.02598e+21
-24.1061  2.10567e+21
-23.9888  2.19115e+21
-23.8715  2.28105e+21
-23.7542  2.37471e+21
-23.6369  2.47174e+21
-23.5196  2.57096e+21
-23.4023  2.6701e+21
-23.2849  2.76657e+21
-23.1676  2.85636e+21
-23.0503  2.93662e+21
-22.933  3.0042e+21
-22.8157  3.05979e+21
-22.6984  3.10523e+21
-22.5811  3.14602e+21
-22.4638  3.18968e+21
-22.3465  3.24477e+21
-22.2292  3.32026e+21
-22.1119  3.42326e+21
-21.9946  3.55798e+21
-21.8773  3.72524e+21
-21.76  3.92253e+21
-21.6427  4.14356e+21
-21.5254  4.38069e+21
-21.4081  4.62512e+21
-21.2908  4.86896e+21
-21.1735  5.1055e+21
-21.0561  5.33026e+21
-20.9388  5.54109e+21
-20.8215  5.73727e+21
-20.7042  5.91979e+21
-20.5869  6.09009e+21
-20.4696  6.25049e+21
-20.3523  6.40345e+21
-20.235  6.55236e+21
-20.1177  6.70112e+21
-20.0004  6.85479e+21
-19.8831  7.01887e+21
-19.7658  7.19916e+21
-19.6485  7.4015e+21
-19.5312  7.62903e+21
-19.4139  7.88291e+21
-19.2966  8.16086e+21
-19.1793  8.45708e+21
-19.062  8.76251e+21
-18.9447  9.06728e+21
-18.8274  9.36094e+21
-18.71  9.63487e+21
-18.5927  9.88442e+21
-18.4754  1.01085e+22
-18.3581  1.03114e+22
-18.2408  1.05016e+22
-18.1235  1.06907e+22
-18.0062  1.08911e+22
-17.8889  1.11161e+22
-17.7716  1.13771e+22
-17.6543  1.16833e+22
-17.537  1.20412e+22
-17.4197  1.24548e+22
-17.3024  1.2925e+22
-17.1851  1.3452e+22
-17.0678  1.4033e+22
-16.9505  1.46634e+22
-16.8332  1.53374e+22
-16.7159  1.60457e+22
-16.5986  1.67774e+22
-16.4813  1.75186e+22
-16.364  1.82553e+22
-16.2466  1.89727e+22
-16.1293  1.96586e+22
-16.012  2.03036e+22
-15.8947  2.09041e+22
-15.7774  2.14621e+22
-15.6601  2.19848e+22
-15.5428  2.24848e+22
-15.4255  2.29767e+22
-15.3082  2.34771e+22
-15.1909  2.39999e+22
-15.0736  2.45562e+22
-14.9563  2.51529e+22
-14.839  2.57917e+22
-14.7217  2.64699e+22
-14.6044  2.7182e+22
-14.4871  2.79196e+22
-14.3698  2.86736e+22
-14.2525  2.9435e+22
-14.1352  3.0195e+22
-14.0178  3.09454e+22
-13.9005  3.16792e+22
-13.7832  3.23896e+22
-13.6659  3.30705e+22
-13.5486  3.37178e+22
-13.4313  3.4329e+22
-13.314  3.49044e+22
-13.1967  3.54476e+22
-13.0794  3.59656e+22
-12.9621  3.64685e+22
-12.8448  3.69682e+22
-12.7275  3.74771e+22
-12.6102  3.80061e+22
-12.4929  3.85634e+22
-12.3756  3.91523e+22
-12.2583  3.97725e+22
-12.141  4.04185e+22
-12.0237  4.10817e+22
-11.9064  4.17522e+22
-11.7891  4.24195e+22
-11.6718  4.30757e+22
-11.5544  4.37146e+22
-11.4371  4.43337e+22
-11.3198  4.49337e+22
-11.2025  4.55173e+22
-11.0852  4.60887e+22
-10.9679  4.66527e+22
-10.8506  4.72137e+22
-10.7333  4.77757e+22
-10.616  4.83422e+22
-10.4987  4.8916e+22
-10.3814  4.94998e+22
-10.2641  5.0097e+22
-10.1468  5.07091e+22
-10.0295  5.13389e+22
-9.91217  5.19866e+22
-9.79487  5.265e+22
-9.67756  5.33252e+22
-9.56026  5.4006e+22
-9.44295  5.46833e+22
-9.32565  5.53479e+22
-9.20834  5.59907e+22
-9.09104  5.66049e+22
-8.97373  5.71866e+22
-8.85643  5.77359e+22
-8.73913  5.82571e+22
-8.62182  5.87577e+22
-8.50452  5.92474e+22
-8.38721  5.97364e+22
-8.26991  6.02349e+22
-8.1526  6.075e+22
-8.03529  6.12868e+22
-7.91799  6.18463e+22
-7.80069  6.24281e+22
-7.68338  6.30282e+22
-7.56608  6.36422e+22
-7.44877  6.42651e+22
-7.33146  6.48914e+22
-7.21416  6.55158e+22
-7.09685  6.61332e+22
-6.97955  6.67382e+22
-6.86224  6.73258e+22
-6.74494  6.78898e+22
-6.62763  6.84254e+22
-6.51033  6.89289e+22
-6.39302  6.93984e+22
-6.27572  6.98349e+22
-6.15842  7.02425e+22
-6.04111  7.06278e+22
-5.92381  7.10009e+22
-5.8065  7.13716e+22
-5.68919  7.17496e+22
-5.57189  7.21427e+22
-5.45458  7.25552e+22
-5.33728  7.29877e+22
-5.21997  7.34364e+22
-5.10267  7.38952e+22
-4.98536  7.43552e+22
-4.86806  7.48085e+22
-4.75075  7.52479e+22
-4.63345  7.56687e+22
-4.51614  7.60687e+22
-4.39884  7.64495e+22
-4.28154  7.68124e+22
-4.16423  7.71622e+22
-4.04692  7.75016e+22
-3.92962  7.78339e+22
-3.81231  7.816e+22
-3.69501  7.84805e+22
-3.5777  7.87952e+22
-3.4604  7.91035e+22
-3.34309  7.9405e+22
-3.22579  7.97008e+22
-3.10849  7.9991e+22
-2.99118  8.0276e+22
-2.87387  8.05561e+22
-2.75657  8.08298e+22
-2.63926  8.10937e+22
-2.52196  8.13436e+22
-2.40465  8.15744e+22
-2.28735  8.17818e+22
-2.17005  8.19624e+22
-2.05274  8.21156e+22
-1.93544  8.22436e+22
-1.81813  8.23519e+22
-1.70083  8.24479e+22
-1.58352  8.25399e+22
-1.46622  8.26353e+22
-1.34891  8.27396e+22
-1.2316  8.28559e+22
-1.1143  8.2983e+22
-0.996995  8.31178e+22
-0.87969  8.3254e+22
-0.762385  8.33855e+22
-0.64508  8.3506e+22
-0.527775  8.36105e+22
-0.41047  8.36961e+22
-0.293165  8.37613e+22
-0.17586  8.38058e+22
-0.058555  8.38297e+22
0.05875  8.38336e+22
0.176055  8.38166e+22
0.29336  8.37789e+22
0.410665  8.37193e+22
0.52797  8.36388e+22
0.645275  8.3539e+22
0.76258  8.34242e+22
0.879885  8.32995e+22
0.99719  8.31719e+22
1.1145  8.30478e+22
1.2318  8.29327e+22
1.3491  8.28295e+22
1.46641  8.27381e+22
1.58371  8.26542e+22
1.70102  8.25716e+22
1.81832  8.24825e+22
1.93563  8.23784e+22
2.05294  8.22524e+22
2.17024  8.21005e+22
2.28754  8.1921e+22
2.40485  8.17156e+22
2.52216  8.14882e+22
2.63946  8.1243e+22
2.75677  8.09853e+22
2.87407  8.07189e+22
2.99137  8.0446e+22
3.10868  8.01674e+22
3.22599  7.98835e+22
3.34329  7.95934e+22
3.4606  7.92967e+22
3.5779  7.89936e+22
3.69521  7.86845e+22
3.81251  7.83703e+22
3.92982  7.8051e+22
4.04712  7.77262e+22
4.16443  7.73936e+22
4.28173  7.70501e+22
4.39903  7.66919e+22
4.51634  7.63152e+22
4.63364  7.59178e+22
4.75095  7.54998e+22
4.86825  7.50637e+22
4.98556  7.46158e+22
5.10286  7.41633e+22
5.22017  7.37151e+22
5.33748  7.32791e+22
5.45478  7.28609e+22
5.57209  7.24625e+22
5.68939  7.20822e+22
5.8067  7.17142e+22
5.924  7.13503e+22
6.0413  7.09802e+22
6.15861  7.05938e+22
6.27591  7.0183e+22
6.39322  6.97413e+22
6.51052  6.92665e+22
6.62783  6.87581e+22
6.74514  6.82192e+22
6.86244  6.76534e+22
6.97975  6.70665e+22
7.09705  6.64632e+22
7.21436  6.5849e+22
7.33166  6.5229e+22
7.44897  6.46083e+22
7.56627  6.39922e+22
7.68358  6.33864e+22
7.80088  6.2796e+22
7.91819  6.22257e+22
8.03549  6.16779e+22
8.1528  6.11529e+22
8.2701  6.06484e+22
8.38741  6.01586e+22
8.50471  5.96744e+22
8.62202  5.91864e+22
8.73932  5.86836e+22
8.85662  5.81568e+22
8.97393  5.76e+22
9.09123  5.70103e+22
9.20854  5.63885e+22
9.32584  5.57402e+22
9.44315  5.50726e+22
9.56045  5.4395e+22
9.67776  5.37165e+22
9.79506  5.30447e+22
9.91237  5.23853e+22
10.0297  5.17416e+22
10.147  5.11148e+22
10.2643  5.05041e+22
10.3816  4.99083e+22
10.4989  4.93247e+22
10.6162  4.87508e+22
10.7335  4.81846e+22
10.8508  4.7623e+22
10.9681  4.70617e+22
11.0854  4.64971e+22
11.2027  4.59244e+22
11.32  4.53384e+22
11.4373  4.47349e+22
11.5546  4.41122e+22
11.6719  4.34703e+22
11.7893  4.28127e+22
11.9066  4.2146e+22
12.0239  4.14794e+22
12.1412  4.0823e+22
12.2585  4.01866e+22
12.3758  3.95774e+22
12.4931  3.8999e+22
12.6104  3.8451e+22
12.7277  3.79284e+22
12.845  3.74217e+22
12.9623  3.692e+22
13.0796  3.64115e+22
13.1969  3.58846e+22
13.3142  3.53311e+22
13.4315  3.4745e+22
13.5488  3.4124e+22
13.6661  3.34688e+22
13.7834  3.27828e+22
13.9007  3.20701e+22
14.018  3.13368e+22
14.1354  3.05896e+22
14.2527  2.98357e+22
14.37  2.9083e+22
14.4873  2.83408e+22
14.6046  2.76173e+22
14.7219  2.69216e+22
14.8392  2.62611e+22
14.9565  2.56404e+22
15.0738  2.50605e+22
15.1911  2.45175e+22
15.3084  2.40036e+22
15.4257  2.35059e+22
15.543  2.30089e+22
15.6603  2.2497e+22
15.7776  2.19559e+22
15.8949  2.13743e+22
16.0122  2.07464e+22
16.1295  2.00727e+22
16.2468  1.93589e+22
16.3641  1.86151e+22
16.4815  1.7855e+22
16.5988  1.70931e+22
16.7161  1.63444e+22
16.8334  1.56218e+22
16.9507  1.49362e+22
17.068  1.42963e+22
17.1853  1.37082e+22
17.3026  1.31764e+22
17.4199  1.27035e+22
17.5372  1.22895e+22
17.6545  1.19327e+22
17.7718  1.16282e+22
17.8891  1.13686e+22
18.0064  1.11437e+22
18.1237  1.09403e+22
18.241  1.07453e+22
18.3583  1.05456e+22
18.4756  1.03298e+22
18.5929  1.00906e+22
18.7102  9.82536e+21
18.8275  9.53605e+21
18.9449  9.22909e+21
19.0622  8.91343e+21
19.1795  8.60046e+21
19.2968  8.29972e+21
19.4141  8.01942e+21
19.5314  7.7643e+21
19.6487  7.53601e+21
19.766  7.33296e+21
19.8833  7.15089e+21
20.0006  6.98471e+21
20.1179  6.82878e+21
20.2352  6.67773e+21
20.3525  6.52685e+21
20.4698  6.37272e+21
20.5871  6.21171e+21
20.7044  6.04077e+21
20.8217  5.85782e+21
20.939  5.66028e+21
21.0563  5.44777e+21
21.1736  5.22051e+21
21.291  4.98121e+21
21.4083  4.73537e+21
21.5256  4.48954e+21
21.6429  4.25272e+21
21.7602  4.0333e+21
21.8775  3.83896e+21
21.9948  3.67472e+21
22.1121  3.54246e+21
22.2294  3.44012e+21
22.3467  3.36248e+21
22.464  3.30182e+21
22.5813  3.24965e+21
22.6986  3.19769e+21
22.8159  3.13911e+21
22.9332  3.07028e+21
23.0505  2.98988e+21
23.1678  2.89924e+21
23.2851  2.80096e+21
23.4024  2.69857e+21
23.5198  2.59522e+21
23.6371  2.49353e+21
23.7544  2.39445e+21
23.8717  2.29898e+21
23.989  2.20753e+21
24.1063  2.12063e+21
24.2236  2.03983e+21
24.3409  1.96747e+21
24.4582  1.90638e+21
24.5755  1.85884e+21
24.6928  1.82674e+21
24.8101  1.80993e+21
24.9274  1.80642e+21
25.0447  1.81216e+21
25.162  1.82181e+21
25.2793  1.8293e+21
25.3966  1.82921e+21
25.5139  1.81786e+21
25.6312  1.79371e+21
25.7485  1.75755e+21
25.8658  1.71256e+21
25.9832  1.66295e+21
26.1005  1.61366e+21
26.2178  1.56822e+21
26.3351  1.52914e+21
26.4524  1.49688e+21
26.5697  1.47027e+21
26.687  1.44687e+21
26.8043  1.4242e+21
26.9216  1.40018e+21
27.0389  1.37352e+21
27.1562  1.34436e+21
27.2735  1.31377e+21
27.3908  1.28307e+21
27.5081  1.25341e+21
27.6254  1.22522e+21
27.7427  1.19744e+21
27.86  1.168e+21
27.9773  1.13467e+21
28.0946  1.09489e+21
28.212  1.04794e+21
28.3293  9.94449e+20
28.4466  9.37381e+20
28.5639  8.81702e+20
28.6812  8.33137e+20
28.7985  7.97499e+20
28.9158  7.79281e+20
29.0331  7.80863e+20
29.1504  8.01239e+20
29.2677  8.36927e+20
29.385  8.82018e+20
29.5023  9.29166e+20
29.6196  9.71326e+20
29.7369  1.00283e+21
29.8542  1.02006e+21
29.9715  1.02197e+21
30.0888  1.00973e+21
30.2061  9.86457e+20
30.3234  9.55611e+20
30.4407  9.20843e+20
30.558  8.84581e+20
30.6754  8.48436e+20
30.7927  8.13148e+20
30.91  7.78847e+20
31.0273  7.45771e+20
31.1446  7.14975e+20
31.2619  6.88289e+20
31.3792  6.68123e+20
31.4965  6.56925e+20
31.6138  6.56619e+20
31.7311  6.67507e+20
31.8484  6.88246e+20
31.9657  7.15734e+20
32.083  7.4508e+20
32.2003  7.71423e+20
32.3176  7.90326e+20
32.4349  7.98981e+20
32.5522  7.96888e+20
32.6695  7.85801e+20
32.7868  7.69743e+20
32.9042  7.53142e+20
33.0215  7.40574e+20
33.1388  7.34812e+20
33.2561  7.36968e+20
33.3734  7.45195e+20
33.4907  7.56061e+20
33.608  7.65127e+20
33.7253  7.68082e+20
33.8426  7.61992e+20
33.9599  7.46146e+20
34.0772  7.22059e+20
34.1945  6.93118e+20
34.3118  6.64081e+20
34.4291  6.39276e+20
34.5464  6.21965e+20
34.6637  6.13415e+20
34.781  6.13012e+20
34.8983  6.18544e+20
35.0156  6.26453e+20
35.1329  6.33988e+20
35.2503  6.38921e+20
35.3676  6.40843e+20
35.4849  6.4101e+20
35.6022  6.4117e+20
35.7195  6.43916e+20
35.8368  6.50665e+20
35.9541  6.61632e+20
36.0714  6.7514e+20
36.1887  6.87993e+20
36.306  6.96407e+20
36.4233  6.96635e+20
36.5406  6.8634e+20
36.6579  6.65172e+20
36.7752  6.34998e+20
36.8925  5.99664e+20
37.0098  5.64203e+20
37.1271  5.33504e+20
37.2444  5.11622e+20
37.3617  5.00689e+20
37.479  5.00655e+20
37.5964  5.09588e+20
37.7137  5.24415e+20
37.831  5.41646e+20
37.9483  5.58674e+20
38.0656  5.73956e+20
38.1829  5.87439e+20
38.3002  6.00235e+20
38.4175  6.13959e+20
38.5348  6.29717e+20
38.6521  6.4768e+20
38.7694  6.66645e+20
38.8867  6.8386e+20
39.004  6.96034e+20
39.1213  6.99779e+20
39.2386  6.92578e+20
39.3559  6.73653e+20
39.4732  6.44137e+20
39.5905  6.06919e+20
39.7078  5.66011e+20
39.8251  5.25758e+20
39.9425  4.8978e+20
40.0598  4.60441e+20
40.1771  4.38444e+20
40.2944  4.22679e+20
40.4117  4.11162e+20
40.529  4.01693e+20
40.6463  3.92603e+20
40.7636  3.83165e+20
40.8809  3.74128e+20
40.9982  3.67332e+20
41.1155  3.65061e+20
41.2328  3.69454e+20
41.3501  3.81547e+20
41.4674  4.00949e+20
41.5847  4.25805e+20
41.702  4.52975e+20
41.8193  4.78545e+20
41.9366  4.9907e+20
42.0539  5.11995e+20
42.1712  5.16234e+20
42.2885  5.12521e+20
42.4059  5.02676e+20
42.5232  4.89554e+20
42.6405  4.76115e+20
42.7578  4.64375e+20
42.8751  4.55265e+20
42.9924  4.4849e+20
43.1097  4.427e+20
43.227  4.35711e+20
43.3443  4.25925e+20
43.4616  4.12261e+20
43.5789  3.94835e+20
43.6962  3.75172e+20
43.8135  3.55813e+20
43.9308  3.39529e+20
44.0481  3.28825e+20
44.1654  3.25277e+20
44.2827  3.28929e+20
44.4  3.38278e+20
44.5173  3.50763e+20
44.6347  3.63079e+20
44.752  3.72338e+20
44.8693  3.76327e+20
44.9866  3.74577e+20
45.1039  3.67862e+20
45.2212  3.58314e+20
45.3385  3.48607e+20
45.4558  3.41178e+20
45.5731  3.37444e+20
45.6904  3.37466e+20
45.8077  3.39662e+20
45.925  3.41598e+20
46.0423  3.40304e+20
46.1596  3.33591e+20
46.2769  3.20575e+20
46.3942  3.02368e+20
46.5115  2.81944e+20
46.6288  2.63763e+20
46.7461  2.52518e+20
46.8634  2.5252e+20
46.9808  2.65885e+20
47.0981  2.92663e+20
47.2154  3.29973e+20
47.3327  3.73273e+20
47.45  4.16445e+20
47.5673  4.53745e+20
47.6846  4.807e+20
47.8019  4.94886e+20
47.9192  4.96213e+20
48.0365  4.87062e+20
48.1538  4.70784e+20
48.2711  4.51145e+20
48.3884  4.31366e+20
48.5057  4.13372e+20
48.623  3.97371e+20
48.7403  3.82526e+20
48.8576  3.67637e+20
48.9749  3.51761e+20
49.0922  3.3487e+20
49.2095  3.18547e+20
49.3269  3.05266e+20
49.4442  2.98116e+20
49.5615  2.99802e+20
49.6788  3.11418e+20
49.7961  3.32511e+20
49.9134  3.60314e+20
50.0307  3.90729e+20
50.148  4.19022e+20
50.2653  4.40986e+20
50.3826  4.54158e+20
50.4999  4.58289e+20
50.6172  4.55479e+20
50.7345  4.49666e+20
50.8518  4.45274e+20
