#S 1 spectral density
#N 2
#UFWHM 33.08
#L  abscissas [um]  spectral density
-58.5938  2.57188e+20
-58.4764  2.77777e+20
-58.3591  2.95731e+20
-58.2418  3.12049e+20
-58.1245  3.27814e+20
-58.0072  3.43906e+20
-57.8899  3.60061e+20
-57.7726  3.75379e+20
-57.6553  3.87964e+20
-57.538  3.95666e+20
-57.4207  3.96747e+20
-57.3034  3.90161e+20
-57.1861  3.76126e+20
-57.0688  3.56185e+20
-56.9515  3.33248e+20
-56.8342  3.10431e+20
-56.7169  2.90925e+20
-56.5996  2.77019e+20
-56.4823  2.69502e+20
-56.365  2.67677e+20
-56.2477  2.69357e+20
-56.1303  2.71484e+20
-56.013  2.7108e+20
-55.8957  2.65795e+20
-55.7784  2.54862e+20
-55.6611  2.39216e+20
-55.5438  2.21539e+20
-55.4265  2.05388e+20
-55.3092  1.94692e+20
-55.1919  1.92667e+20
-55.0746  2.00844e+20
-54.9573  2.19039e+20
-54.84  2.45018e+20
-54.7227  2.75403e+20
-54.6054  3.06068e+20
-54.4881  3.33348e+20
-54.3708  3.54855e+20
-54.2535  3.69547e+20
-54.1362  3.78182e+20
-54.0189  3.82478e+20
-53.9016  3.84418e+20
-53.7842  3.85466e+20
-53.6669  3.86182e+20
-53.5496  3.85785e+20
-53.4323  3.82222e+20
-53.315  3.73386e+20
-53.1977  3.57477e+20
-53.0804  3.34025e+20
-52.9631  3.0423e+20
-52.8458  2.70966e+20
-52.7285  2.38577e+20
-52.6112  2.11367e+20
-52.4939  1.9294e+20
-52.3766  1.85146e+20
-52.2593  1.87746e+20
-52.142  1.98021e+20
-52.0247  2.11941e+20
-51.9074  2.24941e+20
-51.7901  2.32977e+20
-51.6728  2.33945e+20
-51.5555  2.27707e+20
-51.4381  2.16347e+20
-51.3208  2.03408e+20
-51.2035  1.92687e+20
-51.0862  1.87263e+20
-50.9689  1.88512e+20
-50.8516  1.95724e+20
-50.7343  2.06184e+20
-50.617  2.162e+20
-50.4997  2.22079e+20
-50.3824  2.21119e+20
-50.2651  2.12762e+20
-50.1478  1.98531e+20
-50.0305  1.81886e+20
-49.9132  1.6716e+20
-49.7959  1.58517e+20
-49.6786  1.58817e+20
-49.5613  1.68684e+20
-49.444  1.86666e+20
-49.3267  2.09319e+20
-49.2094  2.32236e+20
-49.092  2.51224e+20
-48.9747  2.63363e+20
-48.8574  2.67529e+20
-48.7401  2.64503e+20
-48.6228  2.56737e+20
-48.5055  2.47073e+20
-48.3882  2.38267e+20
-48.2709  2.31775e+20
-48.1536  2.27506e+20
-48.0363  2.24143e+20
-47.919  2.19328e+20
-47.8017  2.10913e+20
-47.6844  1.97654e+20
-47.5671  1.80047e+20
-47.4498  1.6011e+20
-47.3325  1.41395e+20
-47.2152  1.2787e+20
-47.0979  1.22865e+20
-46.9806  1.28332e+20
-46.8633  1.43923e+20
-46.7459  1.67109e+20
-46.6286  1.93707e+20
-46.5113  2.18722e+20
-46.394  2.37567e+20
-46.2767  2.47208e+20
-46.1594  2.46853e+20
-46.0421  2.3791e+20
-45.9248  2.23945e+20
-45.8075  2.09436e+20
-45.6902  1.98903e+20
-45.5729  1.95777e+20
-45.4556  2.01502e+20
-45.3383  2.15653e+20
-45.221  2.35795e+20
-45.1037  2.58364e+20
-44.9864  2.79773e+20
-44.8691  2.96831e+20
-44.7518  3.07919e+20
-44.6345  3.12868e+20
-44.5172  3.12821e+20
-44.3998  3.09731e+20
-44.2825  3.05655e+20
-44.1652  3.02098e+20
-44.0479  2.99238e+20
-43.9306  2.9635e+20
-43.8133  2.91591e+20
-43.696  2.8302e+20
-43.5787  2.68964e+20
-43.4614  2.48843e+20
-43.3441  2.23669e+20
-43.2268  1.95714e+20
-43.1095  1.68473e+20
-42.9922  1.45879e+20
-42.8749  1.31472e+20
-42.7576  1.27726e+20
-42.6403  1.35423e+20
-42.523  1.53751e+20
-42.4057  1.80222e+20
-42.2884  2.11611e+20
-42.171  2.44371e+20
-42.0537  2.75523e+20
-41.9364  3.03108e+20
-41.8191  3.26418e+20
-41.7018  3.45625e+20
-41.5845  3.61559e+20
-41.4672  3.75043e+20
-41.3499  3.86193e+20
-41.2326  3.94502e+20
-41.1153  3.98424e+20
-40.998  3.96156e+20
-40.8807  3.86122e+20
-40.7634  3.67388e+20
-40.6461  3.40743e+20
-40.5288  3.08411e+20
-40.4115  2.7413e+20
-40.2942  2.42545e+20
-40.1769  2.1801e+20
-40.0596  2.04121e+20
-39.9423  2.02292e+20
-39.825  2.1197e+20
-39.7076  2.30281e+20
-39.5903  2.52906e+20
-39.473  2.74881e+20
-39.3557  2.91697e+20
-39.2384  3.00379e+20
-39.1211  2.99837e+20
-39.0038  2.91248e+20
-38.8865  2.77405e+20
-38.7692  2.62003e+20
-38.6519  2.4895e+20
-38.5346  2.41091e+20
-38.4173  2.40145e+20
-38.3  2.46396e+20
-38.1827  2.59089e+20
-38.0654  2.77033e+20
-37.9481  2.9921e+20
-37.8308  3.25215e+20
-37.7135  3.55438e+20
-37.5962  3.90664e+20
-37.4789  4.31516e+20
-37.3615  4.77752e+20
-37.2442  5.27481e+20
-37.1269  5.77191e+20
-37.0096  6.21562e+20
-36.8923  6.5466e+20
-36.775  6.70855e+20
-36.6577  6.65979e+20
-36.5404  6.38695e+20
-36.4231  5.9061e+20
-36.3058  5.26764e+20
-36.1885  4.54497e+20
-36.0712  3.82235e+20
-35.9539  3.1856e+20
-35.8366  2.70262e+20
-35.7193  2.41735e+20
-35.602  2.34733e+20
-35.4847  2.48228e+20
-35.3674  2.79676e+20
-35.2501  3.25508e+20
-35.1328  3.82392e+20
-35.0154  4.47479e+20
-34.8981  5.18908e+20
-34.7808  5.95248e+20
-34.6635  6.74832e+20
-34.5462  7.55432e+20
-34.4289  8.33678e+20
-34.3116  9.05067e+20
-34.1943  9.64685e+20
-34.077  1.00792e+21
-33.9597  1.03165e+21
-33.8424  1.03516e+21
-33.7251  1.02087e+21
-33.6078  9.93865e+20
-33.4905  9.61292e+20
-33.3732  9.31526e+20
-33.2559  9.11686e+20
-33.1386  9.07064e+20
-33.0213  9.19775e+20
-32.904  9.48387e+20
-32.7867  9.88379e+20
-32.6693  1.03337e+21
-32.552  1.07606e+21
-32.4347  1.11035e+21
-32.3174  1.13164e+21
-32.2001  1.13849e+21
-32.0828  1.13158e+21
-31.9655  1.114e+21
-31.8482  1.09003e+21
-31.7309  1.06412e+21
-31.6136  1.04057e+21
-31.4963  1.02277e+21
-31.379  1.01325e+21
-31.2617  1.0142e+21
-31.1444  1.02784e+21
-31.0271  1.05626e+21
-30.9098  1.10224e+21
-30.7925  1.16796e+21
-30.6752  1.25529e+21
-30.5579  1.36393e+21
-30.4406  1.49179e+21
-30.3232  1.63366e+21
-30.2059  1.78188e+21
-30.0886  1.92749e+21
-29.9713  2.0604e+21
-29.854  2.17199e+21
-29.7367  2.25608e+21
-29.6194  2.30981e+21
-29.5021  2.33458e+21
-29.3848  2.33556e+21
-29.2675  2.32089e+21
-29.1502  2.30031e+21
-29.0329  2.28388e+21
-28.9156  2.28079e+21
-28.7983  2.29785e+21
-28.681  2.33992e+21
-28.5637  2.40914e+21
-28.4464  2.50628e+21
-28.3291  2.6305e+21
-28.2118  2.78027e+21
-28.0944  2.9538e+21
-27.9771  3.14861e+21
-27.8598  3.36109e+21
-27.7425  3.58688e+21
-27.6252  3.81949e+21
-27.5079  4.05162e+21
-27.3906  4.27414e+21
-27.2733  4.47871e+21
-27.156  4.65769e+21
-27.0387  4.8059e+21
-26.9214  4.92224e+21
-26.8041  5.00953e+21
-26.6868  5.07477e+21
-26.5695  5.12855e+21
-26.4522  5.18376e+21
-26.3349  5.25351e+21
-26.2176  5.34994e+21
-26.1003  5.48264e+21
-25.983  5.65802e+21
-25.8657  5.87806e+21
-25.7483  6.142e+21
-25.631  6.44555e+21
-25.5137  6.78278e+21
-25.3964  7.14629e+21
-25.2791  7.52808e+21
-25.1618  7.9199e+21
-25.0445  8.31335e+21
-24.9272  8.69967e+21
-24.8099  9.07032e+21
-24.6926  9.41713e+21
-24.5753  9.73247e+21
-24.458  1.00108e+22
-24.3407  1.02498e+22
-24.2234  1.04509e+22
-24.1061  1.06193e+22
-23.9888  1.07655e+22
-23.8715  1.09027e+22
-23.7542  1.1047e+22
-23.6369  1.1215e+22
-23.5196  1.14218e+22
-23.4023  1.16804e+22
-23.2849  1.1999e+22
-23.1676  1.23815e+22
-23.0503  1.28276e+22
-22.933  1.33332e+22
-22.8157  1.38912e+22
-22.6984  1.44925e+22
-22.5811  1.5128e+22
-22.4638  1.57875e+22
-22.3465  1.64612e+22
-22.2292  1.71389e+22
-22.1119  1.78104e+22
-21.9946  1.84647e+22
-21.8773  1.9092e+22
-21.76  1.96822e+22
-21.6427  2.02274e+22
-21.5254  2.07227e+22
-21.4081  2.11669e+22
-21.2908  2.15634e+22
-21.1735  2.19196e+22
-21.0561  2.22474e+22
-20.9388  2.25608e+22
-20.8215  2.28743e+22
-20.7042  2.32021e+22
-20.5869  2.35552e+22
-20.4696  2.39419e+22
-20.3523  2.4366e+22
-20.235  2.48276e+22
-20.1177  2.53236e+22
-20.0004  2.58491e+22
-19.8831  2.63972e+22
-19.7658  2.69603e+22
-19.6485  2.75311e+22
-19.5312  2.8101e+22
-19.4139  2.86624e+22
-19.2966  2.92067e+22
-19.1793  2.97258e+22
-19.062  3.02125e+22
-18.9447  3.06617e+22
-18.8274  3.10703e+22
-18.71  3.14398e+22
-18.5927  3.17752e+22
-18.4754  3.20859e+22
-18.3581  3.23841e+22
-18.2408  3.2684e+22
-18.1235  3.29994e+22
-18.0062  3.3342e+22
-17.8889  3.37198e+22
-17.7716  3.41359e+22
-17.6543  3.45891e+22
-17.537  3.50732e+22
-17.4197  3.55798e+22
-17.3024  3.60987e+22
-17.1851  3.66206e+22
-17.0678  3.71368e+22
-16.9505  3.76413e+22
-16.8332  3.81304e+22
-16.7159  3.86015e+22
-16.5986  3.90543e+22
-16.4813  3.94881e+22
-16.364  3.99037e+22
-16.2466  4.03016e+22
-16.1293  4.06835e+22
-16.012  4.10525e+22
-15.8947  4.14128e+22
-15.7774  4.17713e+22
-15.6601  4.21352e+22
-15.5428  4.25126e+22
-15.4255  4.29106e+22
-15.3082  4.33344e+22
-15.1909  4.37851e+22
-15.0736  4.42607e+22
-14.9563  4.47557e+22
-14.839  4.52612e+22
-14.7217  4.57679e+22
-14.6044  4.6266e+22
-14.4871  4.67484e+22
-14.3698  4.72104e+22
-14.2525  4.76517e+22
-14.1352  4.80743e+22
-14.0178  4.84831e+22
-13.9005  4.88837e+22
-13.7832  4.92821e+22
-13.6659  4.96821e+22
-13.5486  5.00869e+22
-13.4313  5.04972e+22
-13.314  5.09129e+22
-13.1967  5.13328e+22
-13.0794  5.17557e+22
-12.9621  5.21809e+22
-12.8448  5.26075e+22
-12.7275  5.30353e+22
-12.6102  5.34629e+22
-12.4929  5.38882e+22
-12.3756  5.43073e+22
-12.2583  5.47157e+22
-12.141  5.51082e+22
-12.0237  5.54798e+22
-11.9064  5.58276e+22
-11.7891  5.61509e+22
-11.6718  5.64527e+22
-11.5544  5.67393e+22
-11.4371  5.70189e+22
-11.3198  5.73019e+22
-11.2025  5.75981e+22
-11.0852  5.79156e+22
-10.9679  5.82599e+22
-10.8506  5.86325e+22
-10.7333  5.90316e+22
-10.616  5.94529e+22
-10.4987  5.98896e+22
-10.3814  6.03347e+22
-10.2641  6.07819e+22
-10.1468  6.12254e+22
-10.0295  6.16615e+22
-9.91217  6.20873e+22
-9.79487  6.2501e+22
-9.67756  6.29006e+22
-9.56026  6.32847e+22
-9.44295  6.36511e+22
-9.32565  6.39981e+22
-9.20834  6.43241e+22
-9.09104  6.46293e+22
-8.97373  6.49149e+22
-8.85643  6.51848e+22
-8.73913  6.5444e+22
-8.62182  6.56988e+22
-8.50452  6.59555e+22
-8.38721  6.62191e+22
-8.26991  6.64933e+22
-8.1526  6.67789e+22
-8.03529  6.70746e+22
-7.91799  6.73774e+22
-7.80069  6.76834e+22
-7.68338  6.79882e+22
-7.56608  6.82893e+22
-7.44877  6.8586e+22
-7.33146  6.88788e+22
-7.21416  6.91702e+22
-7.09685  6.94632e+22
-6.97955  6.97606e+22
-6.86224  7.00642e+22
-6.74494  7.03737e+22
-6.62763  7.06874e+22
-6.51033  7.1002e+22
-6.39302  7.13134e+22
-6.27572  7.16179e+22
-6.15842  7.19126e+22
-6.04111  7.21958e+22
-5.92381  7.2468e+22
-5.8065  7.273e+22
-5.68919  7.29833e+22
-5.57189  7.32288e+22
-5.45458  7.34663e+22
-5.33728  7.36944e+22
-5.21997  7.39101e+22
-5.10267  7.41103e+22
-4.98536  7.42919e+22
-4.86806  7.44539e+22
-4.75075  7.45973e+22
-4.63345  7.47252e+22
-4.51614  7.48434e+22
-4.39884  7.49591e+22
-4.28154  7.50794e+22
-4.16423  7.52106e+22
-4.04692  7.53567e+22
-3.92962  7.55189e+22
-3.81231  7.5696e+22
-3.69501  7.58841e+22
-3.5777  7.60787e+22
-3.4604  7.62748e+22
-3.34309  7.64685e+22
-3.22579  7.66577e+22
-3.10849  7.68414e+22
-2.99118  7.70199e+22
-2.87387  7.71942e+22
-2.75657  7.73647e+22
-2.63926  7.75305e+22
-2.52196  7.76897e+22
-2.40465  7.78394e+22
-2.28735  7.79759e+22
-2.17005  7.80961e+22
-2.05274  7.81981e+22
-1.93544  7.82817e+22
-1.81813  7.83486e+22
-1.70083  7.84019e+22
-1.58352  7.84452e+22
-1.46622  7.84819e+22
-1.34891  7.85142e+22
-1.2316  7.85425e+22
-1.1143  7.85656e+22
-0.996995  7.85815e+22
-0.87969  7.85877e+22
-0.762385  7.85827e+22
-0.64508  7.8567e+22
-0.527775  7.85428e+22
-0.41047  7.85146e+22
-0.293165  7.8488e+22
-0.17586  7.84684e+22
-0.058555  7.84605e+22
0.05875  7.84661e+22
0.176055  7.8485e+22
0.29336  7.8514e+22
0.410665  7.85479e+22
0.52797  7.85811e+22
0.645275  7.86083e+22
0.76258  7.86261e+22
0.879885  7.86326e+22
0.99719  7.86284e+22
1.1145  7.86156e+22
1.2318  7.85966e+22
1.3491  7.85734e+22
1.46641  7.85466e+22
1.58371  7.8515e+22
1.70102  7.84758e+22
1.81832  7.84255e+22
1.93563  7.83606e+22
2.05294  7.82782e+22
2.17024  7.81774e+22
2.28754  7.80592e+22
2.40485  7.79259e+22
2.52216  7.7781e+22
2.63946  7.76277e+22
2.75677  7.74687e+22
2.87407  7.73054e+22
2.99137  7.71378e+22
3.10868  7.6965e+22
3.22599  7.67862e+22
3.34329  7.66013e+22
3.4606  7.64116e+22
3.5779  7.62201e+22
3.69521  7.60315e+22
3.81251  7.58507e+22
3.92982  7.56826e+22
4.04712  7.55302e+22
4.16443  7.5394e+22
4.28173  7.52718e+22
4.39903  7.51586e+22
4.51634  7.50476e+22
4.63364  7.49315e+22
4.75095  7.48037e+22
4.86825  7.46589e+22
4.98556  7.44952e+22
5.10286  7.4312e+22
5.22017  7.41117e+22
5.33748  7.38971e+22
5.45478  7.36717e+22
5.57209  7.34373e+22
5.68939  7.31951e+22
5.8067  7.29449e+22
5.924  7.26852e+22
6.0413  7.24147e+22
6.15861  7.21329e+22
6.27591  7.18402e+22
6.39322  7.15386e+22
6.51052  7.12319e+22
6.62783  7.09238e+22
6.74514  7.06182e+22
6.86244  7.03178e+22
6.97975  7.00237e+22
7.09705  6.97348e+22
7.21436  6.94489e+22
7.33166  6.91626e+22
7.44897  6.88731e+22
7.56627  6.85784e+22
7.68358  6.82786e+22
7.80088  6.79754e+22
7.91819  6.76723e+22
8.03549  6.73735e+22
8.1528  6.7083e+22
8.2701  6.68034e+22
8.38741  6.65356e+22
8.50471  6.62771e+22
8.62202  6.60244e+22
8.73932  6.57716e+22
8.85662  6.55123e+22
8.97393  6.52411e+22
9.09123  6.49533e+22
9.20854  6.4646e+22
9.32584  6.43183e+22
9.44315  6.39708e+22
9.56045  6.36044e+22
9.67776  6.32214e+22
9.79506  6.28229e+22
9.91237  6.24106e+22
10.0297  6.19858e+22
10.147  6.15509e+22
10.2643  6.11087e+22
10.3816  6.06644e+22
10.4989  6.02236e+22
10.6162  5.97935e+22
10.7335  5.93811e+22
10.8508  5.89928e+22
10.9681  5.86315e+22
11.0854  5.82984e+22
11.2027  5.79903e+22
11.32  5.77004e+22
11.4373  5.74202e+22
11.5546  5.71396e+22
11.6719  5.68491e+22
11.7893  5.6541e+22
11.9066  5.62104e+22
12.0239  5.58559e+22
12.1412  5.54786e+22
12.2585  5.50827e+22
12.3758  5.46728e+22
12.4931  5.42539e+22
12.6104  5.38305e+22
12.7277  5.34053e+22
12.845  5.29803e+22
12.9623  5.25566e+22
13.0796  5.21349e+22
13.1969  5.1716e+22
13.3142  5.13012e+22
13.4315  5.08916e+22
13.5488  5.04881e+22
13.6661  5.00909e+22
13.7834  4.96984e+22
13.9007  4.93067e+22
14.018  4.89108e+22
14.1354  4.85048e+22
14.2527  4.80827e+22
14.37  4.76403e+22
14.4873  4.7176e+22
14.6046  4.66916e+22
14.7219  4.61923e+22
14.8392  4.56862e+22
14.9565  4.51829e+22
15.0738  4.4692e+22
15.1911  4.4221e+22
15.3084  4.3775e+22
15.4257  4.33548e+22
15.543  4.29581e+22
15.6603  4.25794e+22
15.7776  4.22116e+22
15.8949  4.18474e+22
16.0122  4.14794e+22
16.1295  4.11026e+22
16.2468  4.07128e+22
16.3641  4.03079e+22
16.4815  3.9886e+22
16.5988  3.94465e+22
16.7161  3.89891e+22
16.8334  3.85134e+22
16.9507  3.80209e+22
17.068  3.75137e+22
17.1853  3.69964e+22
17.3026  3.64762e+22
17.4199  3.59617e+22
17.5372  3.5463e+22
17.6545  3.49899e+22
17.7718  3.45503e+22
17.8891  3.41486e+22
18.0064  3.37846e+22
18.1237  3.34532e+22
18.241  3.31452e+22
18.3583  3.28477e+22
18.4756  3.25466e+22
18.5929  3.22283e+22
18.7102  3.18815e+22
18.8275  3.14983e+22
18.9449  3.10753e+22
19.0622  3.06127e+22
19.1795  3.01146e+22
19.2968  2.95871e+22
19.4141  2.90379e+22
19.5314  2.84753e+22
19.6487  2.79076e+22
19.766  2.73432e+22
19.8833  2.67897e+22
20.0006  2.6255e+22
20.1179  2.57463e+22
20.2352  2.52698e+22
20.3525  2.48294e+22
20.4698  2.44272e+22
20.5871  2.40613e+22
20.7044  2.37255e+22
20.8217  2.34103e+22
20.939  2.31029e+22
21.0563  2.27885e+22
21.1736  2.24519e+22
21.291  2.20802e+22
21.4083  2.16631e+22
21.5256  2.1195e+22
21.6429  2.06746e+22
21.7602  2.01051e+22
21.8775  1.94928e+22
21.9948  1.88471e+22
22.1121  1.81783e+22
22.2294  1.74966e+22
22.3467  1.68128e+22
22.464  1.6137e+22
22.5813  1.54786e+22
22.6986  1.48478e+22
22.8159  1.42539e+22
22.9332  1.37063e+22
23.0505  1.32129e+22
23.1678  1.27799e+22
23.2851  1.24101e+22
23.4024  1.21023e+22
23.5198  1.18506e+22
23.6371  1.16455e+22
23.7544  1.14725e+22
23.8717  1.13166e+22
23.989  1.11609e+22
24.1063  1.0991e+22
24.2236  1.07947e+22
24.3409  1.05642e+22
24.4582  1.02959e+22
24.5755  9.98997e+21
24.6928  9.65053e+21
24.8101  9.28363e+21
24.9274  8.89695e+21
25.0447  8.4983e+21
25.162  8.09659e+21
25.2793  7.69977e+21
25.3966  7.31599e+21
25.5139  6.95325e+21
25.6312  6.6198e+21
25.7485  6.3221e+21
25.8658  6.06605e+21
25.9832  5.85453e+21
26.1005  5.68778e+21
26.2178  5.5621e+21
26.3351  5.46989e+21
26.4524  5.40043e+21
26.5697  5.34102e+21
26.687  5.27824e+21
26.8043  5.20014e+21
26.9216  5.09712e+21
27.0389  4.96353e+21
27.1562  4.79806e+21
27.2735  4.60325e+21
27.3908  4.38514e+21
27.5081  4.15167e+21
27.6254  3.91136e+21
27.7427  3.67259e+21
27.86  3.44273e+21
27.9773  3.22731e+21
28.0946  3.03087e+21
28.212  2.85697e+21
28.3293  2.70819e+21
28.4466  2.58674e+21
28.5639  2.49436e+21
28.6812  2.43157e+21
28.7985  2.39715e+21
28.9158  2.38769e+21
29.0331  2.3976e+21
29.1504  2.41847e+21
29.2677  2.44042e+21
29.385  2.45275e+21
29.5023  2.44584e+21
29.6196  2.41204e+21
29.7369  2.34716e+21
29.8542  2.25124e+21
29.9715  2.12819e+21
30.0888  1.98498e+21
30.2061  1.83095e+21
30.3234  1.67608e+21
30.4407  1.52907e+21
30.558  1.39695e+21
30.6754  1.28428e+21
30.7927  1.19302e+21
30.91  1.12315e+21
31.0273  1.07312e+21
31.1446  1.0411e+21
31.2619  1.02491e+21
31.3792  1.02257e+21
31.4965  1.03212e+21
31.6138  1.05113e+21
31.7311  1.07638e+21
31.8484  1.10393e+21
31.9657  1.12889e+21
32.083  1.14624e+21
32.2003  1.1519e+21
32.3176  1.14306e+21
32.4349  1.11955e+21
32.5522  1.08389e+21
32.6695  1.04103e+21
32.7868  9.97841e+20
32.9042  9.61303e+20
33.0215  9.37465e+20
33.1388  9.29903e+20
33.2561  9.39128e+20
33.3734  9.61999e+20
33.4907  9.92604e+20
33.608  1.02349e+21
33.7253  1.04665e+21
33.8426  1.05562e+21
33.9599  1.04611e+21
34.0772  1.01679e+21
34.1945  9.69061e+20
34.3118  9.06418e+20
34.4291  8.33366e+20
34.5464  7.54612e+20
34.6637  6.74014e+20
34.781  5.94342e+20
34.8983  5.17546e+20
35.0156  4.4522e+20
35.1329  3.79101e+20
35.2503  3.21594e+20
35.3676  2.76089e+20
35.4849  2.4644e+20
35.6022  2.36296e+20
35.7195  2.48038e+20
35.8368  2.81999e+20
35.9541  3.3557e+20
36.0714  4.03474e+20
36.1887  4.77995e+20
36.306  5.50443e+20
36.4233  6.12122e+20
36.5406  6.56336e+20
36.6579  6.78824e+20
36.7752  6.78708e+20
36.8925  6.58404e+20
37.0098  6.22381e+20
37.1271  5.76424e+20
37.2444  5.26336e+20
37.3617  4.76706e+20
37.479  4.30662e+20
37.5964  3.89429e+20
37.7137  3.53088e+20
37.831  3.21128e+20
37.9483  2.93163e+20
38.0656  2.69375e+20
38.1829  2.50734e+20
38.3002  2.38648e+20
38.4175  2.3433e+20
38.5348  2.38183e+20
38.6521  2.49388e+20
38.7694  2.6547e+20
38.8867  2.82828e+20
39.004  2.97246e+20
39.1213  3.05028e+20
39.2386  3.03668e+20
39.3559  2.92737e+20
39.4732  2.7408e+20
39.5905  2.51436e+20
39.7078  2.29761e+20
39.8251  2.13982e+20
39.9425  2.08041e+20
40.0598  2.14029e+20
40.1771  2.31642e+20
40.2944  2.58586e+20
40.4117  2.90753e+20
40.529  3.23638e+20
40.6463  3.52965e+20
40.7636  3.75693e+20
40.8809  3.90353e+20
40.9982  3.97187e+20
41.1155  3.9731e+20
41.2328  3.92796e+20
41.3501  3.8511e+20
41.4674  3.7512e+20
41.5847  3.62957e+20
41.702  3.4769e+20
41.8193  3.28164e+20
41.9366  3.03682e+20
42.0539  2.74189e+20
42.1712  2.4119e+20
42.2885  2.07207e+20
42.4059  1.75672e+20
42.5232  1.50378e+20
42.6405  1.34493e+20
42.7578  1.29882e+20
42.8751  1.3676e+20
42.9924  1.53645e+20
43.1097  1.77415e+20
43.227  2.04292e+20
43.3443  2.30564e+20
43.4616  2.53181e+20
43.5789  2.70493e+20
43.6962  2.82252e+20
43.8135  2.89629e+20
43.9308  2.94374e+20
44.0481  2.9829e+20
44.1654  3.02653e+20
44.2827  3.07611e+20
44.4  3.12224e+20
44.5173  3.14694e+20
44.6347  3.12902e+20
44.752  3.05293e+20
44.8693  2.91253e+20
44.9866  2.71818e+20
45.1039  2.4937e+20
45.2212  2.27404e+20
45.3385  2.09545e+20
45.4558  1.99007e+20
45.5731  1.97303e+20
45.6904  2.04151e+20
45.8077  2.17155e+20
45.925  2.32493e+20
46.0423  2.45448e+20
46.1596  2.51889e+20
46.2769  2.49087e+20
46.3942  2.36362e+20
46.5115  2.15294e+20
46.6288  1.89616e+20
46.7461  1.6387e+20
46.8634  1.42896e+20
46.9808  1.30195e+20
47.0981  1.27541e+20
47.2154  1.34521e+20
47.3327  1.48857e+20
47.45  1.66975e+20
47.5673  1.85221e+20
47.6846  2.00756e+20
47.8019  2.11992e+20
47.9192  2.19162e+20
48.0365  2.23782e+20
48.1538  2.28035e+20
48.2711  2.33809e+20
48.3884  2.41951e+20
48.5057  2.51972e+20
48.623  2.61832e+20
48.7403  2.68687e+20
48.8576  2.69783e+20
48.9749  2.63171e+20
49.0922  2.48755e+20
49.2095  2.28248e+20
49.3269  2.05079e+20
49.4442  1.83566e+20
49.5615  1.67807e+20
49.6788  1.60671e+20
49.7961  1.62932e+20
49.9134  1.73177e+20
50.0307  1.88035e+20
50.148  2.03308e+20
50.2653  2.14862e+20
50.3826  2.1993e+20
50.4999  2.17784e+20
50.6172  2.09849e+20
50.7345  1.99202e+20
50.8518  1.89737e+20
