#S 1 spectral density
#N 2
#UFWHM 95.7209
#L  abscissas [um]  spectral density
-58.5938  1.05799e+22
-58.4764  1.06673e+22
-58.3591  1.07096e+22
-58.2418  1.07102e+22
-58.1245  1.06757e+22
-58.0072  1.06136e+22
-57.8899  1.05327e+22
-57.7726  1.04415e+22
-57.6553  1.03478e+22
-57.538  1.02588e+22
-57.4207  1.01819e+22
-57.3034  1.01234e+22
-57.1861  1.00901e+22
-57.0688  1.00884e+22
-56.9515  1.01243e+22
-56.8342  1.02013e+22
-56.7169  1.03214e+22
-56.5996  1.04828e+22
-56.4823  1.06804e+22
-56.365  1.0905e+22
-56.2477  1.11452e+22
-56.1303  1.13877e+22
-56.013  1.16195e+22
-55.8957  1.18292e+22
-55.7784  1.20086e+22
-55.6611  1.21532e+22
-55.5438  1.2263e+22
-55.4265  1.23411e+22
-55.3092  1.23929e+22
-55.1919  1.24254e+22
-55.0746  1.24449e+22
-54.9573  1.24569e+22
-54.84  1.24653e+22
-54.7227  1.24733e+22
-54.6054  1.24829e+22
-54.4881  1.24966e+22
-54.3708  1.25173e+22
-54.2535  1.25487e+22
-54.1362  1.25949e+22
-54.0189  1.26598e+22
-53.9016  1.27452e+22
-53.7842  1.2851e+22
-53.6669  1.29736e+22
-53.5496  1.31067e+22
-53.4323  1.32415e+22
-53.315  1.33685e+22
-53.1977  1.34787e+22
-53.0804  1.35655e+22
-52.9631  1.36256e+22
-52.8458  1.36591e+22
-52.7285  1.36696e+22
-52.6112  1.36624e+22
-52.4939  1.36438e+22
-52.3766  1.36191e+22
-52.2593  1.3592e+22
-52.142  1.35641e+22
-52.0247  1.35358e+22
-51.9074  1.35063e+22
-51.7901  1.34759e+22
-51.6728  1.34461e+22
-51.5555  1.34203e+22
-51.4381  1.34038e+22
-51.3208  1.34024e+22
-51.2035  1.34209e+22
-51.0862  1.34629e+22
-50.9689  1.35278e+22
-50.8516  1.36125e+22
-50.7343  1.37109e+22
-50.617  1.38147e+22
-50.4997  1.39165e+22
-50.3824  1.40102e+22
-50.2651  1.40929e+22
-50.1478  1.4165e+22
-50.0305  1.42302e+22
-49.9132  1.42938e+22
-49.7959  1.43616e+22
-49.6786  1.44378e+22
-49.5613  1.45243e+22
-49.444  1.462e+22
-49.3267  1.47216e+22
-49.2094  1.48238e+22
-49.092  1.49217e+22
-48.9747  1.50111e+22
-48.8574  1.50902e+22
-48.7401  1.51596e+22
-48.6228  1.52215e+22
-48.5055  1.52788e+22
-48.3882  1.53346e+22
-48.2709  1.53903e+22
-48.1536  1.5446e+22
-48.0363  1.55002e+22
-47.919  1.55508e+22
-47.8017  1.55962e+22
-47.6844  1.56359e+22
-47.5671  1.56719e+22
-47.4498  1.57077e+22
-47.3325  1.5749e+22
-47.2152  1.58009e+22
-47.0979  1.58675e+22
-46.9806  1.59502e+22
-46.8633  1.60469e+22
-46.7459  1.61524e+22
-46.6286  1.62583e+22
-46.5113  1.63555e+22
-46.394  1.64351e+22
-46.2767  1.64904e+22
-46.1594  1.65183e+22
-46.0421  1.65191e+22
-45.9248  1.64969e+22
-45.8075  1.64582e+22
-45.6902  1.64102e+22
-45.5729  1.636e+22
-45.4556  1.63136e+22
-45.3383  1.62746e+22
-45.221  1.62451e+22
-45.1037  1.62263e+22
-44.9864  1.62186e+22
-44.8691  1.62229e+22
-44.7518  1.62412e+22
-44.6345  1.62766e+22
-44.5172  1.63321e+22
-44.3998  1.64105e+22
-44.2825  1.65131e+22
-44.1652  1.66387e+22
-44.0479  1.67836e+22
-43.9306  1.69413e+22
-43.8133  1.71038e+22
-43.696  1.72621e+22
-43.5787  1.7408e+22
-43.4614  1.75353e+22
-43.3441  1.76405e+22
-43.2268  1.77232e+22
-43.1095  1.77859e+22
-42.9922  1.78328e+22
-42.8749  1.78697e+22
-42.7576  1.79014e+22
-42.6403  1.79329e+22
-42.523  1.79667e+22
-42.4057  1.80051e+22
-42.2884  1.8049e+22
-42.171  1.80991e+22
-42.0537  1.81567e+22
-41.9364  1.82237e+22
-41.8191  1.83022e+22
-41.7018  1.8395e+22
-41.5845  1.85033e+22
-41.4672  1.86275e+22
-41.3499  1.87652e+22
-41.2326  1.89116e+22
-41.1153  1.90599e+22
-40.998  1.92017e+22
-40.8807  1.93283e+22
-40.7634  1.94321e+22
-40.6461  1.95085e+22
-40.5288  1.95552e+22
-40.4115  1.95735e+22
-40.2942  1.95676e+22
-40.1769  1.95428e+22
-40.0596  1.95056e+22
-39.9423  1.94616e+22
-39.825  1.9415e+22
-39.7076  1.93689e+22
-39.5903  1.93249e+22
-39.473  1.92843e+22
-39.3557  1.92488e+22
-39.2384  1.92211e+22
-39.1211  1.92054e+22
-39.0038  1.92066e+22
-38.8865  1.92296e+22
-38.7692  1.92783e+22
-38.6519  1.93544e+22
-38.5346  1.94559e+22
-38.4173  1.95783e+22
-38.3  1.97133e+22
-38.1827  1.98517e+22
-38.0654  1.99837e+22
-37.9481  2.01015e+22
-37.8308  2.01996e+22
-37.7135  2.02762e+22
-37.5962  2.0333e+22
-37.4789  2.03739e+22
-37.3615  2.04049e+22
-37.2442  2.04312e+22
-37.1269  2.04576e+22
-37.0096  2.0487e+22
-36.8923  2.05209e+22
-36.775  2.05597e+22
-36.6577  2.0604e+22
-36.5404  2.06545e+22
-36.4231  2.07137e+22
-36.3058  2.07843e+22
-36.1885  2.08698e+22
-36.0712  2.09727e+22
-35.9539  2.10936e+22
-35.8366  2.12303e+22
-35.7193  2.13778e+22
-35.602  2.15281e+22
-35.4847  2.16722e+22
-35.3674  2.18012e+22
-35.2501  2.19083e+22
-35.1328  2.19894e+22
-35.0154  2.20452e+22
-34.8981  2.20791e+22
-34.7808  2.20971e+22
-34.6635  2.21071e+22
-34.5462  2.21152e+22
-34.4289  2.21257e+22
-34.3116  2.21404e+22
-34.1943  2.21579e+22
-34.077  2.21749e+22
-33.9597  2.21879e+22
-33.8424  2.21937e+22
-33.7251  2.21915e+22
-33.6078  2.21824e+22
-33.4905  2.21707e+22
-33.3732  2.2161e+22
-33.2559  2.21587e+22
-33.1386  2.21673e+22
-33.0213  2.21884e+22
-32.904  2.22209e+22
-32.7867  2.22615e+22
-32.6693  2.23059e+22
-32.552  2.23497e+22
-32.4347  2.23896e+22
-32.3174  2.24249e+22
-32.2001  2.2457e+22
-32.0828  2.2489e+22
-31.9655  2.25251e+22
-31.8482  2.25685e+22
-31.7309  2.26213e+22
-31.6136  2.26831e+22
-31.4963  2.27512e+22
-31.379  2.28212e+22
-31.2617  2.28885e+22
-31.1444  2.29491e+22
-31.0271  2.30009e+22
-30.9098  2.30445e+22
-30.7925  2.30826e+22
-30.6752  2.31199e+22
-30.5579  2.31615e+22
-30.4406  2.3212e+22
-30.3232  2.3274e+22
-30.2059  2.3348e+22
-30.0886  2.34323e+22
-29.9713  2.35236e+22
-29.854  2.3618e+22
-29.7367  2.37126e+22
-29.6194  2.38058e+22
-29.5021  2.38978e+22
-29.3848  2.39901e+22
-29.2675  2.40854e+22
-29.1502  2.41855e+22
-29.0329  2.42911e+22
-28.9156  2.44003e+22
-28.7983  2.45095e+22
-28.681  2.46126e+22
-28.5637  2.47033e+22
-28.4464  2.47756e+22
-28.3291  2.48256e+22
-28.2118  2.48523e+22
-28.0944  2.48575e+22
-27.9771  2.48462e+22
-27.8598  2.48249e+22
-27.7425  2.48003e+22
-27.6252  2.47783e+22
-27.5079  2.47627e+22
-27.3906  2.4755e+22
-27.2733  2.47543e+22
-27.156  2.47586e+22
-27.0387  2.47654e+22
-26.9214  2.47729e+22
-26.8041  2.47809e+22
-26.6868  2.47907e+22
-26.5695  2.48056e+22
-26.4522  2.48287e+22
-26.3349  2.48632e+22
-26.2176  2.49102e+22
-26.1003  2.49688e+22
-25.983  2.50357e+22
-25.8657  2.51059e+22
-25.7483  2.51734e+22
-25.631  2.5233e+22
-25.5137  2.52807e+22
-25.3964  2.53149e+22
-25.2791  2.53371e+22
-25.1618  2.53502e+22
-25.0445  2.5359e+22
-24.9272  2.53685e+22
-24.8099  2.53824e+22
-24.6926  2.54034e+22
-24.5753  2.54323e+22
-24.458  2.54687e+22
-24.3407  2.5512e+22
-24.2234  2.55614e+22
-24.1061  2.56177e+22
-23.9888  2.56826e+22
-23.8715  2.57596e+22
-23.7542  2.58518e+22
-23.6369  2.59621e+22
-23.5196  2.60909e+22
-23.4023  2.62362e+22
-23.2849  2.63929e+22
-23.1676  2.6553e+22
-23.0503  2.67071e+22
-22.933  2.68459e+22
-22.8157  2.69613e+22
-22.6984  2.70482e+22
-22.5811  2.71055e+22
-22.4638  2.71353e+22
-22.3465  2.71433e+22
-22.2292  2.71358e+22
-22.1119  2.71204e+22
-21.9946  2.71027e+22
-21.8773  2.70869e+22
-21.76  2.70745e+22
-21.6427  2.70657e+22
-21.5254  2.70594e+22
-21.4081  2.70544e+22
-21.2908  2.70506e+22
-21.1735  2.70493e+22
-21.0561  2.70527e+22
-20.9388  2.70638e+22
-20.8215  2.70849e+22
-20.7042  2.71166e+22
-20.5869  2.71582e+22
-20.4696  2.72059e+22
-20.3523  2.72548e+22
-20.235  2.72989e+22
-20.1177  2.73329e+22
-20.0004  2.73532e+22
-19.8831  2.73591e+22
-19.7658  2.73521e+22
-19.6485  2.73367e+22
-19.5312  2.73181e+22
-19.4139  2.73021e+22
-19.2966  2.72923e+22
-19.1793  2.72914e+22
-19.062  2.7299e+22
-18.9447  2.73132e+22
-18.8274  2.73313e+22
-18.71  2.73511e+22
-18.5927  2.73718e+22
-18.4754  2.73945e+22
-18.3581  2.74224e+22
-18.2408  2.74599e+22
-18.1235  2.75113e+22
-18.0062  2.75796e+22
-17.8889  2.76658e+22
-17.7716  2.77671e+22
-17.6543  2.7879e+22
-17.537  2.79949e+22
-17.4197  2.81078e+22
-17.3024  2.82119e+22
-17.1851  2.8304e+22
-17.0678  2.83834e+22
-16.9505  2.84526e+22
-16.8332  2.85159e+22
-16.7159  2.85772e+22
-16.5986  2.86402e+22
-16.4813  2.87062e+22
-16.364  2.87734e+22
-16.2466  2.88382e+22
-16.1293  2.88953e+22
-16.012  2.89396e+22
-15.8947  2.89676e+22
-15.7774  2.89783e+22
-15.6601  2.89738e+22
-15.5428  2.89585e+22
-15.4255  2.89387e+22
-15.3082  2.89206e+22
-15.1909  2.89089e+22
-15.0736  2.89063e+22
-14.9563  2.89125e+22
-14.839  2.89246e+22
-14.7217  2.89389e+22
-14.6044  2.89508e+22
-14.4871  2.89577e+22
-14.3698  2.89583e+22
-14.2525  2.89539e+22
-14.1352  2.89475e+22
-14.0178  2.89424e+22
-13.9005  2.89419e+22
-13.7832  2.89474e+22
-13.6659  2.89581e+22
-13.5486  2.89712e+22
-13.4313  2.89826e+22
-13.314  2.89878e+22
-13.1967  2.89839e+22
-13.0794  2.89695e+22
-12.9621  2.89465e+22
-12.8448  2.8919e+22
-12.7275  2.88927e+22
-12.6102  2.88736e+22
-12.4929  2.8867e+22
-12.3756  2.88756e+22
-12.2583  2.88998e+22
-12.141  2.89377e+22
-12.0237  2.89853e+22
-11.9064  2.90386e+22
-11.7891  2.90946e+22
-11.6718  2.91515e+22
-11.5544  2.92104e+22
-11.4371  2.92737e+22
-11.3198  2.93449e+22
-11.2025  2.94277e+22
-11.0852  2.95234e+22
-10.9679  2.96309e+22
-10.8506  2.97471e+22
-10.7333  2.98656e+22
-10.616  2.99791e+22
-10.4987  3.00803e+22
-10.3814  3.01634e+22
-10.2641  3.02254e+22
-10.1468  3.02655e+22
-10.0295  3.02865e+22
-9.91217  3.02926e+22
-9.79487  3.02893e+22
-9.67756  3.02814e+22
-9.56026  3.02724e+22
-9.44295  3.02641e+22
-9.32565  3.02564e+22
-9.20834  3.02487e+22
-9.09104  3.02395e+22
-8.97373  3.02285e+22
-8.85643  3.02163e+22
-8.73913  3.02049e+22
-8.62182  3.01969e+22
-8.50452  3.01955e+22
-8.38721  3.02021e+22
-8.26991  3.0217e+22
-8.1526  3.02376e+22
-8.03529  3.02597e+22
-7.91799  3.02777e+22
-7.80069  3.02855e+22
-7.68338  3.02784e+22
-7.56608  3.02541e+22
-7.44877  3.02129e+22
-7.33146  3.01578e+22
-7.21416  3.00944e+22
-7.09685  3.00291e+22
-6.97955  2.99681e+22
-6.86224  2.99166e+22
-6.74494  2.9877e+22
-6.62763  2.98496e+22
-6.51033  2.98335e+22
-6.39302  2.98258e+22
-6.27572  2.98249e+22
-6.15842  2.98297e+22
-6.04111  2.98409e+22
-5.92381  2.98609e+22
-5.8065  2.9893e+22
-5.68919  2.99401e+22
-5.57189  3.00042e+22
-5.45458  3.00846e+22
-5.33728  3.01781e+22
-5.21997  3.0279e+22
-5.10267  3.03802e+22
-4.98536  3.04742e+22
-4.86806  3.0555e+22
-4.75075  3.06188e+22
-4.63345  3.06653e+22
-4.51614  3.0697e+22
-4.39884  3.07188e+22
-4.28154  3.07361e+22
-4.16423  3.07544e+22
-4.04692  3.07768e+22
-3.92962  3.08045e+22
-3.81231  3.0836e+22
-3.69501  3.08677e+22
-3.5777  3.08959e+22
-3.4604  3.09172e+22
-3.34309  3.09294e+22
-3.22579  3.09329e+22
-3.10849  3.09299e+22
-2.99118  3.09238e+22
-2.87387  3.09179e+22
-2.75657  3.0915e+22
-2.63926  3.09152e+22
-2.52196  3.09172e+22
-2.40465  3.09175e+22
-2.28735  3.09117e+22
-2.17005  3.08961e+22
-2.05274  3.0868e+22
-1.93544  3.08273e+22
-1.81813  3.07767e+22
-1.70083  3.072e+22
-1.58352  3.06625e+22
-1.46622  3.06087e+22
-1.34891  3.05616e+22
-1.2316  3.05217e+22
-1.1143  3.04869e+22
-0.996995  3.04538e+22
-0.87969  3.04185e+22
-0.762385  3.03777e+22
-0.64508  3.03305e+22
-0.527775  3.02785e+22
-0.41047  3.02263e+22
-0.293165  3.01795e+22
-0.17586  3.01448e+22
-0.058555  3.0127e+22
0.05875  3.01287e+22
0.176055  3.01496e+22
0.29336  3.01861e+22
0.410665  3.02326e+22
0.52797  3.02825e+22
0.645275  3.03309e+22
0.76258  3.03741e+22
0.879885  3.04116e+22
0.99719  3.04451e+22
1.1145  3.04786e+22
1.2318  3.05156e+22
1.3491  3.05593e+22
1.46641  3.06103e+22
1.58371  3.06672e+22
1.70102  3.07259e+22
1.81832  3.07815e+22
1.93563  3.08291e+22
2.05294  3.08647e+22
2.17024  3.08872e+22
2.28754  3.08977e+22
2.40485  3.08993e+22
2.52216  3.08968e+22
2.63946  3.08942e+22
2.75677  3.08945e+22
2.87407  3.08988e+22
2.99137  3.09056e+22
3.10868  3.09117e+22
3.22599  3.09138e+22
3.34329  3.09085e+22
3.4606  3.08941e+22
3.5779  3.08713e+22
3.69521  3.08427e+22
3.81251  3.0812e+22
3.92982  3.0783e+22
4.04712  3.07587e+22
4.16443  3.07393e+22
4.28173  3.07228e+22
4.39903  3.0705e+22
4.51634  3.06802e+22
4.63364  3.06427e+22
4.75095  3.05886e+22
4.86825  3.05165e+22
4.98556  3.04282e+22
5.10286  3.03286e+22
5.22017  3.02244e+22
5.33748  3.01234e+22
5.45478  3.00322e+22
5.57209  2.99559e+22
5.68939  2.98962e+22
5.8067  2.98531e+22
5.924  2.98236e+22
6.0413  2.98048e+22
6.15861  2.97936e+22
6.27591  2.97883e+22
6.39322  2.97889e+22
6.51052  2.97973e+22
6.62783  2.98158e+22
6.74514  2.98464e+22
6.86244  2.98899e+22
6.97975  2.9945e+22
7.09705  3.00077e+22
7.21436  3.00727e+22
7.33166  3.01329e+22
7.44897  3.01823e+22
7.56627  3.02163e+22
7.68358  3.02327e+22
7.80088  3.02325e+22
7.91819  3.02193e+22
8.03549  3.01984e+22
8.1528  3.01759e+22
8.2701  3.01568e+22
8.38741  3.01448e+22
8.50471  3.01411e+22
8.62202  3.01449e+22
8.73932  3.01541e+22
8.85662  3.01658e+22
8.97393  3.01776e+22
9.09123  3.01881e+22
9.20854  3.01972e+22
9.32584  3.02057e+22
9.44315  3.02149e+22
9.56045  3.02252e+22
9.67776  3.02356e+22
9.79506  3.02437e+22
9.91237  3.0245e+22
10.0297  3.02343e+22
10.147  3.02066e+22
10.2643  3.01583e+22
10.3816  3.00878e+22
10.4989  2.99971e+22
10.6162  2.98906e+22
10.7335  2.97747e+22
10.8508  2.9657e+22
10.9681  2.95444e+22
11.0854  2.94417e+22
11.2027  2.93514e+22
11.32  2.92734e+22
11.4373  2.92049e+22
11.5546  2.91425e+22
11.6719  2.9083e+22
11.7893  2.90243e+22
11.9066  2.89669e+22
12.0239  2.89126e+22
12.1412  2.88655e+22
12.2585  2.88296e+22
12.3758  2.88082e+22
12.4931  2.88023e+22
12.6104  2.88109e+22
12.7277  2.88301e+22
12.845  2.88546e+22
12.9623  2.88783e+22
13.0796  2.88962e+22
13.1969  2.89051e+22
13.3142  2.89045e+22
13.4315  2.88965e+22
13.5488  2.88845e+22
13.6661  2.8873e+22
13.7834  2.88654e+22
13.9007  2.88636e+22
14.018  2.88675e+22
14.1354  2.88743e+22
14.2527  2.8881e+22
14.37  2.88839e+22
14.4873  2.88806e+22
14.6046  2.88706e+22
14.7219  2.88561e+22
14.8392  2.88405e+22
14.9565  2.88282e+22
15.0738  2.88229e+22
15.1911  2.88269e+22
15.3084  2.88395e+22
15.4257  2.88576e+22
15.543  2.88758e+22
15.6603  2.88878e+22
15.7776  2.88881e+22
15.8949  2.88729e+22
16.0122  2.88412e+22
16.1295  2.87949e+22
16.2468  2.87381e+22
16.3641  2.86759e+22
16.4815  2.86126e+22
16.5988  2.85512e+22
16.7161  2.84916e+22
16.8334  2.84318e+22
16.9507  2.83679e+22
17.068  2.82951e+22
17.1853  2.821e+22
17.3026  2.81113e+22
17.4199  2.80009e+22
17.5372  2.78832e+22
17.6545  2.77647e+22
17.7718  2.76527e+22
17.8891  2.75534e+22
18.0064  2.74707e+22
18.1237  2.74061e+22
18.241  2.73579e+22
18.3583  2.73223e+22
18.4756  2.72948e+22
18.5929  2.72715e+22
18.7102  2.72498e+22
18.8275  2.72293e+22
18.9449  2.72116e+22
19.0622  2.71991e+22
19.1795  2.71944e+22
19.2968  2.71986e+22
19.4141  2.7211e+22
19.5314  2.72285e+22
19.6487  2.72464e+22
19.766  2.72587e+22
19.8833  2.72604e+22
20.0006  2.72482e+22
20.1179  2.72213e+22
20.2352  2.71815e+22
20.3525  2.71336e+22
20.4698  2.70832e+22
20.5871  2.70362e+22
20.7044  2.69971e+22
20.8217  2.69684e+22
20.939  2.69506e+22
21.0563  2.69419e+22
21.1736  2.69396e+22
21.291  2.69412e+22
21.4083  2.69447e+22
21.5256  2.69498e+22
21.6429  2.69571e+22
21.7602  2.69678e+22
21.8775  2.69829e+22
21.9948  2.70017e+22
22.1121  2.70215e+22
22.2294  2.70375e+22
22.3467  2.70425e+22
22.464  2.70293e+22
22.5813  2.69912e+22
22.6986  2.69237e+22
22.8159  2.68261e+22
22.9332  2.6701e+22
23.0505  2.6555e+22
23.1678  2.63968e+22
23.2851  2.62362e+22
23.4024  2.60822e+22
23.5198  2.59418e+22
23.6371  2.58191e+22
23.7544  2.57149e+22
23.8717  2.56277e+22
23.989  2.55542e+22
24.1063  2.54914e+22
24.2236  2.54363e+22
24.3409  2.53878e+22
24.4582  2.53457e+22
24.5755  2.53109e+22
24.6928  2.52841e+22
24.8101  2.52652e+22
24.9274  2.52525e+22
25.0447  2.52428e+22
25.162  2.52315e+22
25.2793  2.52135e+22
25.3966  2.51851e+22
25.5139  2.51435e+22
25.6312  2.50888e+22
25.7485  2.50239e+22
25.8658  2.49533e+22
25.9832  2.48831e+22
26.1005  2.48185e+22
26.2178  2.47644e+22
26.3351  2.47229e+22
26.4524  2.46938e+22
26.5697  2.46748e+22
26.687  2.46627e+22
26.8043  2.4654e+22
26.9216  2.46463e+22
27.0389  2.46386e+22
27.1562  2.4632e+22
27.2735  2.46285e+22
27.3908  2.46306e+22
27.5081  2.46401e+22
27.6254  2.46571e+22
27.7427  2.4679e+22
27.86  2.47014e+22
27.9773  2.47182e+22
28.0946  2.47228e+22
28.212  2.47094e+22
28.3293  2.46745e+22
28.4466  2.46174e+22
28.5639  2.45406e+22
28.6812  2.44483e+22
28.7985  2.43471e+22
28.9158  2.42424e+22
29.0331  2.41393e+22
29.1504  2.40401e+22
29.2677  2.39454e+22
29.385  2.38537e+22
29.5023  2.37627e+22
29.6196  2.36701e+22
29.7369  2.35748e+22
29.8542  2.34776e+22
29.9715  2.3381e+22
30.0888  2.32887e+22
30.2061  2.32046e+22
30.3234  2.31318e+22
30.4407  2.30714e+22
30.558  2.30218e+22
30.6754  2.29803e+22
30.7927  2.29417e+22
30.91  2.29011e+22
31.0273  2.28547e+22
31.1446  2.28002e+22
31.2619  2.27382e+22
31.3792  2.26711e+22
31.4965  2.26033e+22
31.6138  2.25391e+22
31.7311  2.2482e+22
31.8484  2.24335e+22
31.9657  2.23931e+22
32.083  2.2358e+22
32.2003  2.23247e+22
32.3176  2.22893e+22
32.4349  2.22495e+22
32.5522  2.22048e+22
32.6695  2.21573e+22
32.7868  2.21106e+22
32.9042  2.20697e+22
33.0215  2.20387e+22
33.1388  2.20203e+22
33.2561  2.20147e+22
33.3734  2.20191e+22
33.4907  2.20298e+22
33.608  2.20413e+22
33.7253  2.2049e+22
33.8426  2.20497e+22
33.9599  2.20429e+22
34.0772  2.20303e+22
34.1945  2.20154e+22
34.3118  2.20014e+22
34.4291  2.19912e+22
34.5464  2.19846e+22
34.6637  2.19792e+22
34.781  2.19694e+22
34.8983  2.19481e+22
35.0156  2.19083e+22
35.1329  2.18444e+22
35.2503  2.17536e+22
35.3676  2.16374e+22
35.4849  2.15009e+22
35.6022  2.13519e+22
35.7195  2.11998e+22
35.8368  2.10533e+22
35.9541  2.09198e+22
36.0714  2.08033e+22
36.1887  2.07051e+22
36.306  2.06239e+22
36.4233  2.05567e+22
36.5406  2.05005e+22
36.6579  2.04521e+22
36.7752  2.04102e+22
36.8925  2.0374e+22
37.0098  2.03431e+22
37.1271  2.03165e+22
37.2444  2.02921e+22
37.3617  2.0266e+22
37.479  2.0233e+22
37.5964  2.0187e+22
37.7137  2.01227e+22
37.831  2.00366e+22
37.9483  1.99285e+22
38.0656  1.98012e+22
38.1829  1.96619e+22
38.3002  1.95193e+22
38.4175  1.93838e+22
38.5348  1.92645e+22
38.6521  1.91686e+22
38.7694  1.91e+22
38.8867  1.90591e+22
39.004  1.90433e+22
39.1213  1.90483e+22
39.2386  1.90688e+22
39.3559  1.91001e+22
39.4732  1.91387e+22
39.5905  1.91823e+22
39.7078  1.92294e+22
39.8251  1.92784e+22
39.9425  1.93268e+22
40.0598  1.93713e+22
40.1771  1.94062e+22
40.2944  1.94256e+22
40.4117  1.94229e+22
40.529  1.93931e+22
40.6463  1.93332e+22
40.7636  1.92436e+22
40.8809  1.91278e+22
40.9982  1.89925e+22
41.1155  1.88461e+22
41.2328  1.86976e+22
41.3501  1.85548e+22
41.4674  1.84238e+22
41.5847  1.83084e+22
41.702  1.82092e+22
41.8193  1.8125e+22
41.9366  1.80536e+22
42.0539  1.79922e+22
42.1712  1.79386e+22
42.2885  1.78916e+22
42.4059  1.78499e+22
42.5232  1.78131e+22
42.6405  1.77801e+22
42.7578  1.77481e+22
42.8751  1.7714e+22
42.9924  1.76727e+22
43.1097  1.76191e+22
43.227  1.75479e+22
43.3443  1.74554e+22
43.4616  1.7341e+22
43.5789  1.72061e+22
43.6962  1.70555e+22
43.8135  1.68963e+22
43.9308  1.67371e+22
44.0481  1.65862e+22
44.1654  1.64508e+22
44.2827  1.63358e+22
44.4  1.62437e+22
44.5173  1.61743e+22
44.6347  1.61255e+22
44.752  1.60948e+22
44.8693  1.60789e+22
44.9866  1.60756e+22
45.1039  1.6084e+22
45.2212  1.61032e+22
45.3385  1.6133e+22
45.4558  1.61722e+22
45.5731  1.62181e+22
45.6904  1.62662e+22
45.8077  1.63103e+22
45.925  1.63431e+22
46.0423  1.63577e+22
46.1596  1.63487e+22
46.2769  1.63132e+22
46.3942  1.62521e+22
46.5115  1.61697e+22
46.6288  1.60735e+22
46.7461  1.5972e+22
46.8634  1.58736e+22
46.9808  1.57858e+22
47.0981  1.57121e+22
47.2154  1.56534e+22
47.3327  1.56072e+22
47.45  1.55688e+22
47.5673  1.55332e+22
47.6846  1.54956e+22
47.8019  1.54532e+22
47.9192  1.54049e+22
48.0365  1.53516e+22
48.1538  1.52956e+22
48.2711  1.52386e+22
48.3884  1.51819e+22
48.5057  1.5125e+22
48.623  1.5066e+22
48.7403  1.5002e+22
48.8576  1.49304e+22
48.9749  1.48495e+22
49.0922  1.47596e+22
49.2095  1.46634e+22
49.3269  1.45648e+22
49.4442  1.44691e+22
49.5615  1.43803e+22
49.6788  1.43011e+22
49.7961  1.4231e+22
49.9134  1.4167e+22
50.0307  1.4104e+22
50.148  1.40362e+22
50.2653  1.39584e+22
50.3826  1.38683e+22
50.4999  1.37666e+22
50.6172  1.36577e+22
50.7345  1.35486e+22
