#S 1 spectral density
#N 2
#UFWHM 24.8687
#L  abscissas [um]  spectral density
-58.5938  2.40869e+20
-58.4764  2.41988e+20
-58.3591  2.41879e+20
-58.2418  2.42351e+20
-58.1245  2.45199e+20
-58.0072  2.51719e+20
-57.8899  2.6208e+20
-57.7726  2.75478e+20
-57.6553  2.89939e+20
-57.538  3.0309e+20
-57.4207  3.12593e+20
-57.3034  3.16716e+20
-57.1861  3.14768e+20
-57.0688  3.07383e+20
-56.9515  2.96161e+20
-56.8342  2.83333e+20
-56.7169  2.71209e+20
-56.5996  2.61452e+20
-56.4823  2.54642e+20
-56.365  2.50247e+20
-56.2477  2.46618e+20
-56.1303  2.41762e+20
-56.013  2.33835e+20
-55.8957  2.21887e+20
-55.7784  2.06513e+20
-55.6611  1.89837e+20
-55.5438  1.75286e+20
-55.4265  1.66841e+20
-55.3092  1.68261e+20
-55.1919  1.82024e+20
-55.0746  2.08488e+20
-54.9573  2.45814e+20
-54.84  2.90003e+20
-54.7227  3.35754e+20
-54.6054  3.77246e+20
-54.4881  4.09409e+20
-54.3708  4.28974e+20
-54.2535  4.34779e+20
-54.1362  4.28015e+20
-54.0189  4.11585e+20
-53.9016  3.89365e+20
-53.7842  3.65111e+20
-53.6669  3.42029e+20
-53.5496  3.21871e+20
-53.4323  3.05038e+20
-53.315  2.91251e+20
-53.1977  2.79896e+20
-53.0804  2.70738e+20
-52.9631  2.64375e+20
-52.8458  2.62149e+20
-52.7285  2.65992e+20
-52.6112  2.77385e+20
-52.4939  2.96757e+20
-52.3766  3.23079e+20
-52.2593  3.53323e+20
-52.142  3.82798e+20
-52.0247  4.06378e+20
-51.9074  4.19277e+20
-51.7901  4.18465e+20
-51.6728  4.03385e+20
-51.5555  3.76373e+20
-51.4381  3.42308e+20
-51.3208  3.07607e+20
-51.2035  2.7858e+20
-51.0862  2.60486e+20
-50.9689  2.56039e+20
-50.8516  2.64972e+20
-50.7343  2.8422e+20
-50.617  3.08829e+20
-50.4997  3.3323e+20
-50.3824  3.52431e+20
-50.2651  3.63395e+20
-50.1478  3.65518e+20
-50.0305  3.60216e+20
-49.9132  3.50745e+20
-49.7959  3.4077e+20
-49.6786  3.33406e+20
-49.5613  3.30539e+20
-49.444  3.32373e+20
-49.3267  3.37681e+20
-49.2094  3.44366e+20
-49.092  3.50524e+20
-48.9747  3.55133e+20
-48.8574  3.58319e+20
-48.7401  3.61402e+20
-48.6228  3.66474e+20
-48.5055  3.75476e+20
-48.3882  3.89142e+20
-48.2709  4.06729e+20
-48.1536  4.25518e+20
-48.0363  4.41668e+20
-47.919  4.50583e+20
-47.8017  4.48399e+20
-47.6844  4.33137e+20
-47.5671  4.05045e+20
-47.4498  3.67142e+20
-47.3325  3.24579e+20
-47.2152  2.83553e+20
-47.0979  2.50149e+20
-46.9806  2.28992e+20
-46.8633  2.22399e+20
-46.7459  2.29953e+20
-46.6286  2.48999e+20
-46.5113  2.75163e+20
-46.394  3.0377e+20
-46.2767  3.30735e+20
-46.1594  3.53548e+20
-46.0421  3.71293e+20
-45.9248  3.85062e+20
-45.8075  3.96589e+20
-45.6902  4.07851e+20
-45.5729  4.20136e+20
-45.4556  4.33427e+20
-45.3383  4.46266e+20
-45.221  4.56091e+20
-45.1037  4.59942e+20
-44.9864  4.55406e+20
-44.8691  4.41331e+20
-44.7518  4.18369e+20
-44.6345  3.88719e+20
-44.5172  3.56392e+20
-44.3998  3.25876e+20
-44.2825  3.0149e+20
-44.1652  2.86469e+20
-44.0479  2.82146e+20
-43.9306  2.88276e+20
-43.8133  3.02783e+20
-43.696  3.22437e+20
-43.5787  3.4398e+20
-43.4614  3.64352e+20
-43.3441  3.81783e+20
-43.2268  3.956e+20
-43.1095  4.06311e+20
-42.9922  4.15251e+20
-42.8749  4.23686e+20
-42.7576  4.32496e+20
-42.6403  4.41817e+20
-42.523  4.50634e+20
-42.4057  4.57429e+20
-42.2884  4.6034e+20
-42.171  4.58014e+20
-42.0537  4.49955e+20
-41.9364  4.37002e+20
-41.8191  4.21002e+20
-41.7018  4.04679e+20
-41.5845  3.90886e+20
-41.4672  3.81856e+20
-41.3499  3.78582e+20
-41.2326  3.80593e+20
-41.1153  3.85777e+20
-40.998  3.91156e+20
-40.8807  3.93462e+20
-40.7634  3.90095e+20
-40.6461  3.79802e+20
-40.5288  3.63209e+20
-40.4115  3.4287e+20
-40.2942  3.22525e+20
-40.1769  3.06566e+20
-40.0596  2.9897e+20
-39.9423  3.01955e+20
-39.825  3.16347e+20
-39.7076  3.40649e+20
-39.5903  3.71826e+20
-39.473  4.05807e+20
-39.3557  4.38495e+20
-39.2384  4.66657e+20
-39.1211  4.88235e+20
-39.0038  5.02701e+20
-38.8865  5.10804e+20
-38.7692  5.13738e+20
-38.6519  5.12822e+20
-38.5346  5.08656e+20
-38.4173  5.01085e+20
-38.3  4.894e+20
-38.1827  4.72522e+20
-38.0654  4.50052e+20
-37.9481  4.22787e+20
-37.8308  3.92678e+20
-37.7135  3.63507e+20
-37.5962  3.3956e+20
-37.4789  3.25224e+20
-37.3615  3.2384e+20
-37.2442  3.36605e+20
-37.1269  3.62277e+20
-37.0096  3.97008e+20
-36.8923  4.35174e+20
-36.775  4.70389e+20
-36.6577  4.96732e+20
-36.5404  5.10249e+20
-36.4231  5.09158e+20
-36.3058  4.94745e+20
-36.1885  4.70486e+20
-36.0712  4.41328e+20
-35.9539  4.12412e+20
-35.8366  3.88154e+20
-35.7193  3.71285e+20
-35.602  3.62631e+20
-35.4847  3.61497e+20
-35.3674  3.66146e+20
-35.2501  3.74794e+20
-35.1328  3.86238e+20
-35.0154  4.00167e+20
-34.8981  4.17376e+20
-34.7808  4.38876e+20
-34.6635  4.65475e+20
-34.5462  4.96848e+20
-34.4289  5.31086e+20
-34.3116  5.64786e+20
-34.1943  5.93629e+20
-34.077  6.12896e+20
-33.9597  6.19231e+20
-33.8424  6.11126e+20
-33.7251  5.89928e+20
-33.6078  5.59465e+20
-33.4905  5.25578e+20
-33.3732  4.95169e+20
-33.2559  4.74395e+20
-33.1386  4.67296e+20
-33.0213  4.75546e+20
-32.904  4.97305e+20
-32.7867  5.2824e+20
-32.6693  5.62457e+20
-32.552  5.93666e+20
-32.4347  6.16692e+20
-32.3174  6.28471e+20
-32.2001  6.28479e+20
-32.0828  6.18689e+20
-31.9655  6.02765e+20
-31.8482  5.85357e+20
-31.7309  5.7047e+20
-31.6136  5.61385e+20
-31.4963  5.59608e+20
-31.379  5.6563e+20
-31.2617  5.78712e+20
-31.1444  5.97918e+20
-31.0271  6.22371e+20
-30.9098  6.51839e+20
-30.7925  6.86418e+20
-30.6752  7.26159e+20
-30.5579  7.70434e+20
-30.4406  8.17759e+20
-30.3232  8.64988e+20
-30.2059  9.07845e+20
-30.0886  9.41144e+20
-29.9713  9.59879e+20
-29.854  9.6064e+20
-29.7367  9.42097e+20
-29.6194  9.05909e+20
-29.5021  8.56769e+20
-29.3848  8.01768e+20
-29.2675  7.49323e+20
-29.1502  7.07712e+20
-29.0329  6.8373e+20
-28.9156  6.8157e+20
-28.7983  7.02314e+20
-28.681  7.4403e+20
-28.5637  8.02494e+20
-28.4464  8.71822e+20
-28.3291  9.46498e+20
-28.2118  1.02133e+21
-28.0944  1.09283e+21
-27.9771  1.15921e+21
-27.8598  1.2196e+21
-27.7425  1.27417e+21
-27.6252  1.32263e+21
-27.5079  1.36459e+21
-27.3906  1.39884e+21
-27.2733  1.42388e+21
-27.156  1.43815e+21
-27.0387  1.44087e+21
-26.9214  1.43301e+21
-26.8041  1.4171e+21
-26.6868  1.39737e+21
-26.5695  1.37909e+21
-26.4522  1.36781e+21
-26.3349  1.36816e+21
-26.2176  1.38272e+21
-26.1003  1.41182e+21
-25.983  1.45342e+21
-25.8657  1.50271e+21
-25.7483  1.55451e+21
-25.631  1.60315e+21
-25.5137  1.64465e+21
-25.3964  1.67635e+21
-25.2791  1.69843e+21
-25.1618  1.71321e+21
-25.0445  1.72428e+21
-24.9272  1.7362e+21
-24.8099  1.75348e+21
-24.6926  1.77965e+21
-24.5753  1.81686e+21
-24.458  1.86622e+21
-24.3407  1.92813e+21
-24.2234  2.00206e+21
-24.1061  2.08794e+21
-23.9888  2.18598e+21
-23.8715  2.29617e+21
-23.7542  2.41804e+21
-23.6369  2.55065e+21
-23.5196  2.69104e+21
-23.4023  2.83457e+21
-23.2849  2.9753e+21
-23.1676  3.10547e+21
-23.0503  3.21832e+21
-22.933  3.30734e+21
-22.8157  3.37006e+21
-22.6984  3.40627e+21
-22.5811  3.42067e+21
-22.4638  3.42128e+21
-22.3465  3.41864e+21
-22.2292  3.4249e+21
-22.1119  3.45159e+21
-21.9946  3.50817e+21
-21.8773  3.60111e+21
-21.76  3.73359e+21
-21.6427  3.90462e+21
-21.5254  4.11083e+21
-21.4081  4.34653e+21
-21.2908  4.60528e+21
-21.1735  4.88017e+21
-21.0561  5.16466e+21
-20.9388  5.45282e+21
-20.8215  5.7387e+21
-20.7042  6.0173e+21
-20.5869  6.28309e+21
-20.4696  6.53172e+21
-20.3523  6.75951e+21
-20.235  6.96483e+21
-20.1177  7.14812e+21
-20.0004  7.31313e+21
-19.8831  7.46605e+21
-19.7658  7.61581e+21
-19.6485  7.77337e+21
-19.5312  7.9489e+21
-19.4139  8.1518e+21
-19.2966  8.38887e+21
-19.1793  8.66338e+21
-19.062  8.97467e+21
-18.9447  9.31984e+21
-18.8274  9.69337e+21
-18.71  1.00891e+22
-18.5927  1.05018e+22
-18.4754  1.09267e+22
-18.3581  1.13617e+22
-18.2408  1.18057e+22
-18.1235  1.2259e+22
-18.0062  1.27211e+22
-17.8889  1.31922e+22
-17.7716  1.36706e+22
-17.6543  1.41543e+22
-17.537  1.46407e+22
-17.4197  1.51283e+22
-17.3024  1.56161e+22
-17.1851  1.61066e+22
-17.0678  1.66031e+22
-16.9505  1.71113e+22
-16.8332  1.76382e+22
-16.7159  1.81896e+22
-16.5986  1.87707e+22
-16.4813  1.93833e+22
-16.364  2.00274e+22
-16.2466  2.06993e+22
-16.1293  2.13943e+22
-16.012  2.21061e+22
-15.8947  2.28293e+22
-15.7774  2.35594e+22
-15.6601  2.42933e+22
-15.5428  2.50291e+22
-15.4255  2.57655e+22
-15.3082  2.65017e+22
-15.1909  2.72349e+22
-15.0736  2.79612e+22
-14.9563  2.86762e+22
-14.839  2.93735e+22
-14.7217  3.00482e+22
-14.6044  3.06966e+22
-14.4871  3.13176e+22
-14.3698  3.19132e+22
-14.2525  3.24891e+22
-14.1352  3.30531e+22
-14.0178  3.36143e+22
-13.9005  3.41817e+22
-13.7832  3.47629e+22
-13.6659  3.53623e+22
-13.5486  3.59823e+22
-13.4313  3.66221e+22
-13.314  3.72791e+22
-13.1967  3.79496e+22
-13.0794  3.86294e+22
-12.9621  3.93149e+22
-12.8448  4.00031e+22
-12.7275  4.06912e+22
-12.6102  4.13763e+22
-12.4929  4.20549e+22
-12.3756  4.27222e+22
-12.2583  4.3373e+22
-12.141  4.40015e+22
-12.0237  4.46024e+22
-11.9064  4.51727e+22
-11.7891  4.57112e+22
-11.6718  4.6221e+22
-11.5544  4.67083e+22
-11.4371  4.71818e+22
-11.3198  4.76524e+22
-11.2025  4.8131e+22
-11.0852  4.86273e+22
-10.9679  4.91482e+22
-10.8506  4.96978e+22
-10.7333  5.02766e+22
-10.616  5.0883e+22
-10.4987  5.15123e+22
-10.3814  5.21595e+22
-10.2641  5.28203e+22
-10.1468  5.34893e+22
-10.0295  5.41634e+22
-9.91217  5.48391e+22
-9.79487  5.55125e+22
-9.67756  5.61797e+22
-9.56026  5.68368e+22
-9.44295  5.74779e+22
-9.32565  5.80984e+22
-9.20834  5.8694e+22
-9.09104  5.92623e+22
-8.97373  5.98032e+22
-8.85643  6.03198e+22
-8.73913  6.08175e+22
-8.62182  6.13036e+22
-8.50452  6.17863e+22
-8.38721  6.22729e+22
-8.26991  6.27698e+22
-8.1526  6.32802e+22
-8.03529  6.38048e+22
-7.91799  6.43411e+22
-7.80069  6.48862e+22
-7.68338  6.54343e+22
-7.56608  6.59813e+22
-7.44877  6.65236e+22
-7.33146  6.70587e+22
-7.21416  6.75853e+22
-7.09685  6.81031e+22
-6.97955  6.86124e+22
-6.86224  6.91128e+22
-6.74494  6.96029e+22
-6.62763  7.00814e+22
-6.51033  7.05465e+22
-6.39302  7.09967e+22
-6.27572  7.1432e+22
-6.15842  7.18536e+22
-6.04111  7.22642e+22
-5.92381  7.26686e+22
-5.8065  7.30715e+22
-5.68919  7.3477e+22
-5.57189  7.38879e+22
-5.45458  7.43046e+22
-5.33728  7.47252e+22
-5.21997  7.51444e+22
-5.10267  7.55567e+22
-4.98536  7.59552e+22
-4.86806  7.63351e+22
-4.75075  7.66936e+22
-4.63345  7.70305e+22
-4.51614  7.73489e+22
-4.39884  7.76545e+22
-4.28154  7.79529e+22
-4.16423  7.82515e+22
-4.04692  7.8555e+22
-3.92962  7.88666e+22
-3.81231  7.91868e+22
-3.69501  7.95139e+22
-3.5777  7.98449e+22
-3.4604  8.01762e+22
-3.34309  8.0504e+22
-3.22579  8.0826e+22
-3.10849  8.11398e+22
-2.99118  8.14441e+22
-2.87387  8.17378e+22
-2.75657  8.20192e+22
-2.63926  8.22854e+22
-2.52196  8.25332e+22
-2.40465  8.27586e+22
-2.28735  8.29586e+22
-2.17005  8.31309e+22
-2.05274  8.32756e+22
-1.93544  8.3395e+22
-1.81813  8.34942e+22
-1.70083  8.35796e+22
-1.58352  8.36584e+22
-1.46622  8.37366e+22
-1.34891  8.38185e+22
-1.2316  8.39063e+22
-1.1143  8.39984e+22
-0.996995  8.40922e+22
-0.87969  8.41825e+22
-0.762385  8.42651e+22
-0.64508  8.43362e+22
-0.527775  8.43935e+22
-0.41047  8.44371e+22
-0.293165  8.44685e+22
-0.17586  8.44895e+22
-0.058555  8.45021e+22
0.05875  8.45075e+22
0.176055  8.45048e+22
0.29336  8.4493e+22
0.410665  8.44692e+22
0.52797  8.44317e+22
0.645275  8.43794e+22
0.76258  8.43135e+22
0.879885  8.42362e+22
0.99719  8.41523e+22
1.1145  8.40667e+22
1.2318  8.39835e+22
1.3491  8.39059e+22
1.46641  8.38339e+22
1.58371  8.37647e+22
1.70102  8.36932e+22
1.81832  8.36131e+22
1.93563  8.35171e+22
2.05294  8.33992e+22
2.17024  8.32557e+22
2.28754  8.3085e+22
2.40485  8.28876e+22
2.52216  8.26664e+22
2.63946  8.24246e+22
2.75677  8.21658e+22
2.87407  8.1893e+22
2.99137  8.16081e+22
3.10868  8.13123e+22
3.22599  8.1007e+22
3.34329  8.06934e+22
3.4606  8.03738e+22
3.5779  8.00514e+22
3.69521  7.973e+22
3.81251  7.94135e+22
3.92982  7.91045e+22
4.04712  7.88042e+22
4.16443  7.85108e+22
4.28173  7.82207e+22
4.39903  7.79279e+22
4.51634  7.76255e+22
4.63364  7.73072e+22
4.75095  7.69685e+22
4.86825  7.6607e+22
4.98556  7.62245e+22
5.10286  7.58243e+22
5.22017  7.54127e+22
5.33748  7.49962e+22
5.45478  7.45805e+22
5.57209  7.41694e+22
5.68939  7.37646e+22
5.8067  7.33647e+22
5.924  7.29666e+22
6.0413  7.25655e+22
6.15861  7.21569e+22
6.27591  7.17371e+22
6.39322  7.13036e+22
6.51052  7.08562e+22
6.62783  7.0395e+22
6.74514  6.99219e+22
6.86244  6.9438e+22
6.97975  6.8945e+22
7.09705  6.84428e+22
7.21436  6.79315e+22
7.33166  6.74108e+22
7.44897  6.68813e+22
7.56627  6.63443e+22
7.68358  6.5803e+22
7.80088  6.52615e+22
7.91819  6.47249e+22
8.03549  6.41976e+22
8.1528  6.36829e+22
8.2701  6.31823e+22
8.38741  6.26942e+22
8.50471  6.22135e+22
8.62202  6.17343e+22
8.73932  6.12481e+22
8.85662  6.07468e+22
8.97393  6.02245e+22
9.09123  5.96762e+22
9.20854  5.91e+22
9.32584  5.84975e+22
9.44315  5.78714e+22
9.56045  5.72265e+22
9.67776  5.65679e+22
9.79506  5.59003e+22
9.91237  5.52279e+22
10.0297  5.45545e+22
10.147  5.38836e+22
10.2643  5.32186e+22
10.3816  5.25642e+22
10.4989  5.19246e+22
10.6162  5.13051e+22
10.7335  5.07106e+22
10.8508  5.01445e+22
10.9681  4.9607e+22
11.0854  4.90969e+22
11.2027  4.86087e+22
11.32  4.81339e+22
11.4373  4.76625e+22
11.5546  4.71836e+22
11.6719  4.66873e+22
11.7893  4.61655e+22
11.9066  4.56138e+22
12.0239  4.50308e+22
12.1412  4.44183e+22
12.2585  4.37809e+22
12.3758  4.31237e+22
12.4931  4.24525e+22
12.6104  4.17723e+22
12.7277  4.10876e+22
12.845  4.04011e+22
12.9623  3.97159e+22
13.0796  3.9035e+22
13.1969  3.83614e+22
13.3142  3.76992e+22
13.4315  3.70522e+22
13.5488  3.64239e+22
13.6661  3.58164e+22
13.7834  3.52296e+22
13.9007  3.466e+22
14.018  3.41017e+22
14.1354  3.35469e+22
14.2527  3.2986e+22
14.37  3.24102e+22
14.4873  3.18126e+22
14.6046  3.11883e+22
14.7219  3.05364e+22
14.8392  2.98587e+22
14.9565  2.91596e+22
15.0738  2.84444e+22
15.1911  2.77182e+22
15.3084  2.6986e+22
15.4257  2.62507e+22
15.543  2.55138e+22
15.6603  2.47767e+22
15.7776  2.40408e+22
15.8949  2.3308e+22
16.0122  2.25815e+22
16.1295  2.18668e+22
16.2468  2.11694e+22
16.3641  2.04951e+22
16.4815  1.98481e+22
16.5988  1.92309e+22
16.7161  1.86433e+22
16.8334  1.80818e+22
16.9507  1.75417e+22
17.068  1.70166e+22
17.1853  1.65005e+22
17.3026  1.59889e+22
17.4199  1.54794e+22
17.5372  1.49712e+22
17.6545  1.44658e+22
17.7718  1.39655e+22
17.8891  1.3473e+22
18.0064  1.29901e+22
18.1237  1.25175e+22
18.241  1.20552e+22
18.3583  1.16029e+22
18.4756  1.11604e+22
18.5929  1.07289e+22
18.7102  1.03113e+22
18.8275  9.9123e+21
18.9449  9.53764e+21
19.0622  9.19294e+21
19.1795  8.8835e+21
19.2968  8.61133e+21
19.4141  8.37556e+21
19.5314  8.17159e+21
19.6487  7.99215e+21
19.766  7.82744e+21
19.8833  7.66673e+21
20.0006  7.50043e+21
20.1179  7.32053e+21
20.2352  7.1216e+21
20.3525  6.90116e+21
20.4698  6.65988e+21
20.5871  6.3998e+21
20.7044  6.12451e+21
20.8217  5.83887e+21
20.939  5.54744e+21
21.0563  5.25581e+21
21.1736  4.96935e+21
21.291  4.69418e+21
21.4083  4.43739e+21
21.5256  4.20561e+21
21.6429  4.00568e+21
21.7602  3.8425e+21
21.8775  3.71903e+21
21.9948  3.63466e+21
22.1121  3.58532e+21
22.2294  3.56309e+21
22.3467  3.5574e+21
22.464  3.55618e+21
22.5813  3.54759e+21
22.6986  3.52177e+21
22.8159  3.47136e+21
22.9332  3.3939e+21
23.0505  3.29029e+21
23.1678  3.16504e+21
23.2851  3.0244e+21
23.4024  2.87606e+21
23.5198  2.72681e+21
23.6371  2.58268e+21
23.7544  2.44717e+21
23.8717  2.32294e+21
23.989  2.21093e+21
24.1063  2.11126e+21
24.2236  2.02417e+21
24.3409  1.95021e+21
24.4582  1.88982e+21
24.5755  1.843e+21
24.6928  1.80945e+21
24.8101  1.78732e+21
24.9274  1.7736e+21
25.0447  1.76395e+21
25.162  1.75355e+21
25.2793  1.73748e+21
25.3966  1.7122e+21
25.5139  1.67617e+21
25.6312  1.63021e+21
25.7485  1.57733e+21
25.8658  1.5227e+21
25.9832  1.47185e+21
26.1005  1.43052e+21
26.2178  1.40211e+21
26.3351  1.38846e+21
26.4524  1.38839e+21
26.5697  1.39882e+21
26.687  1.41468e+21
26.8043  1.43085e+21
26.9216  1.4426e+21
27.0389  1.44626e+21
27.1562  1.44007e+21
27.2735  1.42375e+21
27.3908  1.39805e+21
27.5081  1.36424e+21
27.6254  1.32366e+21
27.7427  1.27663e+21
27.86  1.22308e+21
27.9773  1.16296e+21
28.0946  1.09596e+21
28.212  1.02348e+21
28.3293  9.47955e+20
28.4466  8.73639e+20
28.5639  8.06352e+20
28.6812  7.51952e+20
28.7985  7.15939e+20
28.9158  7.01917e+20
29.0331  7.11112e+20
29.1504  7.40979e+20
29.2677  7.8652e+20
29.385  8.40302e+20
29.5023  8.9381e+20
29.6196  9.38949e+20
29.7369  9.6959e+20
29.8542  9.81885e+20
29.9715  9.75201e+20
30.0888  9.51415e+20
30.2061  9.14561e+20
30.3234  8.69462e+20
30.4407  8.20862e+20
30.558  7.72519e+20
30.6754  7.27022e+20
30.7927  6.85806e+20
30.91  6.49327e+20
31.0273  6.17622e+20
31.1446  5.9126e+20
31.2619  5.71064e+20
31.3792  5.58135e+20
31.4965  5.53545e+20
31.6138  5.57797e+20
31.7311  5.69846e+20
31.8484  5.87441e+20
31.9657  6.06893e+20
32.083  6.23333e+20
32.2003  6.32459e+20
32.3176  6.30911e+20
32.4349  6.17398e+20
32.5522  5.93192e+20
32.6695  5.62107e+20
32.7868  5.29881e+20
32.9042  5.02633e+20
33.0215  4.85997e+20
33.1388  4.83379e+20
33.2561  4.95612e+20
33.3734  5.20219e+20
33.4907  5.52236e+20
33.608  5.85267e+20
33.7253  6.1282e+20
33.8426  6.29527e+20
33.9599  6.32488e+20
34.0772  6.21296e+20
34.1945  5.97993e+20
34.3118  5.66564e+20
34.4291  5.31433e+20
34.5464  4.96632e+20
34.6637  4.64951e+20
34.781  4.37739e+20
34.8983  4.15034e+20
35.0156  3.95802e+20
35.1329  3.79452e+20
35.2503  3.65733e+20
35.3676  3.55515e+20
35.4849  3.5068e+20
35.6022  3.53037e+20
35.7195  3.64313e+20
35.8368  3.8472e+20
35.9541  4.12706e+20
36.0714  4.4471e+20
36.1887  4.75689e+20
36.306  5.0024e+20
36.4233  5.13466e+20
36.5406  5.12402e+20
36.6579  4.96554e+20
36.7752  4.6833e+20
36.8925  4.32479e+20
37.0098  3.95224e+20
37.1271  3.62822e+20
37.2444  3.40434e+20
37.3617  3.31184e+20
37.479  3.35507e+20
37.5964  3.51468e+20
37.7137  3.75582e+20
37.831  4.03372e+20
37.9483  4.30984e+20
38.0656  4.55416e+20
38.1829  4.7518e+20
38.3002  4.90166e+20
38.4175  5.01043e+20
38.5348  5.08647e+20
38.6521  5.13339e+20
38.7694  5.14783e+20
38.8867  5.11593e+20
39.004  5.02318e+20
39.1213  4.8561e+20
39.2386  4.61156e+20
39.3559  4.30144e+20
39.4732  3.95323e+20
39.5905  3.60547e+20
39.7078  3.30338e+20
39.8251  3.08632e+20
39.9425  2.98084e+20
40.0598  2.99302e+20
40.1771  3.1094e+20
40.2944  3.29525e+20
40.4117  3.50727e+20
40.529  3.70169e+20
40.6463  3.84441e+20
40.7636  3.91673e+20
40.8809  3.92105e+20
40.9982  3.87769e+20
41.1155  3.81706e+20
41.2328  3.77412e+20
41.3501  3.77495e+20
41.4674  3.83359e+20
41.5847  3.94879e+20
41.702  4.10392e+20
41.8193  4.27115e+20
41.9366  4.42258e+20
42.0539  4.53411e+20
42.1712  4.59159e+20
42.2885  4.5956e+20
42.4059  4.55446e+20
42.5232  4.48544e+20
42.6405  4.40788e+20
42.7578  4.33193e+20
42.8751  4.26062e+20
42.9924  4.18825e+20
43.1097  4.10146e+20
43.227  3.98363e+20
43.3443  3.82607e+20
43.4616  3.62835e+20
43.5789  3.4023e+20
43.6962  3.17367e+20
43.8135  2.97715e+20
43.9308  2.84717e+20
44.0481  2.81155e+20
44.1654  2.88545e+20
44.2827  3.06476e+20
44.4  3.32672e+20
44.5173  3.63513e+20
44.6347  3.9452e+20
44.752  4.21557e+20
44.8693  4.41283e+20
44.9866  4.52249e+20
45.1039  4.54437e+20
45.2212  4.49625e+20
45.3385  4.40401e+20
45.4558  4.29376e+20
45.5731  4.18481e+20
45.6904  4.08432e+20
45.8077  3.98501e+20
45.925  3.87106e+20
46.0423  3.72165e+20
46.1596  3.52196e+20
46.2769  3.26998e+20
46.3942  2.98121e+20
46.5115  2.68779e+20
46.6288  2.4351e+20
46.7461  2.26946e+20
46.8634  2.23079e+20
46.9808  2.33792e+20
47.0981  2.5866e+20
47.2154  2.94497e+20
47.3327  3.36418e+20
47.45  3.78089e+20
47.5673  4.13679e+20
47.6846  4.38755e+20
47.8019  4.5107e+20
47.9192  4.50848e+20
48.0365  4.4082e+20
48.1538  4.24799e+20
48.2711  4.0691e+20
48.3884  3.90652e+20
48.5057  3.78145e+20
48.623  3.69538e+20
48.7403  3.63707e+20
48.8576  3.5899e+20
48.9749  3.53699e+20
49.0922  3.46877e+20
49.2095  3.39159e+20
49.3269  3.31894e+20
49.4442  3.27251e+20
49.5615  3.27037e+20
49.6788  3.31878e+20
49.7961  3.4107e+20
49.9134  3.521e+20
50.0307  3.61452e+20
50.148  3.65442e+20
50.2653  3.61251e+20
50.3826  3.47994e+20
50.4999  3.27184e+20
50.6172  3.02537e+20
50.7345  2.7948e+20
50.8518  2.63556e+20
