#S 1 spectral density
#N 2
#UFWHM 26.7455
#L  abscissas [um]  spectral density
-58.5938  3.36704e+20
-58.4764  3.12785e+20
-58.3591  2.85425e+20
-58.2418  2.58474e+20
-58.1245  2.35638e+20
-58.0072  2.19543e+20
-57.8899  2.11238e+20
-57.7726  2.09801e+20
-57.6553  2.12824e+20
-57.538  2.16752e+20
-57.4207  2.1826e+20
-57.3034  2.1468e+20
-57.1861  2.05049e+20
-57.0688  1.90294e+20
-56.9515  1.73195e+20
-56.8342  1.57264e+20
-56.7169  1.4644e+20
-56.5996  1.43617e+20
-56.4823  1.50091e+20
-56.365  1.65125e+20
-56.2477  1.86043e+20
-56.1303  2.08982e+20
-56.013  2.29806e+20
-55.8957  2.45045e+20
-55.7784  2.52951e+20
-55.6611  2.53811e+20
-55.5438  2.49916e+20
-55.4265  2.44808e+20
-55.3092  2.42537e+20
-55.1919  2.46428e+20
-55.0746  2.57939e+20
-54.9573  2.76902e+20
-54.84  3.00744e+20
-54.7227  3.25935e+20
-54.6054  3.48344e+20
-54.4881  3.64747e+20
-54.3708  3.73602e+20
-54.2535  3.7528e+20
-54.1362  3.72265e+20
-54.0189  3.67909e+20
-53.9016  3.65937e+20
-53.7842  3.68995e+20
-53.6669  3.78107e+20
-53.5496  3.92297e+20
-53.4323  4.08741e+20
-53.315  4.24126e+20
-53.1977  4.35132e+20
-53.0804  4.39992e+20
-52.9631  4.3885e+20
-52.8458  4.33889e+20
-52.7285  4.29084e+20
-52.6112  4.28547e+20
-52.4939  4.35847e+20
-52.3766  4.52634e+20
-52.2593  4.77948e+20
-52.142  5.08466e+20
-52.0247  5.39262e+20
-51.9074  5.64914e+20
-51.7901  5.80885e+20
-51.6728  5.85245e+20
-51.5555  5.78426e+20
-51.4381  5.63855e+20
-51.3208  5.4653e+20
-51.2035  5.3185e+20
-51.0862  5.24417e+20
-50.9689  5.26472e+20
-50.8516  5.3743e+20
-50.7343  5.54125e+20
-50.617  5.71839e+20
-50.4997  5.85385e+20
-50.3824  5.90737e+20
-50.2651  5.85894e+20
-50.1478  5.71744e+20
-50.0305  5.51281e+20
-49.9132  5.29027e+20
-49.7959  5.09475e+20
-49.6786  4.95913e+20
-49.5613  4.89611e+20
-49.444  4.89523e+20
-49.3267  4.92667e+20
-49.2094  4.95185e+20
-49.092  4.93475e+20
-48.9747  4.85606e+20
-48.8574  4.71592e+20
-48.7401  4.53512e+20
-48.6228  4.35085e+20
-48.5055  4.20295e+20
-48.3882  4.12227e+20
-48.2709  4.12393e+20
-48.1536  4.19571e+20
-48.0363  4.30966e+20
-47.919  4.4218e+20
-47.8017  4.48892e+20
-47.6844  4.47938e+20
-47.5671  4.38335e+20
-47.4498  4.21189e+20
-47.3325  4.00054e+20
-47.2152  3.79151e+20
-47.0979  3.62877e+20
-46.9806  3.54019e+20
-46.8633  3.53388e+20
-46.7459  3.59377e+20
-46.6286  3.68566e+20
-46.5113  3.76586e+20
-46.394  3.7943e+20
-46.2767  3.74658e+20
-46.1594  3.62048e+20
-46.0421  3.43709e+20
-45.9248  3.23704e+20
-45.8075  3.06782e+20
-45.6902  2.97187e+20
-45.5729  2.9773e+20
-45.4556  3.08796e+20
-45.3383  3.28283e+20
-45.221  3.52277e+20
-45.1037  3.75997e+20
-44.9864  3.94922e+20
-44.8691  4.06235e+20
-44.7518  4.09125e+20
-44.6345  4.05094e+20
-44.5172  3.97707e+20
-44.3998  3.9142e+20
-44.2825  3.90594e+20
-44.1652  3.98227e+20
-44.0479  4.15473e+20
-43.9306  4.41286e+20
-43.8133  4.72725e+20
-43.696  5.05863e+20
-43.5787  5.36669e+20
-43.4614  5.61968e+20
-43.3441  5.80318e+20
-43.2268  5.9184e+20
-43.1095  5.98271e+20
-42.9922  6.02579e+20
-42.8749  6.07169e+20
-42.7576  6.14198e+20
-42.6403  6.24363e+20
-42.523  6.36943e+20
-42.4057  6.50012e+20
-42.2884  6.61477e+20
-42.171  6.69099e+20
-42.0537  6.72095e+20
-41.9364  6.70691e+20
-41.8191  6.66698e+20
-41.7018  6.62836e+20
-41.5845  6.61931e+20
-41.4672  6.66222e+20
-41.3499  6.7649e+20
-41.2326  6.91956e+20
-41.1153  7.09861e+20
-40.998  7.26684e+20
-40.8807  7.38667e+20
-40.7634  7.42729e+20
-40.6461  7.37854e+20
-40.5288  7.24832e+20
-40.4115  7.06435e+20
-40.2942  6.86844e+20
-40.1769  6.70428e+20
-40.0596  6.6081e+20
-39.9423  6.59662e+20
-39.825  6.66605e+20
-39.7076  6.78982e+20
-39.5903  6.92845e+20
-39.473  7.03509e+20
-39.3557  7.07257e+20
-39.2384  7.02157e+20
-39.1211  6.88383e+20
-39.0038  6.6825e+20
-38.8865  6.45927e+20
-38.7692  6.25455e+20
-38.6519  6.10586e+20
-38.5346  6.03077e+20
-38.4173  6.02706e+20
-38.3  6.06987e+20
-38.1827  6.12371e+20
-38.0654  6.14904e+20
-37.9481  6.11808e+20
-37.8308  6.01607e+20
-37.7135  5.85543e+20
-37.5962  5.66229e+20
-37.4789  5.477e+20
-37.3615  5.33794e+20
-37.2442  5.27298e+20
-37.1269  5.28997e+20
-37.0096  5.37409e+20
-36.8923  5.49549e+20
-36.775  5.61331e+20
-36.6577  5.69004e+20
-36.5404  5.70426e+20
-36.4231  5.65183e+20
-36.3058  5.55145e+20
-36.1885  5.43675e+20
-36.0712  5.3483e+20
-35.9539  5.31854e+20
-35.8366  5.36315e+20
-35.7193  5.47764e+20
-35.602  5.63566e+20
-35.4847  5.7977e+20
-35.3674  5.92232e+20
-35.2501  5.97895e+20
-35.1328  5.95895e+20
-35.0154  5.87702e+20
-34.8981  5.77306e+20
-34.7808  5.69703e+20
-34.6635  5.69863e+20
-34.5462  5.81371e+20
-34.4289  6.05062e+20
-34.3116  6.38935e+20
-34.1943  6.78314e+20
-34.077  7.17079e+20
-33.9597  7.49012e+20
-33.8424  7.69331e+20
-33.7251  7.75963e+20
-33.6078  7.70029e+20
-33.4905  7.55165e+20
-33.3732  7.37175e+20
-33.2559  7.22189e+20
-33.1386  7.14925e+20
-33.0213  7.18349e+20
-32.904  7.32404e+20
-32.7867  7.54544e+20
-32.6693  7.80972e+20
-32.552  8.07047e+20
-32.4347  8.2933e+20
-32.3174  8.46195e+20
-32.2001  8.5785e+20
-32.0828  8.66629e+20
-31.9655  8.75808e+20
-31.8482  8.88517e+20
-31.7309  9.06565e+20
-31.6136  9.30298e+20
-31.4963  9.57991e+20
-31.379  9.86625e+20
-31.2617  1.01264e+21
-31.1444  1.03341e+21
-31.0271  1.0475e+21
-30.9098  1.05544e+21
-30.7925  1.06002e+21
-30.6752  1.06462e+21
-30.5579  1.07296e+21
-30.4406  1.08781e+21
-30.3232  1.10999e+21
-30.2059  1.13826e+21
-30.0886  1.16888e+21
-29.9713  1.19748e+21
-29.854  1.21942e+21
-29.7367  1.23121e+21
-29.6194  1.23125e+21
-29.5021  1.22063e+21
-29.3848  1.20211e+21
-29.2675  1.18003e+21
-29.1502  1.1586e+21
-29.0329  1.14146e+21
-28.9156  1.12976e+21
-28.7983  1.12316e+21
-28.681  1.11935e+21
-28.5637  1.11515e+21
-28.4464  1.1073e+21
-28.3291  1.09453e+21
-28.2118  1.07701e+21
-28.0944  1.0573e+21
-27.9771  1.04006e+21
-27.8598  1.03022e+21
-27.7425  1.03272e+21
-27.6252  1.05009e+21
-27.5079  1.08307e+21
-27.3906  1.1293e+21
-27.2733  1.18408e+21
-27.156  1.24154e+21
-27.0387  1.2954e+21
-26.9214  1.34104e+21
-26.8041  1.37568e+21
-26.6868  1.39926e+21
-26.5695  1.41417e+21
-26.4522  1.42421e+21
-26.3349  1.43384e+21
-26.2176  1.44724e+21
-26.1003  1.46678e+21
-25.983  1.49358e+21
-25.8657  1.5267e+21
-25.7483  1.56459e+21
-25.631  1.60539e+21
-25.5137  1.64788e+21
-25.3964  1.69228e+21
-25.2791  1.73931e+21
-25.1618  1.7914e+21
-25.0445  1.8504e+21
-24.9272  1.91775e+21
-24.8099  1.9936e+21
-24.6926  2.07658e+21
-24.5753  2.16352e+21
-24.458  2.251e+21
-24.3407  2.33571e+21
-24.2234  2.41578e+21
-24.1061  2.49173e+21
-23.9888  2.56629e+21
-23.8715  2.64444e+21
-23.7542  2.73208e+21
-23.6369  2.83544e+21
-23.5196  2.95838e+21
-23.4023  3.10263e+21
-23.2849  3.26603e+21
-23.1676  3.44314e+21
-23.0503  3.6263e+21
-22.933  3.80624e+21
-22.8157  3.97463e+21
-22.6984  4.12416e+21
-22.5811  4.25107e+21
-22.4638  4.35428e+21
-22.3465  4.43583e+21
-22.2292  4.49969e+21
-22.1119  4.55153e+21
-21.9946  4.59652e+21
-21.8773  4.64028e+21
-21.76  4.68773e+21
-21.6427  4.74346e+21
-21.5254  4.81271e+21
-21.4081  4.90197e+21
-21.2908  5.01872e+21
-21.1735  5.17119e+21
-21.0561  5.36843e+21
-20.9388  5.61808e+21
-20.8215  5.92525e+21
-20.7042  6.29113e+21
-20.5869  6.71205e+21
-20.4696  7.17958e+21
-20.3523  7.68101e+21
-20.235  8.20085e+21
-20.1177  8.72293e+21
-20.0004  9.23257e+21
-19.8831  9.71805e+21
-19.7658  1.01714e+22
-19.6485  1.05913e+22
-19.5312  1.09794e+22
-19.4139  1.13416e+22
-19.2966  1.16876e+22
-19.1793  1.20279e+22
-19.062  1.23745e+22
-18.9447  1.27402e+22
-18.8274  1.31384e+22
-18.71  1.35818e+22
-18.5927  1.40839e+22
-18.4754  1.46562e+22
-18.3581  1.53094e+22
-18.2408  1.60491e+22
-18.1235  1.68772e+22
-18.0062  1.77878e+22
-17.8889  1.87695e+22
-17.7716  1.98032e+22
-17.6543  2.08654e+22
-17.537  2.19296e+22
-17.4197  2.29699e+22
-17.3024  2.39624e+22
-17.1851  2.489e+22
-17.0678  2.57417e+22
-16.9505  2.65145e+22
-16.8332  2.72131e+22
-16.7159  2.78465e+22
-16.5986  2.84283e+22
-16.4813  2.89731e+22
-16.364  2.94957e+22
-16.2466  3.001e+22
-16.1293  3.05272e+22
-16.012  3.1058e+22
-15.8947  3.16108e+22
-15.7774  3.21934e+22
-15.6601  3.28118e+22
-15.5428  3.347e+22
-15.4255  3.41695e+22
-15.3082  3.49088e+22
-15.1909  3.56814e+22
-15.0736  3.64774e+22
-14.9563  3.72834e+22
-14.839  3.80842e+22
-14.7217  3.88646e+22
-14.6044  3.96113e+22
-14.4871  4.03147e+22
-14.3698  4.09695e+22
-14.2525  4.15772e+22
-14.1352  4.21417e+22
-14.0178  4.26717e+22
-13.9005  4.31765e+22
-13.7832  4.36659e+22
-13.6659  4.41472e+22
-13.5486  4.46271e+22
-13.4313  4.51092e+22
-13.314  4.55961e+22
-13.1967  4.60894e+22
-13.0794  4.6591e+22
-12.9621  4.71036e+22
-12.8448  4.76296e+22
-12.7275  4.8172e+22
-12.6102  4.87322e+22
-12.4929  4.93109e+22
-12.3756  4.99049e+22
-12.2583  5.05103e+22
-12.141  5.1121e+22
-12.0237  5.17303e+22
-11.9064  5.23328e+22
-11.7891  5.29246e+22
-11.6718  5.35059e+22
-11.5544  5.40792e+22
-11.4371  5.46495e+22
-11.3198  5.52241e+22
-11.2025  5.58095e+22
-11.0852  5.64108e+22
-10.9679  5.70296e+22
-10.8506  5.76646e+22
-10.7333  5.83109e+22
-10.616  5.8962e+22
-10.4987  5.96097e+22
-10.3814  6.02464e+22
-10.2641  6.08669e+22
-10.1468  6.14678e+22
-10.0295  6.2049e+22
-9.91217  6.26121e+22
-9.79487  6.31599e+22
-9.67756  6.3696e+22
-9.56026  6.42235e+22
-9.44295  6.47445e+22
-9.32565  6.52601e+22
-9.20834  6.57711e+22
-9.09104  6.62784e+22
-8.97373  6.67832e+22
-8.85643  6.72878e+22
-8.73913  6.77952e+22
-8.62182  6.83085e+22
-8.50452  6.88301e+22
-8.38721  6.93604e+22
-8.26991  6.98982e+22
-8.1526  7.04394e+22
-8.03529  7.09782e+22
-7.91799  7.15072e+22
-7.80069  7.20192e+22
-7.68338  7.25087e+22
-7.56608  7.29724e+22
-7.44877  7.34105e+22
-7.33146  7.38259e+22
-7.21416  7.42242e+22
-7.09685  7.46117e+22
-6.97955  7.49953e+22
-6.86224  7.53797e+22
-6.74494  7.57675e+22
-6.62763  7.61587e+22
-6.51033  7.65514e+22
-6.39302  7.69424e+22
-6.27572  7.73287e+22
-6.15842  7.77083e+22
-6.04111  7.80808e+22
-5.92381  7.84478e+22
-5.8065  7.88123e+22
-5.68919  7.91776e+22
-5.57189  7.95467e+22
-5.45458  7.99209e+22
-5.33728  8.02999e+22
-5.21997  8.06809e+22
-5.10267  8.10605e+22
-4.98536  8.14341e+22
-4.86806  8.17993e+22
-4.75075  8.21539e+22
-4.63345  8.24993e+22
-4.51614  8.28375e+22
-4.39884  8.31728e+22
-4.28154  8.35083e+22
-4.16423  8.38467e+22
-4.04692  8.4188e+22
-3.92962  8.45301e+22
-3.81231  8.48675e+22
-3.69501  8.51943e+22
-3.5777  8.55042e+22
-3.4604  8.57918e+22
-3.34309  8.60545e+22
-3.22579  8.62926e+22
-3.10849  8.65091e+22
-2.99118  8.67083e+22
-2.87387  8.68965e+22
-2.75657  8.70785e+22
-2.63926  8.72576e+22
-2.52196  8.74349e+22
-2.40465  8.76099e+22
-2.28735  8.77803e+22
-2.17005  8.79437e+22
-2.05274  8.80981e+22
-1.93544  8.82431e+22
-1.81813  8.83802e+22
-1.70083  8.85118e+22
-1.58352  8.86404e+22
-1.46622  8.87683e+22
-1.34891  8.88956e+22
-1.2316  8.90209e+22
-1.1143  8.91398e+22
-0.996995  8.92476e+22
-0.87969  8.93389e+22
-0.762385  8.94101e+22
-0.64508  8.94595e+22
-0.527775  8.94884e+22
-0.41047  8.9501e+22
-0.293165  8.95029e+22
-0.17586  8.95001e+22
-0.058555  8.94976e+22
0.05875  8.94978e+22
0.176055  8.94997e+22
0.29336  8.95001e+22
0.410665  8.94928e+22
0.52797  8.94722e+22
0.645275  8.94327e+22
0.76258  8.93713e+22
0.879885  8.9288e+22
0.99719  8.91854e+22
1.1145  8.90679e+22
1.2318  8.89414e+22
1.3491  8.88105e+22
1.46641  8.86786e+22
1.58371  8.85464e+22
1.70102  8.84129e+22
1.81832  8.82758e+22
1.93563  8.81318e+22
2.05294  8.79791e+22
2.17024  8.78167e+22
2.28754  8.76458e+22
2.40485  8.74685e+22
2.52216  8.72875e+22
2.63946  8.71045e+22
2.75677  8.69198e+22
2.87407  8.67313e+22
2.99137  8.65351e+22
3.10868  8.63257e+22
3.22599  8.60977e+22
3.34329  8.58467e+22
3.4606  8.55707e+22
3.5779  8.52709e+22
3.69521  8.4951e+22
3.81251  8.46167e+22
3.92982  8.42744e+22
4.04712  8.39303e+22
4.16443  8.35878e+22
4.28173  8.32484e+22
4.39903  8.29113e+22
4.51634  8.25728e+22
4.63364  8.22291e+22
4.75095  8.18769e+22
4.86825  8.15142e+22
4.98556  8.11416e+22
5.10286  8.07613e+22
5.22017  8.0377e+22
5.33748  7.99928e+22
5.45478  7.96126e+22
5.57209  7.92374e+22
5.68939  7.88675e+22
5.8067  7.85006e+22
5.924  7.81331e+22
6.0413  7.77619e+22
6.15861  7.73847e+22
6.27591  7.70003e+22
6.39322  7.66098e+22
6.51052  7.62161e+22
6.62783  7.58224e+22
6.74514  7.54313e+22
6.86244  7.50442e+22
6.97975  7.46601e+22
7.09705  7.42747e+22
7.21436  7.38827e+22
7.33166  7.34771e+22
7.44897  7.30513e+22
7.56627  7.2601e+22
7.68358  7.2124e+22
7.80088  7.16218e+22
7.91819  7.10991e+22
8.03549  7.05621e+22
8.1528  7.00183e+22
8.2701  6.94746e+22
8.38741  6.89366e+22
8.50471  6.84066e+22
8.62202  6.78862e+22
8.73932  6.73729e+22
8.85662  6.68644e+22
8.97393  6.63579e+22
9.09123  6.58507e+22
9.20854  6.53405e+22
9.32584  6.48264e+22
9.44315  6.43077e+22
9.56045  6.3783e+22
9.67776  6.32508e+22
9.79506  6.27082e+22
9.91237  6.21525e+22
10.0297  6.15799e+22
10.147  6.09882e+22
10.2643  6.03768e+22
10.3816  5.97477e+22
10.4989  5.91047e+22
10.6162  5.84554e+22
10.7335  5.78068e+22
10.8508  5.71669e+22
10.9681  5.65414e+22
11.0854  5.59335e+22
11.2027  5.53435e+22
11.32  5.47666e+22
11.4373  5.41977e+22
11.5546  5.36293e+22
11.6719  5.30551e+22
11.7893  5.24703e+22
11.9066  5.18736e+22
12.0239  5.12669e+22
12.1412  5.06546e+22
12.2585  5.00431e+22
12.3758  4.94395e+22
12.4931  4.88491e+22
12.6104  4.82759e+22
12.7277  4.77217e+22
12.845  4.71855e+22
12.9623  4.66654e+22
13.0796  4.61586e+22
13.1969  4.56623e+22
13.3142  4.51738e+22
13.4315  4.46913e+22
13.5488  4.42121e+22
13.6661  4.37331e+22
13.7834  4.32494e+22
13.9007  4.27537e+22
14.018  4.22374e+22
14.1354  4.1691e+22
14.2527  4.11053e+22
14.37  4.04735e+22
14.4873  3.97932e+22
14.6046  3.90656e+22
14.7219  3.82979e+22
14.8392  3.75017e+22
14.9565  3.66914e+22
15.0738  3.58829e+22
15.1911  3.50905e+22
15.3084  3.43264e+22
15.4257  3.35996e+22
15.543  3.29139e+22
15.6603  3.22693e+22
15.7776  3.16635e+22
15.8949  3.10911e+22
16.0122  3.05452e+22
16.1295  3.00178e+22
16.2468  2.94995e+22
16.3641  2.898e+22
16.4815  2.84461e+22
16.5988  2.78845e+22
16.7161  2.72805e+22
16.8334  2.66198e+22
16.9507  2.58907e+22
17.068  2.50855e+22
17.1853  2.42027e+22
17.3026  2.32489e+22
17.4199  2.22374e+22
17.5372  2.1188e+22
17.6545  2.01257e+22
17.7718  1.90771e+22
17.8891  1.80675e+22
18.0064  1.7119e+22
18.1237  1.6247e+22
18.241  1.54612e+22
18.3583  1.47639e+22
18.4756  1.41515e+22
18.5929  1.3616e+22
18.7102  1.31464e+22
18.8275  1.27302e+22
18.9449  1.23546e+22
19.0622  1.20057e+22
19.1795  1.16713e+22
19.2968  1.13389e+22
19.4141  1.09967e+22
19.5314  1.06342e+22
19.6487  1.02436e+22
19.766  9.82019e+21
19.8833  9.36305e+21
20.0006  8.87712e+21
20.1179  8.37087e+21
20.2352  7.8576e+21
20.3525  7.35278e+21
20.4698  6.87291e+21
20.5871  6.43211e+21
20.7044  6.0412e+21
20.8217  5.70692e+21
20.939  5.4306e+21
21.0563  5.20918e+21
21.1736  5.03626e+21
21.291  4.90321e+21
21.4083  4.80165e+21
21.5256  4.72314e+21
21.6429  4.6611e+21
21.7602  4.60998e+21
21.8775  4.5649e+21
21.9948  4.52143e+21
22.1121  4.47479e+21
22.2294  4.41966e+21
22.3467  4.35029e+21
22.464  4.2619e+21
22.5813  4.15109e+21
22.6986  4.0169e+21
22.8159  3.86147e+21
22.9332  3.69011e+21
23.0505  3.51061e+21
23.1678  3.33181e+21
23.2851  3.16244e+21
23.4024  3.00928e+21
23.5198  2.87612e+21
23.6371  2.76367e+21
23.7544  2.66856e+21
23.8717  2.58618e+21
23.989  2.5101e+21
24.1063  2.43485e+21
24.2236  2.35593e+21
24.3409  2.27237e+21
24.4582  2.18469e+21
24.5755  2.09558e+21
24.6928  2.00888e+21
24.8101  1.92818e+21
24.9274  1.85568e+21
25.0447  1.79224e+21
25.162  1.73731e+21
25.2793  1.68874e+21
25.3966  1.6444e+21
25.5139  1.60249e+21
25.6312  1.56237e+21
25.7485  1.52441e+21
25.8658  1.49021e+21
25.9832  1.46136e+21
26.1005  1.43956e+21
26.2178  1.42451e+21
26.3351  1.41464e+21
26.4524  1.40668e+21
26.5697  1.39629e+21
26.687  1.37917e+21
26.8043  1.35188e+21
26.9216  1.31322e+21
27.0389  1.26451e+21
27.1562  1.20927e+21
27.2735  1.15318e+21
27.3908  1.10201e+21
27.5081  1.06153e+21
27.6254  1.03539e+21
27.7427  1.02465e+21
27.86  1.02769e+21
27.9773  1.04087e+21
28.0946  1.05914e+21
28.212  1.07765e+21
28.3293  1.09281e+21
28.4466  1.10294e+21
28.5639  1.10875e+21
28.6812  1.11238e+21
28.7985  1.11699e+21
28.9158  1.12554e+21
29.0331  1.13945e+21
29.1504  1.15851e+21
29.2677  1.18034e+21
29.385  1.20102e+21
29.5023  1.21626e+21
29.6196  1.2223e+21
29.7369  1.21719e+21
29.8542  1.20088e+21
29.9715  1.17597e+21
30.0888  1.14633e+21
30.2061  1.11682e+21
30.3234  1.09138e+21
30.4407  1.07279e+21
30.558  1.06134e+21
30.6754  1.05545e+21
30.7927  1.05194e+21
30.91  1.04695e+21
31.0273  1.03721e+21
31.1446  1.02106e+21
31.2619  9.98625e+20
31.3792  9.71802e+20
31.4965  9.43795e+20
31.6138  9.18077e+20
31.7311  8.96942e+20
31.8484  8.8155e+20
31.9657  8.70774e+20
32.083  8.62291e+20
32.2003  8.52612e+20
32.3176  8.39145e+20
32.4349  8.20206e+20
32.5522  7.96067e+20
32.6695  7.69425e+20
32.7868  7.44248e+20
32.9042  7.24754e+20
33.0215  7.14714e+20
33.1388  7.15423e+20
33.2561  7.26021e+20
33.3734  7.4285e+20
33.4907  7.60261e+20
33.608  7.72239e+20
33.7253  7.73845e+20
33.8426  7.62035e+20
33.9599  7.36965e+20
34.0772  7.01938e+20
34.1945  6.62171e+20
34.3118  6.24238e+20
34.4291  5.93718e+20
34.5464  5.74515e+20
34.6637  5.67508e+20
34.781  5.7076e+20
34.8983  5.80055e+20
35.0156  5.90055e+20
35.1329  5.96168e+20
35.2503  5.95138e+20
35.3676  5.86323e+20
35.4849  5.71731e+20
35.6022  5.54706e+20
35.7195  5.39622e+20
35.8368  5.3013e+20
35.9541  5.28092e+20
36.0714  5.33286e+20
36.1887  5.43258e+20
36.306  5.54367e+20
36.4233  5.62691e+20
36.5406  5.65218e+20
36.6579  5.61077e+20
36.7752  5.51019e+20
36.8925  5.38449e+20
37.0098  5.27106e+20
37.1271  5.20949e+20
37.2444  5.22462e+20
37.3617  5.32364e+20
37.479  5.48818e+20
37.5964  5.68631e+20
37.7137  5.87557e+20
37.831  6.01982e+20
37.9483  6.09724e+20
38.0656  6.10554e+20
38.1829  6.06487e+20
38.3002  6.01149e+20
38.4175  5.98327e+20
38.5348  6.01477e+20
38.6521  6.12212e+20
38.7694  6.29906e+20
38.8867  6.51833e+20
39.004  6.7399e+20
39.1213  6.9208e+20
39.2386  7.02446e+20
39.3559  7.03707e+20
39.4732  6.96574e+20
39.5905  6.84097e+20
39.7078  6.70385e+20
39.8251  6.60065e+20
39.9425  6.56707e+20
40.0598  6.62091e+20
40.1771  6.75534e+20
40.2944  6.94176e+20
40.4117  7.13802e+20
40.529  7.30014e+20
40.6463  7.39079e+20
40.7636  7.39063e+20
40.8809  7.30184e+20
40.9982  7.14763e+20
41.1155  6.96331e+20
41.2328  6.79028e+20
41.3501  6.6591e+20
41.4674  6.58958e+20
41.5847  6.5803e+20
41.702  6.61641e+20
41.8193  6.66842e+20
41.9366  6.70627e+20
42.0539  6.70595e+20
42.1712  6.65696e+20
42.2885  6.56277e+20
42.4059  6.43897e+20
42.5232  6.30838e+20
42.6405  6.19575e+20
42.7578  6.11394e+20
42.8751  6.06199e+20
42.9924  6.02616e+20
43.1097  5.98333e+20
43.227  5.90278e+20
43.3443  5.76122e+20
43.4616  5.54876e+20
43.5789  5.26893e+20
43.6962  4.94674e+20
43.8135  4.61831e+20
43.9308  4.32495e+20
44.0481  4.10131e+20
44.1654  3.96957e+20
44.2827  3.92903e+20
44.4  3.95928e+20
44.5173  4.02466e+20
44.6347  4.08032e+20
44.752  4.0858e+20
44.8693  4.01538e+20
44.9866  3.86347e+20
45.1039  3.64771e+20
45.2212  3.40446e+20
45.3385  3.18018e+20
45.4558  3.01827e+20
45.5731  2.94975e+20
45.6904  2.98468e+20
45.8077  3.10949e+20
45.925  3.29078e+20
46.0423  3.48343e+20
46.1596  3.64275e+20
46.2769  3.73761e+20
46.3942  3.75587e+20
46.5115  3.70782e+20
46.6288  3.62427e+20
46.7461  3.54638e+20
46.8634  3.51386e+20
46.9808  3.55246e+20
47.0981  3.67002e+20
47.2154  3.85001e+20
47.3327  4.05914e+20
47.45  4.25383e+20
47.5673  4.39377e+20
47.6846  4.45577e+20
47.8019  4.43348e+20
47.9192  4.34606e+20
48.0365  4.23128e+20
48.1538  4.13019e+20
48.2711  4.08225e+20
48.3884  4.11081e+20
48.5057  4.21729e+20
48.623  4.3803e+20
48.7403  4.56593e+20
48.8576  4.73626e+20
48.9749  4.85837e+20
49.0922  4.91755e+20
49.2095  4.92145e+20
49.3269  4.89525e+20
49.4442  4.87652e+20
49.5615  4.89964e+20
49.6788  4.98953e+20
49.7961  5.14752e+20
49.9134  5.35442e+20
50.0307  5.5724e+20
50.148  5.755e+20
50.2653  5.86313e+20
50.3826  5.87347e+20
50.4999  5.78935e+20
50.6172  5.63759e+20
50.7345  5.46481e+20
