#S 1 spectral density
#N 2
#UFWHM 56.541
#L  abscissas [um]  spectral density
-58.5938  3.89238e+20
-58.4764  3.88949e+20
-58.3591  3.79557e+20
-58.2418  3.64133e+20
-58.1245  3.46311e+20
-58.0072  3.29327e+20
-57.8899  3.15237e+20
-57.7726  3.04777e+20
-57.6553  2.97281e+20
-57.538  2.91208e+20
-57.4207  2.85126e+20
-57.3034  2.77842e+20
-57.1861  2.69653e+20
-57.0688  2.61981e+20
-56.9515  2.57697e+20
-56.8342  2.59915e+20
-56.7169  2.71635e+20
-56.5996  2.94479e+20
-56.4823  3.28479e+20
-56.365  3.71297e+20
-56.2477  4.19122e+20
-56.1303  4.66812e+20
-56.013  5.09455e+20
-55.8957  5.42967e+20
-55.7784  5.65349e+20
-55.6611  5.76831e+20
-55.5438  5.79933e+20
-55.4265  5.78305e+20
-55.3092  5.76585e+20
-55.1919  5.78136e+20
-55.0746  5.85001e+20
-54.9573  5.96874e+20
-54.84  6.11574e+20
-54.7227  6.25418e+20
-54.6054  6.34351e+20
-54.4881  6.35214e+20
-54.3708  6.26362e+20
-54.2535  6.08629e+20
-54.1362  5.84467e+20
-54.0189  5.57885e+20
-53.9016  5.32948e+20
-53.7842  5.12822e+20
-53.6669  4.99157e+20
-53.5496  4.91366e+20
-53.4323  4.87203e+20
-53.315  4.83593e+20
-53.1977  4.77567e+20
-53.0804  4.67499e+20
-52.9631  4.53592e+20
-52.8458  4.38009e+20
-52.7285  4.24513e+20
-52.6112  4.1705e+20
-52.4939  4.1879e+20
-52.3766  4.30833e+20
-52.2593  4.51631e+20
-52.142  4.77249e+20
-52.0247  5.02006e+20
-51.9074  5.20044e+20
-51.7901  5.26255e+20
-51.6728  5.18172e+20
-51.5555  4.96171e+20
-51.4381  4.63754e+20
-51.3208  4.26073e+20
-51.2035  3.8932e+20
-51.0862  3.58653e+20
-50.9689  3.37401e+20
-50.8516  3.26149e+20
-50.7343  3.23019e+20
-50.617  3.24781e+20
-50.4997  3.27674e+20
-50.3824  3.29092e+20
-50.2651  3.28363e+20
-50.1478  3.27074e+20
-50.0305  3.28783e+20
-49.9132  3.37724e+20
-49.7959  3.57631e+20
-49.6786  3.90449e+20
-49.5613  4.35337e+20
-49.444  4.88705e+20
-49.3267  5.44894e+20
-49.2094  5.9716e+20
-49.092  6.39432e+20
-48.9747  6.67535e+20
-48.8574  6.79885e+20
-48.7401  6.77895e+20
-48.6228  6.65182e+20
-48.5055  6.46445e+20
-48.3882  6.26331e+20
-48.2709  6.0809e+20
-48.1536  5.93048e+20
-48.0363  5.80929e+20
-47.919  5.69744e+20
-47.8017  5.57766e+20
-47.6844  5.43596e+20
-47.5671  5.27882e+20
-47.4498  5.1284e+20
-47.3325  5.02132e+20
-47.2152  4.99828e+20
-47.0979  5.09316e+20
-46.9806  5.32005e+20
-46.8633  5.66881e+20
-46.7459  6.10224e+20
-46.6286  6.56487e+20
-46.5113  6.99141e+20
-46.394  7.32321e+20
-46.2767  7.52069e+20
-46.1594  7.57005e+20
-46.0421  7.48499e+20
-45.9248  7.30445e+20
-45.8075  7.07533e+20
-45.6902  6.84791e+20
-45.5729  6.65625e+20
-45.4556  6.51601e+20
-45.3383  6.41908e+20
-45.221  6.341e+20
-45.1037  6.25127e+20
-44.9864  6.12085e+20
-44.8691  5.94157e+20
-44.7518  5.72239e+20
-44.6345  5.5009e+20
-44.5172  5.32875e+20
-44.3998  5.26883e+20
-44.2825  5.37772e+20
-44.1652  5.69449e+20
-44.0479  6.23674e+20
-43.9306  6.98986e+20
-43.8133  7.917e+20
-43.696  8.96297e+20
-43.5787  1.00647e+21
-43.4614  1.11632e+21
-43.3441  1.22131e+21
-43.2268  1.31833e+21
-43.1095  1.40633e+21
-42.9922  1.48556e+21
-42.8749  1.55682e+21
-42.7576  1.62128e+21
-42.6403  1.67991e+21
-42.523  1.73348e+21
-42.4057  1.78261e+21
-42.2884  1.82857e+21
-42.171  1.87358e+21
-42.0537  1.92146e+21
-41.9364  1.97725e+21
-41.8191  2.04727e+21
-41.7018  2.13814e+21
-41.5845  2.25532e+21
-41.4672  2.4023e+21
-41.3499  2.57967e+21
-41.2326  2.78473e+21
-41.1153  3.01156e+21
-40.998  3.25177e+21
-40.8807  3.49597e+21
-40.7634  3.73494e+21
-40.6461  3.9618e+21
-40.5288  4.17118e+21
-40.4115  4.36183e+21
-40.2942  4.53458e+21
-40.1769  4.69238e+21
-40.0596  4.83924e+21
-39.9423  4.97956e+21
-39.825  5.11659e+21
-39.7076  5.25329e+21
-39.5903  5.39206e+21
-39.473  5.53508e+21
-39.3557  5.68567e+21
-39.2384  5.84823e+21
-39.1211  6.02846e+21
-39.0038  6.23286e+21
-38.8865  6.46725e+21
-38.7692  6.73667e+21
-38.6519  7.04282e+21
-38.5346  7.38371e+21
-38.4173  7.75421e+21
-38.3  8.14482e+21
-38.1827  8.54437e+21
-38.0654  8.94107e+21
-37.9481  9.32406e+21
-37.8308  9.685e+21
-37.7135  1.00188e+22
-37.5962  1.0324e+22
-37.4789  1.06023e+22
-37.3615  1.08571e+22
-37.2442  1.10937e+22
-37.1269  1.1316e+22
-37.0096  1.15299e+22
-36.8923  1.17386e+22
-36.775  1.19463e+22
-36.6577  1.21578e+22
-36.5404  1.23786e+22
-36.4231  1.26151e+22
-36.3058  1.28745e+22
-36.1885  1.31626e+22
-36.0712  1.34836e+22
-35.9539  1.3839e+22
-35.8366  1.42245e+22
-35.7193  1.46324e+22
-35.602  1.50508e+22
-35.4847  1.54654e+22
-35.3674  1.58608e+22
-35.2501  1.62242e+22
-35.1328  1.65454e+22
-35.0154  1.68195e+22
-34.8981  1.70456e+22
-34.7808  1.72285e+22
-34.6635  1.7375e+22
-34.5462  1.74938e+22
-34.4289  1.7594e+22
-34.3116  1.76833e+22
-34.1943  1.77684e+22
-34.077  1.78549e+22
-33.9597  1.79475e+22
-33.8424  1.80514e+22
-33.7251  1.81722e+22
-33.6078  1.83159e+22
-33.4905  1.84881e+22
-33.3732  1.86937e+22
-33.2559  1.89345e+22
-33.1386  1.92092e+22
-33.0213  1.95119e+22
-32.904  1.98333e+22
-32.7867  2.01613e+22
-32.6693  2.04824e+22
-32.552  2.07842e+22
-32.4347  2.10568e+22
-32.3174  2.12943e+22
-32.2001  2.14954e+22
-32.0828  2.16624e+22
-31.9655  2.18013e+22
-31.8482  2.19192e+22
-31.7309  2.20238e+22
-31.6136  2.21213e+22
-31.4963  2.22168e+22
-31.379  2.23135e+22
-31.2617  2.24133e+22
-31.1444  2.25183e+22
-31.0271  2.26305e+22
-30.9098  2.27525e+22
-30.7925  2.2888e+22
-30.6752  2.304e+22
-30.5579  2.32109e+22
-30.4406  2.34013e+22
-30.3232  2.36092e+22
-30.2059  2.38302e+22
-30.0886  2.40575e+22
-29.9713  2.42839e+22
-29.854  2.45017e+22
-29.7367  2.47059e+22
-29.6194  2.48931e+22
-29.5021  2.50629e+22
-29.3848  2.52182e+22
-29.2675  2.53626e+22
-29.1502  2.55006e+22
-29.0329  2.5636e+22
-28.9156  2.57705e+22
-28.7983  2.59039e+22
-28.681  2.60343e+22
-28.5637  2.61582e+22
-28.4464  2.62725e+22
-28.3291  2.63754e+22
-28.2118  2.64673e+22
-28.0944  2.65503e+22
-27.9771  2.6629e+22
-27.8598  2.67092e+22
-27.7425  2.67956e+22
-27.6252  2.68932e+22
-27.5079  2.70036e+22
-27.3906  2.71266e+22
-27.2733  2.72599e+22
-27.156  2.74e+22
-27.0387  2.75437e+22
-26.9214  2.76883e+22
-26.8041  2.78331e+22
-26.6868  2.79788e+22
-26.5695  2.81289e+22
-26.4522  2.82859e+22
-26.3349  2.84528e+22
-26.2176  2.86308e+22
-26.1003  2.88188e+22
-25.983  2.90133e+22
-25.8657  2.9209e+22
-25.7483  2.93995e+22
-25.631  2.95791e+22
-25.5137  2.97428e+22
-25.3964  2.98889e+22
-25.2791  3.00176e+22
-25.1618  3.01317e+22
-25.0445  3.02357e+22
-24.9272  3.03349e+22
-24.8099  3.0434e+22
-24.6926  3.05371e+22
-24.5753  3.0647e+22
-24.458  3.07657e+22
-24.3407  3.08951e+22
-24.2234  3.10369e+22
-24.1061  3.11937e+22
-23.9888  3.13693e+22
-23.8715  3.15674e+22
-23.7542  3.17915e+22
-23.6369  3.20434e+22
-23.5196  3.23223e+22
-23.4023  3.26243e+22
-23.2849  3.29414e+22
-23.1676  3.32634e+22
-23.0503  3.35783e+22
-22.933  3.38744e+22
-22.8157  3.41419e+22
-22.6984  3.43738e+22
-22.5811  3.45685e+22
-22.4638  3.47278e+22
-22.3465  3.48575e+22
-22.2292  3.49654e+22
-22.1119  3.50602e+22
-21.9946  3.51497e+22
-21.8773  3.52399e+22
-21.76  3.53344e+22
-21.6427  3.54352e+22
-21.5254  3.55419e+22
-21.4081  3.56546e+22
-21.2908  3.57729e+22
-21.1735  3.58974e+22
-21.0561  3.60293e+22
-20.9388  3.61702e+22
-20.8215  3.63206e+22
-20.7042  3.648e+22
-20.5869  3.66463e+22
-20.4696  3.6815e+22
-20.3523  3.69812e+22
-20.235  3.71388e+22
-20.1177  3.72828e+22
-20.0004  3.74107e+22
-19.8831  3.75218e+22
-19.7658  3.76184e+22
-19.6485  3.7705e+22
-19.5312  3.77867e+22
-19.4139  3.78684e+22
-19.2966  3.79536e+22
-19.1793  3.80433e+22
-19.062  3.8136e+22
-18.9447  3.82288e+22
-18.8274  3.8318e+22
-18.71  3.84003e+22
-18.5927  3.84748e+22
-18.4754  3.85428e+22
-18.3581  3.86078e+22
-18.2408  3.86762e+22
-18.1235  3.87541e+22
-18.0062  3.88472e+22
-17.8889  3.89594e+22
-17.7716  3.90918e+22
-17.6543  3.92431e+22
-17.537  3.94101e+22
-17.4197  3.95883e+22
-17.3024  3.9774e+22
-17.1851  3.99653e+22
-17.0678  4.01615e+22
-16.9505  4.0364e+22
-16.8332  4.05749e+22
-16.7159  4.07963e+22
-16.5986  4.10283e+22
-16.4813  4.12689e+22
-16.364  4.15134e+22
-16.2466  4.17549e+22
-16.1293  4.19852e+22
-16.012  4.21971e+22
-15.8947  4.23852e+22
-15.7774  4.25472e+22
-15.6601  4.26842e+22
-15.5428  4.28007e+22
-15.4255  4.2903e+22
-15.3082  4.29986e+22
-15.1909  4.30934e+22
-15.0736  4.31917e+22
-14.9563  4.32958e+22
-14.839  4.34052e+22
-14.7217  4.35181e+22
-14.6044  4.36328e+22
-14.4871  4.3748e+22
-14.3698  4.3864e+22
-14.2525  4.39827e+22
-14.1352  4.41069e+22
-14.0178  4.42394e+22
-13.9005  4.43818e+22
-13.7832  4.45336e+22
-13.6659  4.46915e+22
-13.5486  4.48503e+22
-13.4313  4.50025e+22
-13.314  4.51405e+22
-13.1967  4.52584e+22
-13.0794  4.53523e+22
-12.9621  4.54211e+22
-12.8448  4.54672e+22
-12.7275  4.54952e+22
-12.6102  4.5511e+22
-12.4929  4.55205e+22
-12.3756  4.55283e+22
-12.2583  4.55376e+22
-12.141  4.55496e+22
-12.0237  4.55647e+22
-11.9064  4.55826e+22
-11.7891  4.56043e+22
-11.6718  4.56319e+22
-11.5544  4.56692e+22
-11.4371  4.5721e+22
-11.3198  4.57923e+22
-11.2025  4.58872e+22
-11.0852  4.60073e+22
-10.9679  4.61517e+22
-10.8506  4.63158e+22
-10.7333  4.64929e+22
-10.616  4.66749e+22
-10.4987  4.68536e+22
-10.3814  4.70222e+22
-10.2641  4.71768e+22
-10.1468  4.73165e+22
-10.0295  4.74427e+22
-9.91217  4.75597e+22
-9.79487  4.76717e+22
-9.67756  4.77827e+22
-9.56026  4.78955e+22
-9.44295  4.80105e+22
-9.32565  4.81265e+22
-9.20834  4.82412e+22
-9.09104  4.83518e+22
-8.97373  4.84561e+22
-8.85643  4.85542e+22
-8.73913  4.86469e+22
-8.62182  4.87368e+22
-8.50452  4.88272e+22
-8.38721  4.89212e+22
-8.26991  4.9021e+22
-8.1526  4.91274e+22
-8.03529  4.92391e+22
-7.91799  4.93539e+22
-7.80069  4.94694e+22
-7.68338  4.95832e+22
-7.56608  4.96939e+22
-7.44877  4.98021e+22
-7.33146  4.99095e+22
-7.21416  5.00182e+22
-7.09685  5.013e+22
-6.97955  5.02456e+22
-6.86224  5.03632e+22
-6.74494  5.04784e+22
-6.62763  5.05851e+22
-6.51033  5.0676e+22
-6.39302  5.07437e+22
-6.27572  5.0783e+22
-6.15842  5.07914e+22
-6.04111  5.07703e+22
-5.92381  5.07247e+22
-5.8065  5.0662e+22
-5.68919  5.05912e+22
-5.57189  5.05216e+22
-5.45458  5.04604e+22
-5.33728  5.04124e+22
-5.21997  5.03797e+22
-5.10267  5.03621e+22
-4.98536  5.03573e+22
-4.86806  5.03633e+22
-4.75075  5.03781e+22
-4.63345  5.0401e+22
-4.51614  5.04327e+22
-4.39884  5.04747e+22
-4.28154  5.0528e+22
-4.16423  5.05934e+22
-4.04692  5.06691e+22
-3.92962  5.07517e+22
-3.81231  5.08359e+22
-3.69501  5.09158e+22
-3.5777  5.09854e+22
-3.4604  5.10408e+22
-3.34309  5.10804e+22
-3.22579  5.11056e+22
-3.10849  5.11206e+22
-2.99118  5.11308e+22
-2.87387  5.11423e+22
-2.75657  5.11601e+22
-2.63926  5.11874e+22
-2.52196  5.12248e+22
-2.40465  5.1271e+22
-2.28735  5.13229e+22
-2.17005  5.13777e+22
-2.05274  5.14331e+22
-1.93544  5.14887e+22
-1.81813  5.15462e+22
-1.70083  5.16083e+22
-1.58352  5.16782e+22
-1.46622  5.17586e+22
-1.34891  5.18501e+22
-1.2316  5.1951e+22
-1.1143  5.20568e+22
-0.996995  5.21616e+22
-0.87969  5.2259e+22
-0.762385  5.2343e+22
-0.64508  5.24099e+22
-0.527775  5.24587e+22
-0.41047  5.2491e+22
-0.293165  5.25101e+22
-0.17586  5.25205e+22
-0.058555  5.25255e+22
0.05875  5.2527e+22
0.176055  5.25242e+22
0.29336  5.25143e+22
0.410665  5.2493e+22
0.52797  5.24562e+22
0.645275  5.24008e+22
0.76258  5.23262e+22
0.879885  5.22346e+22
0.99719  5.21309e+22
1.1145  5.20215e+22
1.2318  5.19134e+22
1.3491  5.1812e+22
1.46641  5.17211e+22
1.58371  5.16417e+22
1.70102  5.15723e+22
1.81832  5.15099e+22
1.93563  5.1451e+22
2.05294  5.13934e+22
2.17024  5.1336e+22
2.28754  5.12798e+22
2.40485  5.12277e+22
2.52216  5.11825e+22
2.63946  5.11466e+22
2.75677  5.11209e+22
2.87407  5.11036e+22
2.99137  5.10909e+22
3.10868  5.10772e+22
3.22599  5.10562e+22
3.34329  5.1023e+22
3.4606  5.09746e+22
3.5779  5.09107e+22
3.69521  5.0834e+22
3.81251  5.07495e+22
3.92982  5.06633e+22
4.04712  5.05811e+22
4.16443  5.05074e+22
4.28173  5.04451e+22
4.39903  5.03943e+22
4.51634  5.03543e+22
4.63364  5.03234e+22
4.75095  5.03001e+22
4.86825  5.02846e+22
4.98556  5.02783e+22
5.10286  5.02833e+22
5.22017  5.03022e+22
5.33748  5.03371e+22
5.45478  5.03874e+22
5.57209  5.045e+22
5.68939  5.05193e+22
5.8067  5.05868e+22
5.924  5.06436e+22
6.0413  5.06806e+22
6.15861  5.06913e+22
6.27591  5.0672e+22
6.39322  5.0623e+22
6.51052  5.05477e+22
6.62783  5.04523e+22
6.74514  5.03439e+22
6.86244  5.02296e+22
6.97975  5.01146e+22
7.09705  5.00021e+22
7.21436  4.98925e+22
7.33166  4.97847e+22
7.44897  4.96765e+22
7.56627  4.9566e+22
7.68358  4.94522e+22
7.80088  4.93353e+22
7.91819  4.92173e+22
8.03549  4.91009e+22
8.1528  4.89885e+22
8.2701  4.88822e+22
8.38741  4.87822e+22
8.50471  4.86874e+22
8.62202  4.8595e+22
8.73932  4.85019e+22
8.85662  4.84051e+22
8.97393  4.83026e+22
9.09123  4.81942e+22
9.20854  4.80813e+22
9.32584  4.7966e+22
9.44315  4.78512e+22
9.56045  4.77385e+22
9.67776  4.76285e+22
9.79506  4.75193e+22
9.91237  4.74073e+22
10.0297  4.72881e+22
10.147  4.71571e+22
10.2643  4.70109e+22
10.3816  4.68489e+22
10.4989  4.66733e+22
10.6162  4.64893e+22
10.7335  4.63042e+22
10.8508  4.61266e+22
10.9681  4.59642e+22
11.0854  4.58232e+22
11.2027  4.57068e+22
11.32  4.56154e+22
11.4373  4.55462e+22
11.5546  4.54952e+22
11.6719  4.54575e+22
11.7893  4.54291e+22
11.9066  4.54065e+22
12.0239  4.53885e+22
12.1412  4.53746e+22
12.2585  4.53646e+22
12.3758  4.53574e+22
12.4931  4.5351e+22
12.6104  4.53412e+22
12.7277  4.53225e+22
12.845  4.52886e+22
12.9623  4.52342e+22
13.0796  4.51555e+22
13.1969  4.50511e+22
13.3142  4.49236e+22
13.4315  4.4778e+22
13.5488  4.46211e+22
13.6661  4.44609e+22
13.7834  4.43037e+22
13.9007  4.41546e+22
14.018  4.40157e+22
14.1354  4.38865e+22
14.2527  4.37649e+22
14.37  4.36478e+22
14.4873  4.35324e+22
14.6046  4.34173e+22
14.7219  4.33028e+22
14.8392  4.31904e+22
14.9565  4.30818e+22
15.0738  4.29786e+22
15.1911  4.28801e+22
15.3084  4.27839e+22
15.4257  4.26848e+22
15.543  4.25766e+22
15.6603  4.24524e+22
15.7776  4.23066e+22
15.8949  4.2136e+22
16.0122  4.19407e+22
16.1295  4.17241e+22
16.2468  4.14924e+22
16.3641  4.1253e+22
16.4815  4.10133e+22
16.5988  4.07791e+22
16.7161  4.05538e+22
16.8334  4.03382e+22
16.9507  4.01311e+22
17.068  3.99303e+22
17.1853  3.97335e+22
17.3026  3.95403e+22
17.4199  3.93522e+22
17.5372  3.91719e+22
17.6545  3.90044e+22
17.7718  3.88538e+22
17.8891  3.87232e+22
18.0064  3.86132e+22
18.1237  3.85222e+22
18.241  3.84453e+22
18.3583  3.83766e+22
18.4756  3.83095e+22
18.5929  3.82391e+22
18.7102  3.81619e+22
18.8275  3.80778e+22
18.9449  3.79883e+22
19.0622  3.78969e+22
19.1795  3.7807e+22
19.2968  3.77206e+22
19.4141  3.76384e+22
19.5314  3.75583e+22
19.6487  3.74759e+22
19.766  3.73862e+22
19.8833  3.72841e+22
20.0006  3.7166e+22
20.1179  3.70306e+22
20.2352  3.68798e+22
20.3525  3.67171e+22
20.4698  3.65482e+22
20.5871  3.6379e+22
20.7044  3.62145e+22
20.8217  3.60576e+22
20.939  3.59103e+22
21.0563  3.57724e+22
21.1736  3.56426e+22
21.291  3.55194e+22
21.4083  3.54023e+22
21.5256  3.52909e+22
21.6429  3.51857e+22
21.7602  3.50872e+22
21.8775  3.4995e+22
21.9948  3.49065e+22
22.1121  3.48173e+22
22.2294  3.472e+22
22.3467  3.46065e+22
22.464  3.4468e+22
22.5813  3.42968e+22
22.6986  3.40886e+22
22.8159  3.38428e+22
22.9332  3.35633e+22
23.0505  3.32582e+22
23.1678  3.29382e+22
23.2851  3.26158e+22
23.4024  3.23023e+22
23.5198  3.20071e+22
23.6371  3.17368e+22
23.7544  3.1494e+22
23.8717  3.12784e+22
23.989  3.10871e+22
24.1063  3.09169e+22
24.2236  3.07636e+22
24.3409  3.06245e+22
24.4582  3.04971e+22
24.5755  3.03799e+22
24.6928  3.02711e+22
24.8101  3.01683e+22
24.9274  3.00685e+22
25.0447  2.99668e+22
25.162  2.98583e+22
25.2793  2.9738e+22
25.3966  2.96023e+22
25.5139  2.94491e+22
25.6312  2.92794e+22
25.7485  2.90965e+22
25.8658  2.89056e+22
25.9832  2.8713e+22
26.1005  2.85247e+22
26.2178  2.8345e+22
26.3351  2.81761e+22
26.4524  2.80179e+22
26.5697  2.78678e+22
26.687  2.77228e+22
26.8043  2.75796e+22
26.9216  2.74355e+22
27.0389  2.72909e+22
27.1562  2.7147e+22
27.2735  2.70069e+22
27.3908  2.68744e+22
27.5081  2.67534e+22
27.6254  2.66449e+22
27.7427  2.65491e+22
27.86  2.64632e+22
27.9773  2.63828e+22
28.0946  2.63028e+22
28.212  2.62182e+22
28.3293  2.61251e+22
28.4466  2.60225e+22
28.5639  2.59106e+22
28.6812  2.57912e+22
28.7985  2.56673e+22
28.9158  2.55413e+22
29.0331  2.54138e+22
29.1504  2.52836e+22
29.2677  2.51479e+22
29.385  2.50022e+22
29.5023  2.4842e+22
29.6196  2.46641e+22
29.7369  2.44671e+22
29.8542  2.42529e+22
29.9715  2.40261e+22
30.0888  2.37935e+22
30.2061  2.35626e+22
30.3234  2.33412e+22
30.4407  2.31355e+22
30.558  2.29488e+22
30.6754  2.27823e+22
30.7927  2.2635e+22
30.91  2.25035e+22
31.0273  2.23847e+22
31.1446  2.22753e+22
31.2619  2.21725e+22
31.3792  2.20738e+22
31.4965  2.19774e+22
31.6138  2.18803e+22
31.7311  2.17787e+22
31.8484  2.16667e+22
31.9657  2.15374e+22
32.083  2.13833e+22
32.2003  2.11979e+22
32.3176  2.09763e+22
32.4349  2.07181e+22
32.5522  2.04262e+22
32.6695  2.01087e+22
32.7868  1.97765e+22
32.9042  1.9443e+22
33.0215  1.91211e+22
33.1388  1.88224e+22
33.2561  1.85549e+22
33.3734  1.83224e+22
33.4907  1.81252e+22
33.608  1.79599e+22
33.7253  1.78214e+22
33.8426  1.77036e+22
33.9599  1.76003e+22
34.0772  1.75061e+22
34.1945  1.74161e+22
34.3118  1.7325e+22
34.4291  1.7227e+22
34.5464  1.71151e+22
34.6637  1.69807e+22
34.781  1.68156e+22
34.8983  1.66107e+22
35.0156  1.6361e+22
35.1329  1.60633e+22
35.2503  1.57205e+22
35.3676  1.53393e+22
35.4849  1.49313e+22
35.6022  1.45111e+22
35.7195  1.40934e+22
35.8368  1.3692e+22
35.9541  1.33174e+22
36.0714  1.2976e+22
36.1887  1.26693e+22
36.306  1.23944e+22
36.4233  1.21465e+22
36.5406  1.19186e+22
36.6579  1.17032e+22
36.7752  1.14944e+22
36.8925  1.1287e+22
37.0098  1.10764e+22
37.1271  1.08587e+22
37.2444  1.06301e+22
37.3617  1.03859e+22
37.479  1.01217e+22
37.5964  9.83305e+21
37.7137  9.51702e+21
37.831  9.1736e+21
37.9483  8.80596e+21
38.0656  8.41969e+21
38.1829  8.02485e+21
38.3002  7.63306e+21
38.4175  7.25577e+21
38.5348  6.90339e+21
38.6521  6.58345e+21
38.7694  6.29974e+21
38.8867  6.0522e+21
39.004  5.83749e+21
39.1213  5.64958e+21
39.2386  5.48243e+21
39.3559  5.32957e+21
39.4732  5.18623e+21
39.5905  5.04868e+21
39.7078  4.91474e+21
39.8251  4.78223e+21
39.9425  4.6491e+21
40.0598  4.51218e+21
40.1771  4.36804e+21
40.2944  4.21193e+21
40.4117  4.04022e+21
40.529  3.85037e+21
40.6463  3.64199e+21
40.7636  3.4181e+21
40.8809  3.1846e+21
40.9982  2.94946e+21
41.1155  2.72216e+21
41.2328  2.51173e+21
41.3501  2.32564e+21
41.4674  2.16819e+21
41.5847  2.04117e+21
41.702  1.94194e+21
41.8193  1.86646e+21
41.9366  1.80848e+21
42.0539  1.76178e+21
42.1712  1.72064e+21
42.2885  1.68111e+21
42.4059  1.63986e+21
42.5232  1.59567e+21
42.6405  1.54748e+21
42.7578  1.49441e+21
42.8751  1.4354e+21
42.9924  1.3693e+21
43.1097  1.29442e+21
43.227  1.20982e+21
43.3443  1.11581e+21
43.4616  1.01419e+21
43.5789  9.08627e+20
43.6962  8.04443e+20
43.8135  7.07899e+20
43.9308  6.25145e+20
44.0481  5.61091e+20
44.1654  5.18673e+20
44.2827  4.97871e+20
44.4  4.96055e+20
44.5173  5.08633e+20
44.6347  5.29604e+20
44.752  5.53272e+20
44.8693  5.75005e+20
44.9866  5.92565e+20
45.1039  6.05601e+20
45.2212  6.16077e+20
45.3385  6.26729e+20
45.4558  6.40494e+20
45.5731  6.58958e+20
45.6904  6.81969e+20
45.8077  7.07111e+20
45.925  7.30355e+20
46.0423  7.46819e+20
46.1596  7.51936e+20
46.2769  7.43013e+20
46.3942  7.19579e+20
46.5115  6.83984e+20
46.6288  6.40918e+20
46.7461  5.96376e+20
46.8634  5.5651e+20
46.9808  5.26098e+20
47.0981  5.07864e+20
47.2154  5.01958e+20
47.3327  5.06391e+20
47.45  5.17533e+20
47.5673  5.3154e+20
47.6846  5.45468e+20
47.8019  5.57889e+20
47.9192  5.68798e+20
48.0365  5.79817e+20
48.1538  5.92823e+20
48.2711  6.09002e+20
48.3884  6.2821e+20
48.5057  6.48382e+20
48.623  6.65634e+20
48.7403  6.7524e+20
48.8576  6.72876e+20
48.9749  6.55468e+20
49.0922  6.22827e+20
49.2095  5.77286e+20
49.3269  5.2375e+20
49.4442  4.68482e+20
49.5615  4.18071e+20
49.6788  3.77387e+20
49.7961  3.49083e+20
49.9134  3.33048e+20
50.0307  3.26536e+20
50.148  3.25671e+20
50.2653  3.26247e+20
50.3826  3.25446e+20
50.4999  3.22408e+20
50.6172  3.1871e+20
50.7345  3.17383e+20
50.8518  3.22199e+20
