#S 1 spectral density
#N 2
#UFWHM 50.3238
#L  abscissas [um]  spectral density
-58.5938  3.70306e+20
-58.4764  3.51294e+20
-58.3591  3.30648e+20
-58.2418  3.12378e+20
-58.1245  2.99966e+20
-58.0072  2.95755e+20
-57.8899  3.0013e+20
-57.7726  3.11512e+20
-57.6553  3.26805e+20
-57.538  3.4185e+20
-57.4207  3.52653e+20
-57.3034  3.5631e+20
-57.1861  3.51632e+20
-57.0688  3.39752e+20
-56.9515  3.23521e+20
-56.8342  3.07193e+20
-56.7169  2.95131e+20
-56.5996  2.90859e+20
-56.4823  2.96274e+20
-56.365  3.11087e+20
-56.2477  3.32816e+20
-56.1303  3.57388e+20
-56.013  3.80296e+20
-55.8957  3.97317e+20
-55.7784  4.05714e+20
-55.6611  4.04734e+20
-55.5438  3.95447e+20
-55.4265  3.80576e+20
-55.3092  3.63424e+20
-55.1919  3.46892e+20
-55.0746  3.329e+20
-54.9573  3.21541e+20
-54.84  3.11751e+20
-54.7227  3.01164e+20
-54.6054  2.87684e+20
-54.4881  2.70038e+20
-54.3708  2.48453e+20
-54.2535  2.2523e+20
-54.1362  2.04102e+20
-54.0189  1.89536e+20
-53.9016  1.85519e+20
-53.7842  1.94484e+20
-53.6669  2.16597e+20
-53.5496  2.49369e+20
-53.4323  2.88433e+20
-53.315  3.28167e+20
-53.1977  3.63174e+20
-53.0804  3.89635e+20
-52.9631  4.05808e+20
-52.8458  4.12557e+20
-52.7285  4.12971e+20
-52.6112  4.10822e+20
-52.4939  4.09829e+20
-52.3766  4.12353e+20
-52.2593  4.18595e+20
-52.142  4.26629e+20
-52.0247  4.33063e+20
-51.9074  4.34175e+20
-51.7901  4.27178e+20
-51.6728  4.11463e+20
-51.5555  3.88793e+20
-51.4381  3.63429e+20
-51.3208  3.41147e+20
-51.2035  3.27651e+20
-51.0862  3.27381e+20
-50.9689  3.42221e+20
-50.8516  3.70972e+20
-50.7343  4.09764e+20
-50.617  4.52773e+20
-50.4997  4.93952e+20
-50.3824  5.28251e+20
-50.2651  5.52967e+20
-50.1478  5.68064e+20
-50.0305  5.76123e+20
-49.9132  5.80889e+20
-49.7959  5.86526e+20
-49.6786  5.96178e+20
-49.5613  6.10538e+20
-49.444  6.28509e+20
-49.3267  6.46767e+20
-49.2094  6.61217e+20
-49.092  6.67967e+20
-48.9747  6.64863e+20
-48.8574  6.51785e+20
-48.7401  6.30468e+20
-48.6228  6.04616e+20
-48.5055  5.77929e+20
-48.3882  5.53757e+20
-48.2709  5.33617e+20
-48.1536  5.16883e+20
-48.0363  5.01426e+20
-47.919  4.83927e+20
-47.8017  4.61362e+20
-47.6844  4.32181e+20
-47.5671  3.97058e+20
-47.4498  3.59077e+20
-47.3325  3.23202e+20
-47.2152  2.95202e+20
-47.0979  2.80233e+20
-46.9806  2.81549e+20
-46.8633  2.9953e+20
-46.7459  3.31514e+20
-46.6286  3.72187e+20
-46.5113  4.14928e+20
-46.394  4.52908e+20
-46.2767  4.80768e+20
-46.1594  4.95438e+20
-46.0421  4.96424e+20
-45.9248  4.85701e+20
-45.8075  4.66787e+20
-45.6902  4.43656e+20
-45.5729  4.19628e+20
-45.4556  3.9682e+20
-45.3383  3.75369e+20
-45.221  3.54535e+20
-45.1037  3.32993e+20
-44.9864  3.09675e+20
-44.8691  2.84918e+20
-44.7518  2.60718e+20
-44.6345  2.40632e+20
-44.5172  2.29244e+20
-44.3998  2.31102e+20
-44.2825  2.49796e+20
-44.1652  2.86785e+20
-44.0479  3.40954e+20
-43.9306  4.08718e+20
-43.8133  4.84424e+20
-43.696  5.61542e+20
-43.5787  6.33782e+20
-43.4614  6.96252e+20
-43.3441  7.46267e+20
-43.2268  7.83423e+20
-43.1095  8.09405e+20
-42.9922  8.27259e+20
-42.8749  8.40548e+20
-42.7576  8.52005e+20
-42.6403  8.63073e+20
-42.523  8.73718e+20
-42.4057  8.82473e+20
-42.2884  8.87033e+20
-42.171  8.85134e+20
-42.0537  8.75269e+20
-41.9364  8.57184e+20
-41.8191  8.32025e+20
-41.7018  8.02112e+20
-41.5845  7.70376e+20
-41.4672  7.39599e+20
-41.3499  7.11575e+20
-41.2326  6.87037e+20
-41.1153  6.65594e+20
-40.998  6.46255e+20
-40.8807  6.28162e+20
-40.7634  6.11154e+20
-40.6461  5.96947e+20
-40.5288  5.88614e+20
-40.4115  5.90595e+20
-40.2942  6.07874e+20
-40.1769  6.4455e+20
-40.0596  7.0302e+20
-39.9423  7.82586e+20
-39.825  8.79203e+20
-39.7076  9.85935e+20
-39.5903  1.09388e+21
-39.473  1.19311e+21
-39.3557  1.27485e+21
-39.2384  1.33263e+21
-39.1211  1.36291e+21
-39.0038  1.36622e+21
-38.8865  1.34575e+21
-38.7692  1.30719e+21
-38.6519  1.25757e+21
-38.5346  1.20384e+21
-38.4173  1.1528e+21
-38.3  1.11027e+21
-38.1827  1.08172e+21
-38.0654  1.07278e+21
-37.9481  1.08927e+21
-37.8308  1.13791e+21
-37.7135  1.22556e+21
-37.5962  1.35862e+21
-37.4789  1.54171e+21
-37.3615  1.77642e+21
-37.2442  2.05991e+21
-37.1269  2.38475e+21
-37.0096  2.73917e+21
-36.8923  3.10746e+21
-36.775  3.47285e+21
-36.6577  3.81882e+21
-36.5404  4.1315e+21
-36.4231  4.40138e+21
-36.3058  4.62413e+21
-36.1885  4.80065e+21
-36.0712  4.93627e+21
-35.9539  5.0398e+21
-35.8366  5.12207e+21
-35.7193  5.19508e+21
-35.602  5.27083e+21
-35.4847  5.3611e+21
-35.3674  5.47773e+21
-35.2501  5.63219e+21
-35.1328  5.83567e+21
-35.0154  6.09863e+21
-34.8981  6.42923e+21
-34.7808  6.83265e+21
-34.6635  7.30872e+21
-34.5462  7.85159e+21
-34.4289  8.44908e+21
-34.3116  9.08265e+21
-34.1943  9.72991e+21
-34.077  1.03667e+22
-33.9597  1.0969e+22
-33.8424  1.15169e+22
-33.7251  1.19964e+22
-33.6078  1.24004e+22
-33.4905  1.27295e+22
-33.3732  1.29906e+22
-33.2559  1.31956e+22
-33.1386  1.33589e+22
-33.0213  1.34962e+22
-32.904  1.3622e+22
-32.7867  1.375e+22
-32.6693  1.38912e+22
-32.552  1.40552e+22
-32.4347  1.42499e+22
-32.3174  1.44823e+22
-32.2001  1.47571e+22
-32.0828  1.50775e+22
-31.9655  1.54435e+22
-31.8482  1.58518e+22
-31.7309  1.62953e+22
-31.6136  1.67632e+22
-31.4963  1.7242e+22
-31.379  1.77158e+22
-31.2617  1.81706e+22
-31.1444  1.85934e+22
-31.0271  1.8976e+22
-30.9098  1.93136e+22
-30.7925  1.96075e+22
-30.6752  1.98616e+22
-30.5579  2.00833e+22
-30.4406  2.02806e+22
-30.3232  2.04617e+22
-30.2059  2.0633e+22
-30.0886  2.07997e+22
-29.9713  2.09656e+22
-29.854  2.11335e+22
-29.7367  2.13068e+22
-29.6194  2.14887e+22
-29.5021  2.16834e+22
-29.3848  2.18958e+22
-29.2675  2.21293e+22
-29.1502  2.23866e+22
-29.0329  2.26678e+22
-28.9156  2.29697e+22
-28.7983  2.32863e+22
-28.681  2.36098e+22
-28.5637  2.39306e+22
-28.4464  2.42404e+22
-28.3291  2.45321e+22
-28.2118  2.48022e+22
-28.0944  2.50496e+22
-27.9771  2.52774e+22
-27.8598  2.54895e+22
-27.7425  2.56915e+22
-27.6252  2.5888e+22
-27.5079  2.6082e+22
-27.3906  2.62744e+22
-27.2733  2.6464e+22
-27.156  2.66483e+22
-27.0387  2.68249e+22
-26.9214  2.69915e+22
-26.8041  2.71478e+22
-26.6868  2.72948e+22
-26.5695  2.74357e+22
-26.4522  2.75738e+22
-26.3349  2.77133e+22
-26.2176  2.78564e+22
-26.1003  2.80046e+22
-25.983  2.81573e+22
-25.8657  2.83127e+22
-25.7483  2.84684e+22
-25.631  2.86227e+22
-25.5137  2.87749e+22
-25.3964  2.89263e+22
-25.2791  2.90796e+22
-25.1618  2.92387e+22
-25.0445  2.94076e+22
-24.9272  2.95888e+22
-24.8099  2.97831e+22
-24.6926  2.99895e+22
-24.5753  3.02034e+22
-24.458  3.04192e+22
-24.3407  3.06311e+22
-24.2234  3.08331e+22
-24.1061  3.10219e+22
-23.9888  3.11966e+22
-23.8715  3.13585e+22
-23.7542  3.15114e+22
-23.6369  3.166e+22
-23.5196  3.18088e+22
-23.4023  3.19612e+22
-23.2849  3.21186e+22
-23.1676  3.2281e+22
-23.0503  3.24467e+22
-22.933  3.26138e+22
-22.8157  3.27812e+22
-22.6984  3.29486e+22
-22.5811  3.31187e+22
-22.4638  3.32947e+22
-22.3465  3.34816e+22
-22.2292  3.3684e+22
-22.1119  3.39049e+22
-21.9946  3.4145e+22
-21.8773  3.44027e+22
-21.76  3.46732e+22
-21.6427  3.49506e+22
-21.5254  3.52276e+22
-21.4081  3.54989e+22
-21.2908  3.576e+22
-21.1735  3.60095e+22
-21.0561  3.6248e+22
-20.9388  3.64781e+22
-20.8215  3.6703e+22
-20.7042  3.69252e+22
-20.5869  3.71463e+22
-20.4696  3.73658e+22
-20.3523  3.7582e+22
-20.235  3.77918e+22
-20.1177  3.79928e+22
-20.0004  3.81836e+22
-19.8831  3.8364e+22
-19.7658  3.85363e+22
-19.6485  3.87046e+22
-19.5312  3.88731e+22
-19.4139  3.90452e+22
-19.2966  3.92239e+22
-19.1793  3.94091e+22
-19.062  3.95989e+22
-18.9447  3.97897e+22
-18.8274  3.99776e+22
-18.71  4.01589e+22
-18.5927  4.03326e+22
-18.4754  4.04989e+22
-18.3581  4.06609e+22
-18.2408  4.08231e+22
-18.1235  4.09906e+22
-18.0062  4.11669e+22
-17.8889  4.13537e+22
-17.7716  4.15502e+22
-17.6543  4.1753e+22
-17.537  4.1957e+22
-17.4197  4.21566e+22
-17.3024  4.2347e+22
-17.1851  4.25262e+22
-17.0678  4.26939e+22
-16.9505  4.28531e+22
-16.8332  4.30078e+22
-16.7159  4.3163e+22
-16.5986  4.33221e+22
-16.4813  4.34869e+22
-16.364  4.36565e+22
-16.2466  4.38283e+22
-16.1293  4.3998e+22
-16.012  4.41617e+22
-15.8947  4.43169e+22
-15.7774  4.44631e+22
-15.6601  4.46033e+22
-15.5428  4.47415e+22
-15.4255  4.48835e+22
-15.3082  4.50355e+22
-15.1909  4.52008e+22
-15.0736  4.53806e+22
-14.9563  4.55739e+22
-14.839  4.57763e+22
-14.7217  4.59825e+22
-14.6044  4.6187e+22
-14.4871  4.63855e+22
-14.3698  4.6576e+22
-14.2525  4.67585e+22
-14.1352  4.69352e+22
-14.0178  4.71093e+22
-13.9005  4.72836e+22
-13.7832  4.74603e+22
-13.6659  4.76388e+22
-13.5486  4.78175e+22
-13.4313  4.79929e+22
-13.314  4.81613e+22
-13.1967  4.83199e+22
-13.0794  4.84676e+22
-12.9621  4.86053e+22
-12.8448  4.87363e+22
-12.7275  4.88645e+22
-12.6102  4.89947e+22
-12.4929  4.91302e+22
-12.3756  4.92724e+22
-12.2583  4.94209e+22
-12.141  4.95727e+22
-12.0237  4.97245e+22
-11.9064  4.98725e+22
-11.7891  5.00145e+22
-11.6718  5.01503e+22
-11.5544  5.02823e+22
-11.4371  5.04146e+22
-11.3198  5.05524e+22
-11.2025  5.07004e+22
-11.0852  5.08619e+22
-10.9679  5.10371e+22
-10.8506  5.12235e+22
-10.7333  5.14161e+22
-10.616  5.16082e+22
-10.4987  5.17925e+22
-10.3814  5.19634e+22
-10.2641  5.21173e+22
-10.1468  5.22533e+22
-10.0295  5.23727e+22
-9.91217  5.24796e+22
-9.79487  5.25782e+22
-9.67756  5.26724e+22
-9.56026  5.27655e+22
-9.44295  5.28585e+22
-9.32565  5.2951e+22
-9.20834  5.30424e+22
-9.09104  5.31309e+22
-8.97373  5.32163e+22
-8.85643  5.32994e+22
-8.73913  5.33825e+22
-8.62182  5.34683e+22
-8.50452  5.35606e+22
-8.38721  5.3662e+22
-8.26991  5.37737e+22
-8.1526  5.38953e+22
-8.03529  5.4024e+22
-7.91799  5.4156e+22
-7.80069  5.42873e+22
-7.68338  5.44141e+22
-7.56608  5.45346e+22
-7.44877  5.46487e+22
-7.33146  5.47584e+22
-7.21416  5.48664e+22
-7.09685  5.49759e+22
-6.97955  5.50892e+22
-6.86224  5.52068e+22
-6.74494  5.53266e+22
-6.62763  5.54446e+22
-6.51033  5.55556e+22
-6.39302  5.5654e+22
-6.27572  5.5736e+22
-6.15842  5.57994e+22
-6.04111  5.58455e+22
-5.92381  5.58788e+22
-5.8065  5.5905e+22
-5.68919  5.59311e+22
-5.57189  5.59641e+22
-5.45458  5.6008e+22
-5.33728  5.60654e+22
-5.21997  5.61352e+22
-5.10267  5.62149e+22
-4.98536  5.63e+22
-4.86806  5.63866e+22
-4.75075  5.64717e+22
-4.63345  5.65541e+22
-4.51614  5.66342e+22
-4.39884  5.67143e+22
-4.28154  5.6796e+22
-4.16423  5.68814e+22
-4.04692  5.697e+22
-3.92962  5.70598e+22
-3.81231  5.71472e+22
-3.69501  5.72276e+22
-3.5777  5.72961e+22
-3.4604  5.73499e+22
-3.34309  5.73872e+22
-3.22579  5.74102e+22
-3.10849  5.74223e+22
-2.99118  5.74286e+22
-2.87387  5.74344e+22
-2.75657  5.74438e+22
-2.63926  5.74589e+22
-2.52196  5.74794e+22
-2.40465  5.75032e+22
-2.28735  5.75271e+22
-2.17005  5.7548e+22
-2.05274  5.7564e+22
-1.93544  5.75754e+22
-1.81813  5.75846e+22
-1.70083  5.75959e+22
-1.58352  5.76138e+22
-1.46622  5.76423e+22
-1.34891  5.76837e+22
-1.2316  5.77373e+22
-1.1143  5.77998e+22
-0.996995  5.78659e+22
-0.87969  5.79294e+22
-0.762385  5.7985e+22
-0.64508  5.80283e+22
-0.527775  5.80584e+22
-0.41047  5.80764e+22
-0.293165  5.80851e+22
-0.17586  5.80886e+22
-0.058555  5.809e+22
0.05875  5.80908e+22
0.176055  5.80907e+22
0.29336  5.80871e+22
0.410665  5.80759e+22
0.52797  5.80535e+22
0.645275  5.80173e+22
0.76258  5.7967e+22
0.879885  5.79051e+22
0.99719  5.78364e+22
1.1145  5.77672e+22
1.2318  5.77037e+22
1.3491  5.76506e+22
1.46641  5.76106e+22
1.58371  5.7583e+22
1.70102  5.75649e+22
1.81832  5.75519e+22
1.93563  5.75393e+22
2.05294  5.75235e+22
2.17024  5.75026e+22
2.28754  5.74772e+22
2.40485  5.74499e+22
2.52216  5.74241e+22
2.63946  5.74027e+22
2.75677  5.73872e+22
2.87407  5.73774e+22
2.99137  5.737e+22
3.10868  5.73606e+22
3.22599  5.73436e+22
3.34329  5.73146e+22
3.4606  5.72704e+22
3.5779  5.72106e+22
3.69521  5.7137e+22
3.81251  5.70534e+22
3.92982  5.69648e+22
4.04712  5.68751e+22
4.16443  5.67874e+22
4.28173  5.67031e+22
4.39903  5.66206e+22
4.51634  5.65387e+22
4.63364  5.64545e+22
4.75095  5.63669e+22
4.86825  5.62761e+22
4.98556  5.61844e+22
5.10286  5.60956e+22
5.22017  5.60143e+22
5.33748  5.59445e+22
5.45478  5.58885e+22
5.57209  5.58464e+22
5.68939  5.58149e+22
5.8067  5.57883e+22
5.924  5.57599e+22
6.0413  5.57221e+22
6.15861  5.56699e+22
6.27591  5.55998e+22
6.39322  5.55119e+22
6.51052  5.54088e+22
6.62783  5.52954e+22
6.74514  5.51769e+22
6.86244  5.50581e+22
6.97975  5.49421e+22
7.09705  5.48301e+22
7.21436  5.47206e+22
7.33166  5.4611e+22
7.44897  5.44979e+22
7.56627  5.4379e+22
7.68358  5.42535e+22
7.80088  5.4122e+22
7.91819  5.39872e+22
8.03549  5.38535e+22
8.1528  5.37247e+22
8.2701  5.36041e+22
8.38741  5.34936e+22
8.50471  5.33927e+22
8.62202  5.32998e+22
8.73932  5.32117e+22
8.85662  5.31251e+22
8.97393  5.30378e+22
9.09123  5.29479e+22
9.20854  5.28558e+22
9.32584  5.27624e+22
9.44315  5.2669e+22
9.56045  5.25764e+22
9.67776  5.24842e+22
9.79506  5.23901e+22
9.91237  5.22905e+22
10.0297  5.21808e+22
10.147  5.20566e+22
10.2643  5.19148e+22
10.3816  5.17548e+22
10.4989  5.15783e+22
10.6162  5.139e+22
10.7335  5.11962e+22
10.8508  5.10041e+22
10.9681  5.08194e+22
11.0854  5.06466e+22
11.2027  5.04871e+22
11.32  5.03395e+22
11.4373  5.02e+22
11.5546  5.00637e+22
11.6719  4.99261e+22
11.7893  4.97839e+22
11.9066  4.96359e+22
12.0239  4.94832e+22
12.1412  4.93287e+22
12.2585  4.91764e+22
12.3758  4.90293e+22
12.4931  4.88889e+22
12.6104  4.87554e+22
12.7277  4.8626e+22
12.845  4.84967e+22
12.9623  4.83633e+22
13.0796  4.82217e+22
13.1969  4.80694e+22
13.3142  4.79068e+22
13.4315  4.77354e+22
13.5488  4.75586e+22
13.6661  4.738e+22
13.7834  4.72024e+22
13.9007  4.70272e+22
14.018  4.68534e+22
14.1354  4.66788e+22
14.2527  4.65002e+22
14.37  4.63146e+22
14.4873  4.61205e+22
14.6046  4.59185e+22
14.7219  4.57115e+22
14.8392  4.55046e+22
14.9565  4.53034e+22
15.0738  4.51129e+22
15.1911  4.49364e+22
15.3084  4.47746e+22
15.4257  4.4625e+22
15.543  4.44834e+22
15.6603  4.43436e+22
15.7776  4.42009e+22
15.8949  4.40511e+22
16.0122  4.38927e+22
16.1295  4.37268e+22
16.2468  4.35567e+22
16.3641  4.33862e+22
16.4815  4.32191e+22
16.5988  4.30574e+22
16.7161  4.29007e+22
16.8334  4.27465e+22
16.9507  4.25906e+22
17.068  4.24287e+22
17.1853  4.22563e+22
17.3026  4.20723e+22
17.4199  4.18775e+22
17.5372  4.16752e+22
17.6545  4.14705e+22
17.7718  4.12692e+22
17.8891  4.10755e+22
18.0064  4.08921e+22
18.1237  4.0719e+22
18.241  4.0553e+22
18.3583  4.039e+22
18.4756  4.02248e+22
18.5929  4.00536e+22
18.7102  3.98742e+22
18.8275  3.96871e+22
18.9449  3.94944e+22
19.0622  3.93004e+22
19.1795  3.91093e+22
19.2968  3.89241e+22
19.4141  3.87461e+22
19.5314  3.85744e+22
19.6487  3.84058e+22
19.766  3.82363e+22
19.8833  3.80616e+22
20.0006  3.78783e+22
20.1179  3.76849e+22
20.2352  3.7482e+22
20.3525  3.72712e+22
20.4698  3.70555e+22
20.5871  3.68371e+22
20.7044  3.66174e+22
20.8217  3.63956e+22
20.939  3.61696e+22
21.0563  3.59364e+22
21.1736  3.56927e+22
21.291  3.54368e+22
21.4083  3.51687e+22
21.5256  3.48915e+22
21.6429  3.46104e+22
21.7602  3.4332e+22
21.8775  3.4063e+22
21.9948  3.38096e+22
22.1121  3.35754e+22
22.2294  3.33608e+22
22.3467  3.31646e+22
22.464  3.29824e+22
22.5813  3.28093e+22
22.6986  3.26411e+22
22.8159  3.24745e+22
22.9332  3.23081e+22
23.0505  3.21425e+22
23.1678  3.19794e+22
23.2851  3.18208e+22
23.4024  3.16677e+22
23.5198  3.15196e+22
23.6371  3.13741e+22
23.7544  3.12271e+22
23.8717  3.10738e+22
23.989  3.09094e+22
24.1063  3.07313e+22
24.2236  3.05388e+22
24.3409  3.03343e+22
24.4582  3.01222e+22
24.5755  2.99083e+22
24.6928  2.9699e+22
24.8101  2.94992e+22
24.9274  2.93119e+22
25.0447  2.91375e+22
25.162  2.89743e+22
25.2793  2.88187e+22
25.3966  2.86668e+22
25.5139  2.85148e+22
25.6312  2.83609e+22
25.7485  2.82047e+22
25.8658  2.80474e+22
25.9832  2.78914e+22
26.1005  2.77393e+22
26.2178  2.75921e+22
26.3351  2.74502e+22
26.4524  2.73119e+22
26.5697  2.71735e+22
26.687  2.70319e+22
26.8043  2.68835e+22
26.9216  2.67257e+22
27.0389  2.65581e+22
27.1562  2.63818e+22
27.2735  2.61983e+22
27.3908  2.60105e+22
27.5081  2.58198e+22
27.6254  2.56259e+22
27.7427  2.54269e+22
27.86  2.52186e+22
27.9773  2.49959e+22
28.0946  2.47537e+22
28.212  2.44889e+22
28.3293  2.42001e+22
28.4466  2.38899e+22
28.5639  2.35639e+22
28.6812  2.32301e+22
28.7985  2.28979e+22
28.9158  2.25768e+22
29.0331  2.22741e+22
29.1504  2.1995e+22
29.2677  2.1741e+22
29.385  2.15112e+22
29.5023  2.13024e+22
29.6196  2.11102e+22
29.7369  2.09295e+22
29.8542  2.07566e+22
29.9715  2.05876e+22
30.0888  2.04195e+22
30.2061  2.02483e+22
30.3234  2.00699e+22
30.4407  1.98784e+22
30.558  1.96662e+22
30.6754  1.94258e+22
30.7927  1.91488e+22
30.91  1.88302e+22
31.0273  1.84667e+22
31.1446  1.80602e+22
31.2619  1.76164e+22
31.3792  1.71463e+22
31.4965  1.66636e+22
31.6138  1.61825e+22
31.7311  1.57185e+22
31.8484  1.52841e+22
31.9657  1.48882e+22
32.083  1.45367e+22
32.2003  1.42314e+22
32.3176  1.39708e+22
32.4349  1.37509e+22
32.5522  1.35662e+22
32.6695  1.34097e+22
32.7868  1.32728e+22
32.9042  1.31459e+22
33.0215  1.30165e+22
33.1388  1.28711e+22
33.2561  1.26951e+22
33.3734  1.24722e+22
33.4907  1.21898e+22
33.608  1.18372e+22
33.7253  1.14098e+22
33.8426  1.091e+22
33.9599  1.03467e+22
34.0772  9.73669e+21
34.1945  9.1014e+21
34.3118  8.46473e+21
34.4291  7.85019e+21
34.5464  7.27958e+21
34.6637  6.76841e+21
34.781  6.3266e+21
34.8983  5.95767e+21
35.0156  5.66007e+21
35.1329  5.42692e+21
35.2503  5.24938e+21
35.3676  5.11676e+21
35.4849  5.01778e+21
35.6022  4.94092e+21
35.7195  4.87466e+21
35.8368  4.80694e+21
35.9541  4.72605e+21
36.0714  4.6204e+21
36.1887  4.47971e+21
36.306  4.29615e+21
36.4233  4.06595e+21
36.5406  3.79028e+21
36.6579  3.47497e+21
36.7752  3.13156e+21
36.8925  2.77497e+21
37.0098  2.42188e+21
37.1271  2.08879e+21
37.2444  1.78994e+21
37.3617  1.53528e+21
37.479  1.33042e+21
37.5964  1.17592e+21
37.7137  1.06892e+21
37.831  1.00366e+21
37.9483  9.73479e+20
38.0656  9.71357e+20
38.1829  9.91306e+20
38.3002  1.02794e+21
38.4175  1.07594e+21
38.5348  1.1302e+21
38.6521  1.18488e+21
38.7694  1.23326e+21
38.8867  1.26846e+21
39.004  1.28411e+21
39.1213  1.27539e+21
39.2386  1.24006e+21
39.3559  1.17923e+21
39.4732  1.09758e+21
39.5905  1.00249e+21
39.7078  9.03195e+20
39.8251  8.09019e+20
39.9425  7.27922e+20
40.0598  6.65243e+20
40.1771  6.23062e+20
40.2944  6.00493e+20
40.4117  5.93872e+20
40.529  5.98562e+20
40.6463  6.09633e+20
40.7636  6.2354e+20
40.8809  6.3809e+20
40.9982  6.53122e+20
41.1155  6.69575e+20
41.2328  6.89128e+20
41.3501  7.12723e+20
41.4674  7.40627e+20
41.5847  7.71604e+20
41.702  8.03318e+20
41.8193  8.3249e+20
41.9366  8.56462e+20
42.0539  8.73006e+20
42.1712  8.81559e+20
42.2885  8.83026e+20
42.4059  8.78931e+20
42.5232  8.71842e+20
42.6405  8.63612e+20
42.7578  8.54922e+20
42.8751  8.45104e+20
42.9924  8.31856e+20
43.1097  8.11809e+20
43.227  7.8166e+20
43.3443  7.38686e+20
43.4616  6.82299e+20
43.5789  6.1396e+20
43.6962  5.37534e+20
43.8135  4.58815e+20
43.9308  3.84387e+20
44.0481  3.2052e+20
44.1654  2.71882e+20
44.2827  2.41118e+20
44.4  2.28143e+20
44.5173  2.30553e+20
44.6347  2.44342e+20
44.752  2.64997e+20
44.8693  2.88398e+20
44.9866  3.117e+20
45.1039  3.33713e+20
45.2212  3.54651e+20
45.3385  3.75698e+20
45.4558  3.9789e+20
45.5731  4.21474e+20
45.6904  4.45365e+20
45.8077  4.67022e+20
45.925  4.82796e+20
46.0423  4.88938e+20
46.1596  4.82666e+20
46.2769  4.62957e+20
46.3942  4.31406e+20
46.5115  3.91993e+20
46.6288  3.50676e+20
46.7461  3.14068e+20
46.8634  2.88311e+20
46.9808  2.77446e+20
47.0981  2.83005e+20
47.2154  3.03415e+20
47.3327  3.34605e+20
47.45  3.71216e+20
47.5673  4.0787e+20
47.6846  4.40218e+20
47.8019  4.66039e+20
47.9192  4.85699e+20
48.0365  5.01374e+20
48.1538  5.16179e+20
48.2711  5.33239e+20
48.3884  5.54249e+20
48.5057  5.79219e+20
48.623  6.06092e+20
48.7403  6.31265e+20
48.8576  6.51079e+20
48.9749  6.6249e+20
49.0922  6.64187e+20
49.2095  6.56865e+20
49.3269  6.43335e+20
49.4442  6.27313e+20
49.5615  6.1227e+20
49.6788  6.00903e+20
49.7961  5.93474e+20
49.9134  5.88255e+20
50.0307  5.81795e+20
50.148  5.69996e+20
50.2653  5.49531e+20
50.3826  5.18918e+20
50.4999  4.79387e+20
50.6172  4.34796e+20
50.7345  3.90829e+20
50.8518  3.53769e+20
