#S 1 spectral density
#N 2
#UFWHM 73.5502
#L  abscissas [um]  spectral density
-58.5938  8.44387e+20
-58.4764  8.52324e+20
-58.3591  8.53286e+20
-58.2418  8.49837e+20
-58.1245  8.44705e+20
-58.0072  8.3983e+20
-57.8899  8.36161e+20
-57.7726  8.32928e+20
-57.6553  8.28653e+20
-57.538  8.21007e+20
-57.4207  8.08203e+20
-57.3034  7.89436e+20
-57.1861  7.6596e+20
-57.0688  7.40826e+20
-56.9515  7.19028e+20
-56.8342  7.061e+20
-56.7169  7.07629e+20
-56.5996  7.27818e+20
-56.4823  7.68667e+20
-56.365  8.29838e+20
-56.2477  9.08332e+20
-56.1303  9.99253e+20
-56.013  1.09692e+21
-55.8957  1.19618e+21
-55.7784  1.2926e+21
-55.6611  1.38416e+21
-55.5438  1.47053e+21
-55.4265  1.55287e+21
-55.3092  1.63286e+21
-55.1919  1.71207e+21
-55.0746  1.79095e+21
-54.9573  1.8683e+21
-54.84  1.94183e+21
-54.7227  2.00877e+21
-54.6054  2.06641e+21
-54.4881  2.11363e+21
-54.3708  2.15129e+21
-54.2535  2.18287e+21
-54.1362  2.21336e+21
-54.0189  2.24922e+21
-53.9016  2.29631e+21
-53.7842  2.35912e+21
-53.6669  2.43996e+21
-53.5496  2.53754e+21
-53.4323  2.64917e+21
-53.315  2.76975e+21
-53.1977  2.89421e+21
-53.0804  3.01867e+21
-52.9631  3.14062e+21
-52.8458  3.25958e+21
-52.7285  3.37715e+21
-52.6112  3.49501e+21
-52.4939  3.6149e+21
-52.3766  3.73683e+21
-52.2593  3.85907e+21
-52.142  3.97763e+21
-52.0247  4.08804e+21
-51.9074  4.1858e+21
-51.7901  4.26785e+21
-51.6728  4.33441e+21
-51.5555  4.38862e+21
-51.4381  4.43709e+21
-51.3208  4.48771e+21
-51.2035  4.54931e+21
-51.0862  4.62945e+21
-50.9689  4.73224e+21
-50.8516  4.8594e+21
-50.7343  5.00862e+21
-50.617  5.17536e+21
-50.4997  5.35417e+21
-50.3824  5.53964e+21
-50.2651  5.72797e+21
-50.1478  5.91728e+21
-50.0305  6.108e+21
-49.9132  6.30082e+21
-49.7959  6.49695e+21
-49.6786  6.69631e+21
-49.5613  6.89636e+21
-49.444  7.0934e+21
-49.3267  7.28246e+21
-49.2094  7.45818e+21
-49.092  7.61713e+21
-48.9747  7.75878e+21
-48.8574  7.88489e+21
-48.7401  8.00107e+21
-48.6228  8.11493e+21
-48.5055  8.23412e+21
-48.3882  8.36618e+21
-48.2709  8.51561e+21
-48.1536  8.68406e+21
-48.0363  8.87013e+21
-47.919  9.06958e+21
-47.8017  9.27701e+21
-47.6844  9.48704e+21
-47.5671  9.69534e+21
-47.4498  9.89945e+21
-47.3325  1.00983e+22
-47.2152  1.0292e+22
-47.0979  1.04806e+22
-46.9806  1.06637e+22
-46.8633  1.08397e+22
-46.7459  1.10055e+22
-46.6286  1.11579e+22
-46.5113  1.12933e+22
-46.394  1.14111e+22
-46.2767  1.15116e+22
-46.1594  1.15995e+22
-46.0421  1.16815e+22
-45.9248  1.17663e+22
-45.8075  1.18627e+22
-45.6902  1.19784e+22
-45.5729  1.21177e+22
-45.4556  1.22817e+22
-45.3383  1.24673e+22
-45.221  1.2668e+22
-45.1037  1.28754e+22
-44.9864  1.30806e+22
-44.8691  1.32757e+22
-44.7518  1.34552e+22
-44.6345  1.36164e+22
-44.5172  1.37594e+22
-44.3998  1.38867e+22
-44.2825  1.40018e+22
-44.1652  1.41088e+22
-44.0479  1.42106e+22
-43.9306  1.43098e+22
-43.8133  1.44075e+22
-43.696  1.45044e+22
-43.5787  1.46013e+22
-43.4614  1.46996e+22
-43.3441  1.48013e+22
-43.2268  1.49097e+22
-43.1095  1.50276e+22
-42.9922  1.51582e+22
-42.8749  1.53026e+22
-42.7576  1.54604e+22
-42.6403  1.56286e+22
-42.523  1.58023e+22
-42.4057  1.59746e+22
-42.2884  1.61391e+22
-42.171  1.62892e+22
-42.0537  1.64207e+22
-41.9364  1.65315e+22
-41.8191  1.66224e+22
-41.7018  1.66964e+22
-41.5845  1.67575e+22
-41.4672  1.68108e+22
-41.3499  1.68603e+22
-41.2326  1.69089e+22
-41.1153  1.69583e+22
-40.998  1.70087e+22
-40.8807  1.706e+22
-40.7634  1.71125e+22
-40.6461  1.71672e+22
-40.5288  1.72266e+22
-40.4115  1.72943e+22
-40.2942  1.73739e+22
-40.1769  1.7469e+22
-40.0596  1.75814e+22
-39.9423  1.77103e+22
-39.825  1.78524e+22
-39.7076  1.80018e+22
-39.5903  1.8151e+22
-39.473  1.82923e+22
-39.3557  1.84189e+22
-39.2384  1.85267e+22
-39.1211  1.86141e+22
-39.0038  1.86832e+22
-38.8865  1.87379e+22
-38.7692  1.87839e+22
-38.6519  1.88264e+22
-38.5346  1.88701e+22
-38.4173  1.89177e+22
-38.3  1.89701e+22
-38.1827  1.90269e+22
-38.0654  1.90875e+22
-37.9481  1.91513e+22
-37.8308  1.92193e+22
-37.7135  1.92934e+22
-37.5962  1.9377e+22
-37.4789  1.94729e+22
-37.3615  1.95836e+22
-37.2442  1.97095e+22
-37.1269  1.9848e+22
-37.0096  1.99949e+22
-36.8923  2.01431e+22
-36.775  2.0286e+22
-36.6577  2.0417e+22
-36.5404  2.05318e+22
-36.4231  2.06293e+22
-36.3058  2.0711e+22
-36.1885  2.0781e+22
-36.0712  2.08444e+22
-35.9539  2.09067e+22
-35.8366  2.09712e+22
-35.7193  2.10393e+22
-35.602  2.11101e+22
-35.4847  2.1181e+22
-35.3674  2.12488e+22
-35.2501  2.13111e+22
-35.1328  2.1367e+22
-35.0154  2.1418e+22
-34.8981  2.14678e+22
-34.7808  2.15214e+22
-34.6635  2.15833e+22
-34.5462  2.16575e+22
-34.4289  2.17447e+22
-34.3116  2.18435e+22
-34.1943  2.19503e+22
-34.077  2.20598e+22
-33.9597  2.21666e+22
-33.8424  2.22674e+22
-33.7251  2.23607e+22
-33.6078  2.24481e+22
-33.4905  2.25336e+22
-33.3732  2.26223e+22
-33.2559  2.27194e+22
-33.1386  2.28281e+22
-33.0213  2.29491e+22
-32.904  2.30804e+22
-32.7867  2.32172e+22
-32.6693  2.33534e+22
-32.552  2.34829e+22
-32.4347  2.36012e+22
-32.3174  2.37062e+22
-32.2001  2.37985e+22
-32.0828  2.38817e+22
-31.9655  2.39607e+22
-31.8482  2.40403e+22
-31.7309  2.41252e+22
-31.6136  2.42175e+22
-31.4963  2.43178e+22
-31.379  2.44252e+22
-31.2617  2.45371e+22
-31.1444  2.46519e+22
-31.0271  2.47686e+22
-30.9098  2.48872e+22
-30.7925  2.50098e+22
-30.6752  2.51383e+22
-30.5579  2.52748e+22
-30.4406  2.54197e+22
-30.3232  2.55716e+22
-30.2059  2.57265e+22
-30.0886  2.58788e+22
-29.9713  2.60216e+22
-29.854  2.61489e+22
-29.7367  2.62559e+22
-29.6194  2.63409e+22
-29.5021  2.64046e+22
-29.3848  2.6451e+22
-29.2675  2.64853e+22
-29.1502  2.65137e+22
-29.0329  2.65412e+22
-28.9156  2.65716e+22
-28.7983  2.66059e+22
-28.681  2.66438e+22
-28.5637  2.66835e+22
-28.4464  2.67236e+22
-28.3291  2.67629e+22
-28.2118  2.68031e+22
-28.0944  2.68466e+22
-27.9771  2.68984e+22
-27.8598  2.6963e+22
-27.7425  2.70449e+22
-27.6252  2.71463e+22
-27.5079  2.72666e+22
-27.3906  2.74026e+22
-27.2733  2.75483e+22
-27.156  2.76963e+22
-27.0387  2.78394e+22
-26.9214  2.79713e+22
-26.8041  2.80881e+22
-26.6868  2.81887e+22
-26.5695  2.82748e+22
-26.4522  2.83492e+22
-26.3349  2.84163e+22
-26.2176  2.848e+22
-26.1003  2.85429e+22
-25.983  2.86067e+22
-25.8657  2.86716e+22
-25.7483  2.87373e+22
-25.631  2.88036e+22
-25.5137  2.88715e+22
-25.3964  2.8943e+22
-25.2791  2.90211e+22
-25.1618  2.911e+22
-25.0445  2.92128e+22
-24.9272  2.93316e+22
-24.8099  2.94662e+22
-24.6926  2.9614e+22
-24.5753  2.97697e+22
-24.458  2.9927e+22
-24.3407  3.00786e+22
-24.2234  3.02188e+22
-24.1061  3.03436e+22
-23.9888  3.0452e+22
-23.8715  3.05455e+22
-23.7542  3.06276e+22
-23.6369  3.07027e+22
-23.5196  3.07751e+22
-23.4023  3.08469e+22
-23.2849  3.09188e+22
-23.1676  3.0989e+22
-23.0503  3.10542e+22
-22.933  3.11112e+22
-22.8157  3.11567e+22
-22.6984  3.119e+22
-22.5811  3.12127e+22
-22.4638  3.12282e+22
-22.3465  3.12423e+22
-22.2292  3.12605e+22
-22.1119  3.12881e+22
-21.9946  3.13286e+22
-21.8773  3.1383e+22
-21.76  3.145e+22
-21.6427  3.15267e+22
-21.5254  3.16092e+22
-21.4081  3.16943e+22
-21.2908  3.17802e+22
-21.1735  3.18664e+22
-21.0561  3.19544e+22
-20.9388  3.20462e+22
-20.8215  3.21437e+22
-20.7042  3.22478e+22
-20.5869  3.23569e+22
-20.4696  3.24683e+22
-20.3523  3.25764e+22
-20.235  3.2676e+22
-20.1177  3.2762e+22
-20.0004  3.28312e+22
-19.8831  3.28832e+22
-19.7658  3.29209e+22
-19.6485  3.29489e+22
-19.5312  3.29741e+22
-19.4139  3.30029e+22
-19.2966  3.30411e+22
-19.1793  3.30918e+22
-19.062  3.31564e+22
-18.9447  3.32337e+22
-18.8274  3.33217e+22
-18.71  3.34178e+22
-18.5927  3.35209e+22
-18.4754  3.36303e+22
-18.3581  3.37475e+22
-18.2408  3.38741e+22
-18.1235  3.40115e+22
-18.0062  3.41597e+22
-17.8889  3.43167e+22
-17.7716  3.44771e+22
-17.6543  3.46345e+22
-17.537  3.47801e+22
-17.4197  3.4907e+22
-17.3024  3.50093e+22
-17.1851  3.50847e+22
-17.0678  3.51346e+22
-16.9505  3.51635e+22
-16.8332  3.51784e+22
-16.7159  3.51871e+22
-16.5986  3.51966e+22
-16.4813  3.52115e+22
-16.364  3.52338e+22
-16.2466  3.52629e+22
-16.1293  3.52962e+22
-16.012  3.53308e+22
-15.8947  3.5364e+22
-15.7774  3.53958e+22
-15.6601  3.54278e+22
-15.5428  3.54635e+22
-15.4255  3.55072e+22
-15.3082  3.55632e+22
-15.1909  3.56335e+22
-15.0736  3.5718e+22
-14.9563  3.58133e+22
-14.839  3.59141e+22
-14.7217  3.60134e+22
-14.6044  3.61048e+22
-14.4871  3.61831e+22
-14.3698  3.62456e+22
-14.2525  3.62923e+22
-14.1352  3.63259e+22
-14.0178  3.63497e+22
-13.9005  3.63682e+22
-13.7832  3.63841e+22
-13.6659  3.63992e+22
-13.5486  3.64137e+22
-13.4313  3.64263e+22
-13.314  3.64363e+22
-13.1967  3.64435e+22
-13.0794  3.64494e+22
-12.9621  3.6458e+22
-12.8448  3.64744e+22
-12.7275  3.65047e+22
-12.6102  3.65541e+22
-12.4929  3.66264e+22
-12.3756  3.67217e+22
-12.2583  3.68372e+22
-12.141  3.69674e+22
-12.0237  3.71045e+22
-11.9064  3.72407e+22
-11.7891  3.73693e+22
-11.6718  3.74858e+22
-11.5544  3.75887e+22
-11.4371  3.76792e+22
-11.3198  3.77606e+22
-11.2025  3.78365e+22
-11.0852  3.79109e+22
-10.9679  3.7985e+22
-10.8506  3.80587e+22
-10.7333  3.81297e+22
-10.616  3.81947e+22
-10.4987  3.82498e+22
-10.3814  3.8293e+22
-10.2641  3.83234e+22
-10.1468  3.83427e+22
-10.0295  3.83543e+22
-9.91217  3.83631e+22
-9.79487  3.83735e+22
-9.67756  3.83898e+22
-9.56026  3.84135e+22
-9.44295  3.8445e+22
-9.32565  3.84822e+22
-9.20834  3.85224e+22
-9.09104  3.85626e+22
-8.97373  3.86009e+22
-8.85643  3.86366e+22
-8.73913  3.86705e+22
-8.62182  3.87047e+22
-8.50452  3.87417e+22
-8.38721  3.87826e+22
-8.26991  3.88276e+22
-8.1526  3.8874e+22
-8.03529  3.89181e+22
-7.91799  3.89545e+22
-7.80069  3.89775e+22
-7.68338  3.89829e+22
-7.56608  3.89688e+22
-7.44877  3.89357e+22
-7.33146  3.88877e+22
-7.21416  3.88308e+22
-7.09685  3.87723e+22
-6.97955  3.87193e+22
-6.86224  3.86777e+22
-6.74494  3.86514e+22
-6.62763  3.86414e+22
-6.51033  3.86468e+22
-6.39302  3.86663e+22
-6.27572  3.86974e+22
-6.15842  3.87391e+22
-6.04111  3.87908e+22
-5.92381  3.88541e+22
-5.8065  3.89302e+22
-5.68919  3.90209e+22
-5.57189  3.91258e+22
-5.45458  3.92429e+22
-5.33728  3.93674e+22
-5.21997  3.94929e+22
-5.10267  3.96112e+22
-4.98536  3.97151e+22
-4.86806  3.97987e+22
-4.75075  3.9859e+22
-4.63345  3.98963e+22
-4.51614  3.99146e+22
-4.39884  3.99194e+22
-4.28154  3.99181e+22
-4.16423  3.99171e+22
-4.04692  3.99209e+22
-3.92962  3.99318e+22
-3.81231  3.99492e+22
-3.69501  3.99703e+22
-3.5777  3.99918e+22
-3.4604  4.00104e+22
-3.34309  4.00243e+22
-3.22579  4.00335e+22
-3.10849  4.004e+22
-2.99118  4.00468e+22
-2.87387  4.00569e+22
-2.75657  4.00723e+22
-2.63926  4.00933e+22
-2.52196  4.01179e+22
-2.40465  4.01422e+22
-2.28735  4.01615e+22
-2.17005  4.01712e+22
-2.05274  4.01683e+22
-1.93544  4.01515e+22
-1.81813  4.01219e+22
-1.70083  4.0083e+22
-1.58352  4.00385e+22
-1.46622  3.99921e+22
-1.34891  3.9946e+22
-1.2316  3.99006e+22
-1.1143  3.98544e+22
-0.996995  3.98047e+22
-0.87969  3.97484e+22
-0.762385  3.9684e+22
-0.64508  3.96124e+22
-0.527775  3.95369e+22
-0.41047  3.94634e+22
-0.293165  3.93995e+22
-0.17586  3.93526e+22
-0.058555  3.93287e+22
0.05875  3.93307e+22
0.176055  3.93581e+22
0.29336  3.94069e+22
0.410665  3.94707e+22
0.52797  3.95418e+22
0.645275  3.96135e+22
0.76258  3.96807e+22
0.879885  3.97411e+22
0.99719  3.97946e+22
1.1145  3.98436e+22
1.2318  3.98907e+22
1.3491  3.9938e+22
1.46641  3.99864e+22
1.58371  4.00343e+22
1.70102  4.00789e+22
1.81832  4.01158e+22
1.93563  4.0141e+22
2.05294  4.01524e+22
2.17024  4.01495e+22
2.28754  4.01344e+22
2.40485  4.0111e+22
2.52216  4.00846e+22
2.63946  4.00598e+22
2.75677  4.00399e+22
2.87407  4.00258e+22
2.99137  4.0017e+22
3.10868  4.00105e+22
3.22599  4.00032e+22
3.34329  3.99919e+22
3.4606  3.99755e+22
3.5779  3.99547e+22
3.69521  3.99321e+22
3.81251  3.99111e+22
3.92982  3.98951e+22
4.04712  3.98862e+22
4.16443  3.98842e+22
4.28173  3.98857e+22
4.39903  3.98856e+22
4.51634  3.98768e+22
4.63364  3.98524e+22
4.75095  3.98073e+22
4.86825  3.97387e+22
4.98556  3.96475e+22
5.10286  3.95381e+22
5.22017  3.94168e+22
5.33748  3.92913e+22
5.45478  3.9169e+22
5.57209  3.90556e+22
5.68939  3.89547e+22
5.8067  3.88674e+22
5.924  3.87928e+22
6.0413  3.87295e+22
6.15861  3.86763e+22
6.27591  3.86326e+22
6.39322  3.85996e+22
6.51052  3.85794e+22
6.62783  3.85742e+22
6.74514  3.85863e+22
6.86244  3.86154e+22
6.97975  3.86596e+22
7.09705  3.8714e+22
7.21436  3.8772e+22
7.33166  3.88263e+22
7.44897  3.88696e+22
7.56627  3.88964e+22
7.68358  3.89039e+22
7.80088  3.88926e+22
7.91819  3.88654e+22
8.03549  3.88267e+22
8.1528  3.87826e+22
8.2701  3.87374e+22
8.38741  3.86947e+22
8.50471  3.86556e+22
8.62202  3.86196e+22
8.73932  3.85846e+22
8.85662  3.85489e+22
8.97393  3.85106e+22
9.09123  3.84698e+22
9.20854  3.84277e+22
9.32584  3.83869e+22
9.44315  3.83504e+22
9.56045  3.83207e+22
9.67776  3.82986e+22
9.79506  3.82837e+22
9.91237  3.82728e+22
10.0297  3.82618e+22
10.147  3.82462e+22
10.2643  3.82215e+22
10.3816  3.81855e+22
10.4989  3.81373e+22
10.6162  3.80787e+22
10.7335  3.80126e+22
10.8508  3.79427e+22
10.9681  3.78717e+22
11.0854  3.7801e+22
11.2027  3.77296e+22
11.32  3.76546e+22
11.4373  3.75725e+22
11.5546  3.74788e+22
11.6719  3.73711e+22
11.7893  3.72489e+22
11.9066  3.71151e+22
12.0239  3.69751e+22
12.1412  3.68363e+22
12.2585  3.67068e+22
12.3758  3.65938e+22
12.4931  3.6502e+22
12.6104  3.64334e+22
12.7277  3.63865e+22
12.845  3.63572e+22
12.9623  3.63402e+22
13.0796  3.63299e+22
13.1969  3.63216e+22
13.3142  3.63123e+22
13.4315  3.63013e+22
13.5488  3.62888e+22
13.6661  3.62756e+22
13.7834  3.62624e+22
13.9007  3.62481e+22
14.018  3.62301e+22
14.1354  3.62048e+22
14.2527  3.6168e+22
14.37  3.6116e+22
14.4873  3.60476e+22
14.6046  3.59632e+22
14.7219  3.5867e+22
14.8392  3.57647e+22
14.9565  3.56631e+22
15.0738  3.5569e+22
15.1911  3.5487e+22
15.3084  3.54196e+22
15.4257  3.5366e+22
15.543  3.53236e+22
15.6603  3.52876e+22
15.7776  3.52543e+22
15.8949  3.52206e+22
16.0122  3.51854e+22
16.1295  3.51501e+22
16.2468  3.51173e+22
16.3641  3.509e+22
16.4815  3.507e+22
16.5988  3.5057e+22
16.7161  3.50484e+22
16.8334  3.50383e+22
16.9507  3.50191e+22
17.068  3.49835e+22
17.1853  3.49254e+22
17.3026  3.48411e+22
17.4199  3.47308e+22
17.5372  3.45979e+22
17.6545  3.4449e+22
17.7718  3.42919e+22
17.8891  3.4134e+22
18.0064  3.39814e+22
18.1237  3.38379e+22
18.241  3.37047e+22
18.3583  3.35809e+22
18.4756  3.34649e+22
18.5929  3.33551e+22
18.7102  3.32508e+22
18.8275  3.31533e+22
18.9449  3.30647e+22
19.0622  3.29875e+22
19.1795  3.29241e+22
19.2968  3.28748e+22
19.4141  3.28382e+22
19.5314  3.28098e+22
19.6487  3.27833e+22
19.766  3.27524e+22
19.8833  3.27106e+22
20.0006  3.26534e+22
20.1179  3.25795e+22
20.2352  3.24902e+22
20.3525  3.23891e+22
20.4698  3.22816e+22
20.5871  3.21728e+22
20.7044  3.20669e+22
20.8217  3.19665e+22
20.939  3.18716e+22
21.0563  3.1781e+22
21.1736  3.16924e+22
21.291  3.16039e+22
21.4083  3.15151e+22
21.5256  3.14272e+22
21.6429  3.13427e+22
21.7602  3.12658e+22
21.8775  3.12001e+22
21.9948  3.11484e+22
22.1121  3.11108e+22
22.2294  3.10857e+22
22.3467  3.10686e+22
22.464  3.10542e+22
22.5813  3.10361e+22
22.6986  3.10097e+22
22.8159  3.0972e+22
22.9332  3.09229e+22
23.0505  3.0864e+22
23.1678  3.07987e+22
23.2851  3.07306e+22
23.4024  3.06623e+22
23.5198  3.05944e+22
23.6371  3.05255e+22
23.7544  3.04519e+22
23.8717  3.03693e+22
23.989  3.02727e+22
24.1063  3.01597e+22
24.2236  3.00294e+22
24.3409  2.98838e+22
24.4582  2.97284e+22
24.5755  2.95693e+22
24.6928  2.94138e+22
24.8101  2.92681e+22
24.9274  2.91367e+22
25.0447  2.90212e+22
25.162  2.89213e+22
25.2793  2.88343e+22
25.3966  2.87564e+22
25.5139  2.86847e+22
25.6312  2.86162e+22
25.7485  2.85496e+22
25.8658  2.84844e+22
25.9832  2.84209e+22
26.1005  2.83592e+22
26.2178  2.82981e+22
26.3351  2.82353e+22
26.4524  2.81674e+22
26.5697  2.80898e+22
26.687  2.79987e+22
26.8043  2.78913e+22
26.9216  2.77672e+22
27.0389  2.76288e+22
27.1562  2.7481e+22
27.2735  2.73308e+22
27.3908  2.71857e+22
27.5081  2.70529e+22
27.6254  2.69371e+22
27.7427  2.68408e+22
27.86  2.67634e+22
27.9773  2.67018e+22
28.0946  2.66512e+22
28.212  2.66074e+22
28.3293  2.6566e+22
28.4466  2.6525e+22
28.5639  2.64842e+22
28.6812  2.64445e+22
28.7985  2.64079e+22
28.9158  2.63754e+22
29.0331  2.63465e+22
29.1504  2.63194e+22
29.2677  2.62893e+22
29.385  2.62508e+22
29.5023  2.61982e+22
29.6196  2.61267e+22
29.7369  2.60335e+22
29.8542  2.59192e+22
29.9715  2.57867e+22
30.0888  2.56414e+22
30.2061  2.54896e+22
30.3234  2.53376e+22
30.4407  2.51901e+22
30.558  2.505e+22
30.6754  2.49177e+22
30.7927  2.47921e+22
30.91  2.46711e+22
31.0273  2.45523e+22
31.1446  2.44349e+22
31.2619  2.43192e+22
31.3792  2.42068e+22
31.4965  2.40997e+22
31.6138  2.40001e+22
31.7311  2.39087e+22
31.8484  2.38243e+22
31.9657  2.37438e+22
32.083  2.36628e+22
32.2003  2.35758e+22
32.3176  2.34789e+22
32.4349  2.33694e+22
32.5522  2.32476e+22
32.6695  2.31167e+22
32.7868  2.29815e+22
32.9042  2.28483e+22
33.0215  2.27226e+22
33.1388  2.26079e+22
33.2561  2.25055e+22
33.3734  2.2413e+22
33.4907  2.23269e+22
33.608  2.22412e+22
33.7253  2.21514e+22
33.8426  2.20548e+22
33.9599  2.19502e+22
34.0772  2.18404e+22
34.1945  2.17297e+22
34.3118  2.16238e+22
34.4291  2.15273e+22
34.5464  2.14436e+22
34.6637  2.13733e+22
34.781  2.13142e+22
34.8983  2.12625e+22
35.0156  2.12132e+22
35.1329  2.11615e+22
35.2503  2.11048e+22
35.3676  2.10423e+22
35.4849  2.09755e+22
35.6022  2.09073e+22
35.7195  2.08405e+22
35.8368  2.07773e+22
35.9541  2.07177e+22
36.0714  2.06593e+22
36.1887  2.05974e+22
36.306  2.05267e+22
36.4233  2.04422e+22
36.5406  2.03403e+22
36.6579  2.02204e+22
36.7752  2.00849e+22
36.8925  1.99392e+22
37.0098  1.97901e+22
37.1271  1.96448e+22
37.2444  1.95097e+22
37.3617  1.93885e+22
37.479  1.92826e+22
37.5964  1.91911e+22
37.7137  1.91112e+22
37.831  1.90396e+22
37.9483  1.89736e+22
38.0656  1.89113e+22
38.1829  1.88528e+22
38.3002  1.87985e+22
38.4175  1.87488e+22
38.5348  1.87041e+22
38.6521  1.8662e+22
38.7694  1.86193e+22
38.8867  1.85705e+22
39.004  1.85103e+22
39.1213  1.84329e+22
39.2386  1.83355e+22
39.3559  1.82175e+22
39.4732  1.80818e+22
39.5905  1.79338e+22
39.7078  1.77813e+22
39.8251  1.76323e+22
39.9425  1.74937e+22
40.0598  1.73705e+22
40.1771  1.7265e+22
40.2944  1.71765e+22
40.4117  1.7102e+22
40.529  1.70377e+22
40.6463  1.69795e+22
40.7636  1.69244e+22
40.8809  1.68703e+22
40.9982  1.68169e+22
41.1155  1.67644e+22
41.2328  1.67129e+22
41.3501  1.66617e+22
41.4674  1.66087e+22
41.5847  1.65503e+22
41.702  1.6482e+22
41.8193  1.63989e+22
41.9366  1.62973e+22
42.0539  1.61751e+22
42.1712  1.60328e+22
42.2885  1.58736e+22
42.4059  1.5703e+22
42.5232  1.55274e+22
42.6405  1.53539e+22
42.7578  1.51882e+22
42.8751  1.50345e+22
42.9924  1.48942e+22
43.1097  1.47668e+22
43.227  1.46504e+22
43.3443  1.45416e+22
43.4616  1.44376e+22
43.5789  1.43358e+22
43.6962  1.42347e+22
43.8135  1.41333e+22
43.9308  1.40312e+22
44.0481  1.39273e+22
44.1654  1.38198e+22
44.2827  1.37061e+22
44.4  1.35826e+22
44.5173  1.34451e+22
44.6347  1.32906e+22
44.752  1.31177e+22
44.8693  1.29271e+22
44.9866  1.27232e+22
45.1039  1.25125e+22
45.2212  1.23033e+22
45.3385  1.21048e+22
45.4558  1.19244e+22
45.5731  1.17675e+22
45.6904  1.16354e+22
45.8077  1.15261e+22
45.925  1.14336e+22
46.0423  1.13499e+22
46.1596  1.12663e+22
46.2769  1.11745e+22
46.3942  1.10689e+22
46.5115  1.09458e+22
46.6288  1.0805e+22
46.7461  1.06484e+22
46.8634  1.0479e+22
46.9808  1.02998e+22
47.0981  1.01132e+22
47.2154  9.92059e+21
47.3327  9.72246e+21
47.45  9.51819e+21
47.5673  9.30925e+21
47.6846  9.09693e+21
47.8019  8.885e+21
47.9192  8.67843e+21
48.0365  8.48255e+21
48.1538  8.30276e+21
48.2711  8.142e+21
48.3884  8.00111e+21
48.5057  7.87678e+21
48.623  7.76376e+21
48.7403  7.65391e+21
48.8576  7.53914e+21
48.9749  7.41258e+21
49.0922  7.26972e+21
49.2095  7.10883e+21
49.3269  6.93191e+21
49.4442  6.74268e+21
49.5615  6.54648e+21
49.6788  6.34786e+21
49.7961  6.15035e+21
49.9134  5.95554e+21
50.0307  5.76319e+21
50.148  5.57262e+21
50.2653  5.38337e+21
50.3826  5.19598e+21
50.4999  5.01325e+21
50.6172  4.83965e+21
50.7345  4.68088e+21
50.8518  4.54225e+21
