#S 1 spectral density
#N 2
#UFWHM 70.0311
#L  abscissas [um]  spectral density
-58.5938  8.96418e+20
-58.4764  9.35954e+20
-58.3591  9.85834e+20
-58.2418  1.04624e+21
-58.1245  1.11681e+21
-58.0072  1.19564e+21
-57.8899  1.27944e+21
-57.7726  1.36345e+21
-57.6553  1.44203e+21
-57.538  1.50915e+21
-57.4207  1.55979e+21
-57.3034  1.59008e+21
-57.1861  1.59869e+21
-57.0688  1.58681e+21
-56.9515  1.55799e+21
-56.8342  1.51743e+21
-56.7169  1.47176e+21
-56.5996  1.42699e+21
-56.4823  1.389e+21
-56.365  1.36179e+21
-56.2477  1.3482e+21
-56.1303  1.34916e+21
-56.013  1.36474e+21
-55.8957  1.39464e+21
-55.7784  1.43826e+21
-55.6611  1.49512e+21
-55.5438  1.56503e+21
-55.4265  1.64735e+21
-55.3092  1.74059e+21
-55.1919  1.84182e+21
-55.0746  1.94658e+21
-54.9573  2.04852e+21
-54.84  2.1406e+21
-54.7227  2.21522e+21
-54.6054  2.26616e+21
-54.4881  2.28948e+21
-54.3708  2.28403e+21
-54.2535  2.25233e+21
-54.1362  2.20025e+21
-54.0189  2.13596e+21
-53.9016  2.06889e+21
-53.7842  2.00874e+21
-53.6669  1.96409e+21
-53.5496  1.94112e+21
-53.4323  1.9443e+21
-53.315  1.97572e+21
-53.1977  2.03601e+21
-53.0804  2.12474e+21
-52.9631  2.24065e+21
-52.8458  2.38211e+21
-52.7285  2.54675e+21
-52.6112  2.73067e+21
-52.4939  2.92854e+21
-52.3766  3.1328e+21
-52.2593  3.33423e+21
-52.142  3.52216e+21
-52.0247  3.68625e+21
-51.9074  3.8174e+21
-51.7901  3.90974e+21
-51.6728  3.9615e+21
-51.5555  3.97547e+21
-51.4381  3.95893e+21
-51.3208  3.92226e+21
-51.2035  3.87773e+21
-51.0862  3.83767e+21
-50.9689  3.81249e+21
-50.8516  3.81018e+21
-50.7343  3.83571e+21
-50.617  3.89069e+21
-50.4997  3.97464e+21
-50.3824  4.0857e+21
-50.2651  4.221e+21
-50.1478  4.37786e+21
-50.0305  4.55314e+21
-49.9132  4.74314e+21
-49.7959  4.94355e+21
-49.6786  5.14835e+21
-49.5613  5.35019e+21
-49.444  5.54104e+21
-49.3267  5.71278e+21
-49.2094  5.85834e+21
-49.092  5.97374e+21
-48.9747  6.0583e+21
-48.8574  6.11517e+21
-48.7401  6.15145e+21
-48.6228  6.17678e+21
-48.5055  6.20235e+21
-48.3882  6.23882e+21
-48.2709  6.29473e+21
-48.1536  6.3766e+21
-48.0363  6.48727e+21
-47.919  6.62677e+21
-47.8017  6.7931e+21
-47.6844  6.98241e+21
-47.5671  7.19124e+21
-47.4498  7.41545e+21
-47.3325  7.65118e+21
-47.2152  7.89458e+21
-47.0979  8.14113e+21
-46.9806  8.38556e+21
-46.8633  8.62165e+21
-46.7459  8.84264e+21
-46.6286  9.04159e+21
-46.5113  9.21314e+21
-46.394  9.35382e+21
-46.2767  9.46336e+21
-46.1594  9.54488e+21
-46.0421  9.60499e+21
-45.9248  9.65215e+21
-45.8075  9.69629e+21
-45.6902  9.74682e+21
-45.5729  9.81115e+21
-45.4556  9.8942e+21
-45.3383  9.9981e+21
-45.221  1.01215e+22
-45.1037  1.02616e+22
-44.9864  1.04142e+22
-44.8691  1.05753e+22
-44.7518  1.07417e+22
-44.6345  1.09116e+22
-44.5172  1.10841e+22
-44.3998  1.12601e+22
-44.2825  1.144e+22
-44.1652  1.16245e+22
-44.0479  1.18133e+22
-43.9306  1.20048e+22
-43.8133  1.21975e+22
-43.696  1.23886e+22
-43.5787  1.25759e+22
-43.4614  1.2758e+22
-43.3441  1.29345e+22
-43.2268  1.31053e+22
-43.1095  1.32717e+22
-42.9922  1.34344e+22
-42.8749  1.35944e+22
-42.7576  1.37512e+22
-42.6403  1.39032e+22
-42.523  1.40477e+22
-42.4057  1.41815e+22
-42.2884  1.43016e+22
-42.171  1.44058e+22
-42.0537  1.44939e+22
-41.9364  1.45675e+22
-41.8191  1.46305e+22
-41.7018  1.4688e+22
-41.5845  1.47461e+22
-41.4672  1.48108e+22
-41.3499  1.48868e+22
-41.2326  1.49769e+22
-41.1153  1.50824e+22
-40.998  1.5202e+22
-40.8807  1.53332e+22
-40.7634  1.54729e+22
-40.6461  1.56182e+22
-40.5288  1.57661e+22
-40.4115  1.59147e+22
-40.2942  1.60623e+22
-40.1769  1.62076e+22
-40.0596  1.63485e+22
-39.9423  1.64823e+22
-39.825  1.66058e+22
-39.7076  1.67151e+22
-39.5903  1.68066e+22
-39.473  1.68776e+22
-39.3557  1.69278e+22
-39.2384  1.69589e+22
-39.1211  1.6976e+22
-39.0038  1.69858e+22
-38.8865  1.69965e+22
-38.7692  1.70169e+22
-38.6519  1.70542e+22
-38.5346  1.71134e+22
-38.4173  1.71969e+22
-38.3  1.73035e+22
-38.1827  1.74301e+22
-38.0654  1.75719e+22
-37.9481  1.77232e+22
-37.8308  1.7879e+22
-37.7135  1.80348e+22
-37.5962  1.81874e+22
-37.4789  1.83344e+22
-37.3615  1.8474e+22
-37.2442  1.8604e+22
-37.1269  1.87221e+22
-37.0096  1.88261e+22
-36.8923  1.89134e+22
-36.775  1.8983e+22
-36.6577  1.90348e+22
-36.5404  1.90718e+22
-36.4231  1.9099e+22
-36.3058  1.91233e+22
-36.1885  1.91529e+22
-36.0712  1.91955e+22
-35.9539  1.92578e+22
-35.8366  1.93431e+22
-35.7193  1.94517e+22
-35.602  1.95803e+22
-35.4847  1.97236e+22
-35.3674  1.98743e+22
-35.2501  2.00249e+22
-35.1328  2.01696e+22
-35.0154  2.03043e+22
-34.8981  2.04269e+22
-34.7808  2.05375e+22
-34.6635  2.06374e+22
-34.5462  2.07282e+22
-34.4289  2.08114e+22
-34.3116  2.08877e+22
-34.1943  2.09568e+22
-34.077  2.1019e+22
-33.9597  2.10748e+22
-33.8424  2.1126e+22
-33.7251  2.11763e+22
-33.6078  2.12305e+22
-33.4905  2.12946e+22
-33.3732  2.13747e+22
-33.2559  2.14749e+22
-33.1386  2.15974e+22
-33.0213  2.17409e+22
-32.904  2.19011e+22
-32.7867  2.2071e+22
-32.6693  2.22427e+22
-32.552  2.24077e+22
-32.4347  2.25594e+22
-32.3174  2.2694e+22
-32.2001  2.28101e+22
-32.0828  2.29098e+22
-31.9655  2.29966e+22
-31.8482  2.30758e+22
-31.7309  2.31525e+22
-31.6136  2.32304e+22
-31.4963  2.33127e+22
-31.379  2.34006e+22
-31.2617  2.34949e+22
-31.1444  2.35955e+22
-31.0271  2.37023e+22
-30.9098  2.38155e+22
-30.7925  2.39357e+22
-30.6752  2.40626e+22
-30.5579  2.41955e+22
-30.4406  2.4332e+22
-30.3232  2.44684e+22
-30.2059  2.45991e+22
-30.0886  2.47179e+22
-29.9713  2.48185e+22
-29.854  2.48964e+22
-29.7367  2.49491e+22
-29.6194  2.4978e+22
-29.5021  2.4987e+22
-29.3848  2.49838e+22
-29.2675  2.49776e+22
-29.1502  2.49782e+22
-29.0329  2.49947e+22
-28.9156  2.50339e+22
-28.7983  2.51e+22
-28.681  2.51944e+22
-28.5637  2.53156e+22
-28.4464  2.54607e+22
-28.3291  2.56255e+22
-28.2118  2.58058e+22
-28.0944  2.59976e+22
-27.9771  2.61977e+22
-27.8598  2.64021e+22
-27.7425  2.66074e+22
-27.6252  2.68096e+22
-27.5079  2.7003e+22
-27.3906  2.71821e+22
-27.2733  2.73409e+22
-27.156  2.74743e+22
-27.0387  2.75793e+22
-26.9214  2.76548e+22
-26.8041  2.77032e+22
-26.6868  2.77298e+22
-26.5695  2.7742e+22
-26.4522  2.77481e+22
-26.3349  2.77569e+22
-26.2176  2.77749e+22
-26.1003  2.78072e+22
-25.983  2.78556e+22
-25.8657  2.79194e+22
-25.7483  2.79958e+22
-25.631  2.80813e+22
-25.5137  2.81717e+22
-25.3964  2.82638e+22
-25.2791  2.8355e+22
-25.1618  2.84444e+22
-25.0445  2.85314e+22
-24.9272  2.8616e+22
-24.8099  2.86976e+22
-24.6926  2.87758e+22
-24.5753  2.88496e+22
-24.458  2.89181e+22
-24.3407  2.8981e+22
-24.2234  2.90393e+22
-24.1061  2.90954e+22
-23.9888  2.91538e+22
-23.8715  2.92197e+22
-23.7542  2.92989e+22
-23.6369  2.93963e+22
-23.5196  2.95153e+22
-23.4023  2.96561e+22
-23.2849  2.9816e+22
-23.1676  2.99896e+22
-23.0503  3.01691e+22
-22.933  3.03466e+22
-22.8157  3.05134e+22
-22.6984  3.06636e+22
-22.5811  3.07933e+22
-22.4638  3.09012e+22
-22.3465  3.09889e+22
-22.2292  3.10589e+22
-22.1119  3.11154e+22
-21.9946  3.11622e+22
-21.8773  3.12022e+22
-21.76  3.12374e+22
-21.6427  3.12696e+22
-21.5254  3.12996e+22
-21.4081  3.13293e+22
-21.2908  3.13604e+22
-21.1735  3.1396e+22
-21.0561  3.14395e+22
-20.9388  3.1494e+22
-20.8215  3.15618e+22
-20.7042  3.16437e+22
-20.5869  3.1738e+22
-20.4696  3.18413e+22
-20.3523  3.19484e+22
-20.235  3.20538e+22
-20.1177  3.2152e+22
-20.0004  3.22398e+22
-19.8831  3.2316e+22
-19.7658  3.23821e+22
-19.6485  3.24421e+22
-19.5312  3.25009e+22
-19.4139  3.25646e+22
-19.2966  3.2638e+22
-19.1793  3.27245e+22
-19.062  3.28257e+22
-18.9447  3.29412e+22
-18.8274  3.30693e+22
-18.71  3.32076e+22
-18.5927  3.33536e+22
-18.4754  3.35053e+22
-18.3581  3.36612e+22
-18.2408  3.38202e+22
-18.1235  3.39799e+22
-18.0062  3.41375e+22
-17.8889  3.42885e+22
-17.7716  3.44267e+22
-17.6543  3.45458e+22
-17.537  3.46385e+22
-17.4197  3.46999e+22
-17.3024  3.47276e+22
-17.1851  3.47221e+22
-17.0678  3.46881e+22
-16.9505  3.46336e+22
-16.8332  3.45686e+22
-16.7159  3.4504e+22
-16.5986  3.44497e+22
-16.4813  3.44134e+22
-16.364  3.43998e+22
-16.2466  3.44105e+22
-16.1293  3.44444e+22
-16.012  3.44987e+22
-15.8947  3.45697e+22
-15.7774  3.46541e+22
-15.6601  3.47493e+22
-15.5428  3.48535e+22
-15.4255  3.49655e+22
-15.3082  3.5084e+22
-15.1909  3.52069e+22
-15.0736  3.53312e+22
-14.9563  3.54531e+22
-14.839  3.5568e+22
-14.7217  3.56723e+22
-14.6044  3.57634e+22
-14.4871  3.5841e+22
-14.3698  3.59072e+22
-14.2525  3.59662e+22
-14.1352  3.60241e+22
-14.0178  3.6087e+22
-13.9005  3.61596e+22
-13.7832  3.62452e+22
-13.6659  3.63437e+22
-13.5486  3.64528e+22
-13.4313  3.65669e+22
-13.314  3.66799e+22
-13.1967  3.67859e+22
-13.0794  3.68788e+22
-12.9621  3.69558e+22
-12.8448  3.7015e+22
-12.7275  3.7057e+22
-12.6102  3.70836e+22
-12.4929  3.70966e+22
-12.3756  3.70982e+22
-12.2583  3.70898e+22
-12.141  3.70724e+22
-12.0237  3.70473e+22
-11.9064  3.70162e+22
-11.7891  3.69819e+22
-11.6718  3.69492e+22
-11.5544  3.69241e+22
-11.4371  3.69135e+22
-11.3198  3.69241e+22
-11.2025  3.69611e+22
-11.0852  3.70278e+22
-10.9679  3.71237e+22
-10.8506  3.72453e+22
-10.7333  3.73864e+22
-10.616  3.75387e+22
-10.4987  3.76932e+22
-10.3814  3.78419e+22
-10.2641  3.79786e+22
-10.1468  3.80995e+22
-10.0295  3.82033e+22
-9.91217  3.82909e+22
-9.79487  3.83647e+22
-9.67756  3.84272e+22
-9.56026  3.84811e+22
-9.44295  3.85282e+22
-9.32565  3.85696e+22
-9.20834  3.8606e+22
-9.09104  3.86381e+22
-8.97373  3.86669e+22
-8.85643  3.86945e+22
-8.73913  3.87226e+22
-8.62182  3.87538e+22
-8.50452  3.87902e+22
-8.38721  3.88317e+22
-8.26991  3.88777e+22
-8.1526  3.89245e+22
-8.03529  3.89675e+22
-7.91799  3.90009e+22
-7.80069  3.9019e+22
-7.68338  3.90178e+22
-7.56608  3.89955e+22
-7.44877  3.89529e+22
-7.33146  3.88941e+22
-7.21416  3.88256e+22
-7.09685  3.87548e+22
-6.97955  3.869e+22
-6.86224  3.86383e+22
-6.74494  3.86051e+22
-6.62763  3.85935e+22
-6.51033  3.86051e+22
-6.39302  3.86392e+22
-6.27572  3.86946e+22
-6.15842  3.87695e+22
-6.04111  3.88627e+22
-5.92381  3.89724e+22
-5.8065  3.90969e+22
-5.68919  3.92337e+22
-5.57189  3.93789e+22
-5.45458  3.95271e+22
-5.33728  3.96711e+22
-5.21997  3.98027e+22
-5.10267  3.99138e+22
-4.98536  3.9997e+22
-4.86806  4.0048e+22
-4.75075  4.0065e+22
-4.63345  4.00505e+22
-4.51614  4.001e+22
-4.39884  3.99517e+22
-4.28154  3.9885e+22
-4.16423  3.98191e+22
-4.04692  3.97613e+22
-3.92962  3.97167e+22
-3.81231  3.96877e+22
-3.69501  3.96739e+22
-3.5777  3.96733e+22
-3.4604  3.96829e+22
-3.34309  3.96998e+22
-3.22579  3.97215e+22
-3.10849  3.97464e+22
-2.99118  3.97734e+22
-2.87387  3.98016e+22
-2.75657  3.98297e+22
-2.63926  3.98556e+22
-2.52196  3.98766e+22
-2.40465  3.98899e+22
-2.28735  3.9893e+22
-2.17005  3.98852e+22
-2.05274  3.98675e+22
-1.93544  3.98432e+22
-1.81813  3.98184e+22
-1.70083  3.97997e+22
-1.58352  3.97944e+22
-1.46622  3.98083e+22
-1.34891  3.98452e+22
-1.2316  3.99055e+22
-1.1143  3.99862e+22
-0.996995  4.00817e+22
-0.87969  4.01848e+22
-0.762385  4.02879e+22
-0.64508  4.0384e+22
-0.527775  4.04678e+22
-0.41047  4.05362e+22
-0.293165  4.05878e+22
-0.17586  4.06225e+22
-0.058555  4.06406e+22
0.05875  4.06424e+22
0.176055  4.06274e+22
0.29336  4.05948e+22
0.410665  4.0544e+22
0.52797  4.04751e+22
0.645275  4.03899e+22
0.76258  4.02923e+22
0.879885  4.01883e+22
0.99719  4.00855e+22
1.1145  3.99919e+22
1.2318  3.99148e+22
1.3491  3.98592e+22
1.46641  3.9827e+22
1.58371  3.98169e+22
1.70102  3.98249e+22
1.81832  3.98444e+22
1.93563  3.98685e+22
2.05294  3.98906e+22
2.17024  3.99057e+22
2.28754  3.99112e+22
2.40485  3.99068e+22
2.52216  3.98937e+22
2.63946  3.98743e+22
2.75677  3.98512e+22
2.87407  3.98267e+22
2.99137  3.98018e+22
3.10868  3.97779e+22
3.22599  3.97553e+22
3.34329  3.97356e+22
3.4606  3.97206e+22
3.5779  3.97132e+22
3.69521  3.97167e+22
3.81251  3.97343e+22
3.92982  3.97678e+22
4.04712  3.98171e+22
4.16443  3.98792e+22
4.28173  3.9948e+22
4.39903  4.00155e+22
4.51634  4.00721e+22
4.63364  4.01085e+22
4.75095  4.01175e+22
4.86825  4.0094e+22
4.98556  4.00371e+22
5.10286  3.99492e+22
5.22017  3.98358e+22
5.33748  3.97042e+22
5.45478  3.95624e+22
5.57209  3.94179e+22
5.68939  3.92774e+22
5.8067  3.91452e+22
5.924  3.90249e+22
6.0413  3.89188e+22
6.15861  3.88286e+22
6.27591  3.87564e+22
6.39322  3.87043e+22
6.51052  3.86743e+22
6.62783  3.86679e+22
6.74514  3.86852e+22
6.86244  3.87244e+22
6.97975  3.87815e+22
7.09705  3.88502e+22
7.21436  3.89228e+22
7.33166  3.8991e+22
7.44897  3.9047e+22
7.56627  3.90855e+22
7.68358  3.9103e+22
7.80088  3.90998e+22
7.91819  3.90784e+22
8.03549  3.90436e+22
8.1528  3.9001e+22
8.2701  3.89561e+22
8.38741  3.89129e+22
8.50471  3.88742e+22
8.62202  3.88405e+22
8.73932  3.88111e+22
8.85662  3.87841e+22
8.97393  3.87574e+22
9.09123  3.87293e+22
9.20854  3.86987e+22
9.32584  3.86643e+22
9.44315  3.8626e+22
9.56045  3.85824e+22
9.67776  3.85319e+22
9.79506  3.84719e+22
9.91237  3.83994e+22
10.0297  3.83114e+22
10.147  3.82055e+22
10.2643  3.80815e+22
10.3816  3.79416e+22
10.4989  3.779e+22
10.6162  3.76344e+22
10.7335  3.74828e+22
10.8508  3.73445e+22
10.9681  3.7227e+22
11.0854  3.71361e+22
11.2027  3.70744e+22
11.32  3.70411e+22
11.4373  3.70327e+22
11.5546  3.70437e+22
11.6719  3.70676e+22
11.7893  3.70984e+22
11.9066  3.71306e+22
12.0239  3.71606e+22
12.1412  3.71857e+22
12.2585  3.72044e+22
12.3758  3.72151e+22
12.4931  3.72166e+22
12.6104  3.72065e+22
12.7277  3.71823e+22
12.845  3.71413e+22
12.9623  3.70822e+22
13.0796  3.70047e+22
13.1969  3.6911e+22
13.3142  3.68051e+22
13.4315  3.6693e+22
13.5488  3.65812e+22
13.6661  3.64756e+22
13.7834  3.63809e+22
13.9007  3.6299e+22
14.018  3.62288e+22
14.1354  3.6167e+22
14.2527  3.61081e+22
14.37  3.60463e+22
14.4873  3.59763e+22
14.6046  3.58946e+22
14.7219  3.58e+22
14.8392  3.56934e+22
14.9565  3.55777e+22
15.0738  3.5457e+22
15.1911  3.5335e+22
15.3084  3.52153e+22
15.4257  3.51001e+22
15.543  3.49911e+22
15.6603  3.48895e+22
15.7776  3.47967e+22
15.8949  3.47149e+22
16.0122  3.46472e+22
16.1295  3.45975e+22
16.2468  3.45692e+22
16.3641  3.45651e+22
16.4815  3.45856e+22
16.5988  3.46281e+22
16.7161  3.46872e+22
16.8334  3.4754e+22
16.9507  3.48182e+22
17.068  3.4869e+22
17.1853  3.48972e+22
17.3026  3.48957e+22
17.4199  3.48608e+22
17.5372  3.4793e+22
17.6545  3.46957e+22
17.7718  3.45744e+22
17.8891  3.44357e+22
18.0064  3.4286e+22
18.1237  3.41306e+22
18.241  3.39734e+22
18.3583  3.38168e+22
18.4756  3.36626e+22
18.5929  3.35125e+22
18.7102  3.33682e+22
18.8275  3.32324e+22
18.9449  3.31077e+22
19.0622  3.29965e+22
19.1795  3.29005e+22
19.2968  3.28191e+22
19.4141  3.27505e+22
19.5314  3.26903e+22
19.6487  3.26327e+22
19.766  3.25723e+22
19.8833  3.25037e+22
20.0006  3.24237e+22
20.1179  3.23317e+22
20.2352  3.22297e+22
20.3525  3.21219e+22
20.4698  3.20138e+22
20.5871  3.1911e+22
20.7044  3.18183e+22
20.8217  3.17385e+22
20.939  3.16725e+22
21.0563  3.16192e+22
21.1736  3.1576e+22
21.291  3.15398e+22
21.4083  3.1508e+22
21.5256  3.14779e+22
21.6429  3.1448e+22
21.7602  3.14171e+22
21.8775  3.13841e+22
21.9948  3.13472e+22
22.1121  3.13034e+22
22.2294  3.1249e+22
22.3467  3.11798e+22
22.464  3.10916e+22
22.5813  3.09814e+22
22.6986  3.08484e+22
22.8159  3.06947e+22
22.9332  3.0525e+22
23.0505  3.03463e+22
23.1678  3.01672e+22
23.2851  2.99961e+22
23.4024  2.98399e+22
23.5198  2.97036e+22
23.6371  2.95887e+22
23.7544  2.94938e+22
23.8717  2.94155e+22
23.989  2.93482e+22
24.1063  2.92869e+22
24.2236  2.92268e+22
24.3409  2.91643e+22
24.4582  2.90979e+22
24.5755  2.90271e+22
24.6928  2.89524e+22
24.8101  2.88746e+22
24.9274  2.87945e+22
25.0447  2.87118e+22
25.162  2.86269e+22
25.2793  2.85394e+22
25.3966  2.84497e+22
25.5139  2.83594e+22
25.6312  2.82714e+22
25.7485  2.81892e+22
25.8658  2.8117e+22
25.9832  2.80583e+22
26.1005  2.80158e+22
26.2178  2.79889e+22
26.3351  2.79747e+22
26.4524  2.79679e+22
26.5697  2.7961e+22
26.687  2.79455e+22
26.8043  2.79132e+22
26.9216  2.78575e+22
27.0389  2.77745e+22
27.1562  2.76631e+22
27.2735  2.75244e+22
27.3908  2.73625e+22
27.5081  2.71826e+22
27.6254  2.699e+22
27.7427  2.679e+22
27.86  2.65873e+22
27.9773  2.63857e+22
28.0946  2.61886e+22
28.212  2.59997e+22
28.3293  2.58228e+22
28.4466  2.56623e+22
28.5639  2.5523e+22
28.6812  2.54086e+22
28.7985  2.5322e+22
28.9158  2.52642e+22
29.0331  2.52325e+22
29.1504  2.52219e+22
29.2677  2.52247e+22
29.385  2.52313e+22
29.5023  2.52318e+22
29.6196  2.52179e+22
29.7369  2.51828e+22
29.8542  2.51233e+22
29.9715  2.50395e+22
30.0888  2.49343e+22
30.2061  2.48128e+22
30.3234  2.46812e+22
30.4407  2.45452e+22
30.558  2.44096e+22
30.6754  2.42777e+22
30.7927  2.41516e+22
30.91  2.40321e+22
31.0273  2.39188e+22
31.1446  2.38125e+22
31.2619  2.37128e+22
31.3792  2.36205e+22
31.4965  2.35351e+22
31.6138  2.34561e+22
31.7311  2.33815e+22
31.8484  2.33079e+22
31.9657  2.32302e+22
32.083  2.3143e+22
32.2003  2.30416e+22
32.3176  2.29223e+22
32.4349  2.27838e+22
32.5522  2.26283e+22
32.6695  2.24606e+22
32.7868  2.22877e+22
32.9042  2.21183e+22
33.0215  2.19598e+22
33.1388  2.18188e+22
33.2561  2.16988e+22
33.3734  2.15997e+22
33.4907  2.15193e+22
33.608  2.1453e+22
33.7253  2.13952e+22
33.8426  2.13405e+22
33.9599  2.12845e+22
34.0772  2.12246e+22
34.1945  2.11592e+22
34.3118  2.10884e+22
34.4291  2.10118e+22
34.5464  2.09289e+22
34.6637  2.08385e+22
34.781  2.07387e+22
34.8983  2.06273e+22
35.0156  2.05034e+22
35.1329  2.03672e+22
35.2503  2.0221e+22
35.3676  2.00699e+22
35.4849  1.99203e+22
35.6022  1.97799e+22
35.7195  1.96553e+22
35.8368  1.95519e+22
35.9541  1.94715e+22
36.0714  1.94132e+22
36.1887  1.93721e+22
36.306  1.93417e+22
36.4233  1.93139e+22
36.5406  1.92813e+22
36.6579  1.92371e+22
36.7752  1.91775e+22
36.8925  1.91008e+22
37.0098  1.90073e+22
37.1271  1.88985e+22
37.2444  1.87772e+22
37.3617  1.86454e+22
37.479  1.85052e+22
37.5964  1.83585e+22
37.7137  1.82069e+22
37.831  1.80531e+22
37.9483  1.79008e+22
38.0656  1.77542e+22
38.1829  1.7619e+22
38.3002  1.75006e+22
38.4175  1.74037e+22
38.5348  1.73304e+22
38.6521  1.72806e+22
38.7694  1.72509e+22
38.8867  1.72351e+22
39.004  1.72256e+22
39.1213  1.72136e+22
39.2386  1.71913e+22
39.3559  1.71528e+22
39.4732  1.70946e+22
39.5905  1.70157e+22
39.7078  1.6918e+22
39.8251  1.68046e+22
39.9425  1.66791e+22
40.0598  1.65453e+22
40.1771  1.64059e+22
40.2944  1.62633e+22
40.4117  1.61185e+22
40.529  1.59735e+22
40.6463  1.58291e+22
40.7636  1.56884e+22
40.8809  1.55541e+22
40.9982  1.54295e+22
41.1155  1.5318e+22
41.2328  1.52217e+22
41.3501  1.51409e+22
41.4674  1.50737e+22
41.5847  1.50166e+22
41.702  1.49641e+22
41.8193  1.49097e+22
41.9366  1.4848e+22
42.0539  1.47738e+22
42.1712  1.46844e+22
42.2885  1.4579e+22
42.4059  1.44586e+22
42.5232  1.43258e+22
42.6405  1.41838e+22
42.7578  1.40352e+22
42.8751  1.38821e+22
42.9924  1.37255e+22
43.1097  1.35652e+22
43.227  1.34e+22
43.3443  1.32291e+22
43.4616  1.30518e+22
43.5789  1.28684e+22
43.6962  1.26802e+22
43.8135  1.2489e+22
43.9308  1.22975e+22
44.0481  1.21081e+22
44.1654  1.19224e+22
44.2827  1.1741e+22
44.4  1.15641e+22
44.5173  1.13909e+22
44.6347  1.12203e+22
44.752  1.10528e+22
44.8693  1.08889e+22
44.9866  1.07316e+22
45.1039  1.05842e+22
45.2212  1.04511e+22
45.3385  1.03357e+22
45.4558  1.02404e+22
45.5731  1.01652e+22
45.6904  1.01066e+22
45.8077  1.0059e+22
45.925  1.00142e+22
46.0423  9.96244e+21
46.1596  9.89423e+21
46.2769  9.80217e+21
46.3942  9.6808e+21
46.5115  9.52825e+21
46.6288  9.34596e+21
46.7461  9.13792e+21
46.8634  8.91017e+21
46.9808  8.66924e+21
47.0981  8.42169e+21
47.2154  8.17366e+21
47.3327  7.93021e+21
47.45  7.69529e+21
47.5673  7.47323e+21
47.6846  7.26793e+21
47.8019  7.08367e+21
47.9192  6.92387e+21
48.0365  6.79195e+21
48.1538  6.68902e+21
48.2711  6.61415e+21
48.3884  6.56291e+21
48.5057  6.52828e+21
48.623  6.5006e+21
48.7403  6.46878e+21
48.8576  6.42199e+21
48.9749  6.35134e+21
49.0922  6.25121e+21
49.2095  6.11936e+21
49.3269  5.95776e+21
49.4442  5.77161e+21
49.5615  5.5683e+21
49.6788  5.35634e+21
49.7961  5.14391e+21
49.9134  4.93791e+21
50.0307  4.74422e+21
50.148  4.56711e+21
50.2653  4.41064e+21
50.3826  4.27773e+21
50.4999  4.17153e+21
50.6172  4.09453e+21
50.7345  4.04863e+21
50.8518  4.03318e+21
50.9691  4.04538e+21
