#S 1 spectral density
#N 2
#UFWHM 16.8919
#L  abscissas [um]  spectral density
-58.5938  1.31689e+21
-58.4764  1.27757e+21
-58.3591  1.22648e+21
-58.2418  1.17017e+21
-58.1245  1.11633e+21
-58.0072  1.07213e+21
-57.8899  1.04319e+21
-57.7726  1.03283e+21
-57.6553  1.04174e+21
-57.538  1.06792e+21
-57.4207  1.1075e+21
-57.3034  1.15517e+21
-57.1861  1.20531e+21
-57.0688  1.25296e+21
-56.9515  1.29371e+21
-56.8342  1.32478e+21
-56.7169  1.34475e+21
-56.5996  1.35291e+21
-56.4823  1.34987e+21
-56.365  1.33671e+21
-56.2477  1.31496e+21
-56.1303  1.28662e+21
-56.013  1.25419e+21
-55.8957  1.22077e+21
-55.7784  1.18944e+21
-55.6611  1.1638e+21
-55.5438  1.14701e+21
-55.4265  1.14144e+21
-55.3092  1.14788e+21
-55.1919  1.16565e+21
-55.0746  1.19203e+21
-54.9573  1.22269e+21
-54.84  1.25264e+21
-54.7227  1.27715e+21
-54.6054  1.2924e+21
-54.4881  1.2969e+21
-54.3708  1.29157e+21
-54.2535  1.28008e+21
-54.1362  1.26755e+21
-54.0189  1.26016e+21
-53.9016  1.263e+21
-53.7842  1.27938e+21
-53.6669  1.30983e+21
-53.5496  1.35161e+21
-53.4323  1.39947e+21
-53.315  1.44666e+21
-53.1977  1.48603e+21
-53.0804  1.512e+21
-52.9631  1.52112e+21
-52.8458  1.5128e+21
-52.7285  1.48952e+21
-52.6112  1.45552e+21
-52.4939  1.41638e+21
-52.3766  1.37753e+21
-52.2593  1.34322e+21
-52.142  1.31611e+21
-52.0247  1.29742e+21
-51.9074  1.2868e+21
-51.7901  1.28362e+21
-51.6728  1.28699e+21
-51.5555  1.29656e+21
-51.4381  1.31207e+21
-51.3208  1.33354e+21
-51.2035  1.36042e+21
-51.0862  1.39084e+21
-50.9689  1.4221e+21
-50.8516  1.44996e+21
-50.7343  1.47007e+21
-50.617  1.47826e+21
-50.4997  1.47229e+21
-50.3824  1.45212e+21
-50.2651  1.42061e+21
-50.1478  1.38285e+21
-50.0305  1.3461e+21
-49.9132  1.31689e+21
-49.7959  1.30098e+21
-49.6786  1.30098e+21
-49.5613  1.31658e+21
-49.444  1.34363e+21
-49.3267  1.37614e+21
-49.2094  1.40645e+21
-49.092  1.42813e+21
-48.9747  1.4369e+21
-48.8574  1.43125e+21
-48.7401  1.41333e+21
-48.6228  1.38802e+21
-48.5055  1.36158e+21
-48.3882  1.34073e+21
-48.2709  1.33039e+21
-48.1536  1.33336e+21
-48.0363  1.3498e+21
-47.919  1.37707e+21
-47.8017  1.41107e+21
-47.6844  1.44704e+21
-47.5671  1.48019e+21
-47.4498  1.50722e+21
-47.3325  1.52602e+21
-47.2152  1.53552e+21
-47.0979  1.53589e+21
-46.9806  1.52734e+21
-46.8633  1.51039e+21
-46.7459  1.4853e+21
-46.6286  1.4524e+21
-46.5113  1.41274e+21
-46.394  1.36818e+21
-46.2767  1.32226e+21
-46.1594  1.27913e+21
-46.0421  1.24442e+21
-45.9248  1.22296e+21
-45.8075  1.21878e+21
-45.6902  1.23344e+21
-45.5729  1.26574e+21
-45.4556  1.31107e+21
-45.3383  1.36262e+21
-45.221  1.41161e+21
-45.1037  1.44963e+21
-44.9864  1.46945e+21
-44.8691  1.46719e+21
-44.7518  1.44223e+21
-44.6345  1.39812e+21
-44.5172  1.3412e+21
-44.3998  1.28012e+21
-44.2825  1.22407e+21
-44.1652  1.18057e+21
-44.0479  1.15505e+21
-43.9306  1.14977e+21
-43.8133  1.16323e+21
-43.696  1.19162e+21
-43.5787  1.22895e+21
-43.4614  1.26867e+21
-43.3441  1.30479e+21
-43.2268  1.33261e+21
-43.1095  1.34967e+21
-42.9922  1.35559e+21
-42.8749  1.35169e+21
-42.7576  1.34088e+21
-42.6403  1.32654e+21
-42.523  1.31186e+21
-42.4057  1.30026e+21
-42.2884  1.2939e+21
-42.171  1.29453e+21
-42.0537  1.30297e+21
-41.9364  1.31917e+21
-41.8191  1.34235e+21
-41.7018  1.37075e+21
-41.5845  1.40194e+21
-41.4672  1.43189e+21
-41.3499  1.45653e+21
-41.2326  1.47101e+21
-41.1153  1.47083e+21
-40.998  1.45287e+21
-40.8807  1.41586e+21
-40.7634  1.36075e+21
-40.6461  1.29214e+21
-40.5288  1.21653e+21
-40.4115  1.14257e+21
-40.2942  1.0795e+21
-40.1769  1.03568e+21
-40.0596  1.01695e+21
-39.9423  1.02609e+21
-39.825  1.06149e+21
-39.7076  1.11829e+21
-39.5903  1.1887e+21
-39.473  1.26329e+21
-39.3557  1.33313e+21
-39.2384  1.39073e+21
-39.1211  1.43135e+21
-39.0038  1.45375e+21
-38.8865  1.45948e+21
-38.7692  1.45243e+21
-38.6519  1.43777e+21
-38.5346  1.42048e+21
-38.4173  1.40484e+21
-38.3  1.39359e+21
-38.1827  1.38762e+21
-38.0654  1.38684e+21
-37.9481  1.39013e+21
-37.8308  1.39571e+21
-37.7135  1.40255e+21
-37.5962  1.40931e+21
-37.4789  1.41524e+21
-37.3615  1.41946e+21
-37.2442  1.42083e+21
-37.1269  1.41799e+21
-37.0096  1.40982e+21
-36.8923  1.39561e+21
-36.775  1.37511e+21
-36.6577  1.35019e+21
-36.5404  1.3239e+21
-36.4231  1.30072e+21
-36.3058  1.286e+21
-36.1885  1.28464e+21
-36.0712  1.29994e+21
-35.9539  1.33297e+21
-35.8366  1.38115e+21
-35.7193  1.43934e+21
-35.602  1.49949e+21
-35.4847  1.55321e+21
-35.3674  1.59193e+21
-35.2501  1.61008e+21
-35.1328  1.60512e+21
-35.0154  1.57891e+21
-34.8981  1.53701e+21
-34.7808  1.48715e+21
-34.6635  1.43883e+21
-34.5462  1.4003e+21
-34.4289  1.37762e+21
-34.3116  1.37384e+21
-34.1943  1.38834e+21
-34.077  1.4176e+21
-33.9597  1.45627e+21
-33.8424  1.4981e+21
-33.7251  1.53764e+21
-33.6078  1.57102e+21
-33.4905  1.59557e+21
-33.3732  1.61135e+21
-33.2559  1.61896e+21
-33.1386  1.6193e+21
-33.0213  1.61424e+21
-32.904  1.60452e+21
-32.7867  1.59095e+21
-32.6693  1.57446e+21
-32.552  1.55588e+21
-32.4347  1.53692e+21
-32.3174  1.52019e+21
-32.2001  1.50857e+21
-32.0828  1.50411e+21
-31.9655  1.5089e+21
-31.8482  1.52257e+21
-31.7309  1.5427e+21
-31.6136  1.56516e+21
-31.4963  1.58458e+21
-31.379  1.59516e+21
-31.2617  1.59255e+21
-31.1444  1.57465e+21
-31.0271  1.54278e+21
-30.9098  1.50126e+21
-30.7925  1.45723e+21
-30.6752  1.41904e+21
-30.5579  1.3949e+21
-30.4406  1.39097e+21
-30.3232  1.41024e+21
-30.2059  1.45172e+21
-30.0886  1.51061e+21
-29.9713  1.57928e+21
-29.854  1.64851e+21
-29.7367  1.70918e+21
-29.6194  1.75402e+21
-29.5021  1.77892e+21
-29.3848  1.78262e+21
-29.2675  1.76733e+21
-29.1502  1.73754e+21
-29.0329  1.69927e+21
-28.9156  1.65847e+21
-28.7983  1.62077e+21
-28.681  1.59053e+21
-28.5637  1.5706e+21
-28.4464  1.56199e+21
-28.3291  1.56599e+21
-28.2118  1.58194e+21
-28.0944  1.6093e+21
-27.9771  1.64708e+21
-27.8598  1.6929e+21
-27.7425  1.74364e+21
-27.6252  1.79543e+21
-27.5079  1.84318e+21
-27.3906  1.88132e+21
-27.2733  1.90518e+21
-27.156  1.91128e+21
-27.0387  1.89819e+21
-26.9214  1.86788e+21
-26.8041  1.82498e+21
-26.6868  1.77625e+21
-26.5695  1.73053e+21
-26.4522  1.6958e+21
-26.3349  1.67856e+21
-26.2176  1.68245e+21
-26.1003  1.70745e+21
-25.983  1.74958e+21
-25.8657  1.80215e+21
-25.7483  1.85669e+21
-25.631  1.90489e+21
-25.5137  1.94025e+21
-25.3964  1.95863e+21
-25.2791  1.95995e+21
-25.1618  1.94724e+21
-25.0445  1.92596e+21
-24.9272  1.9031e+21
-24.8099  1.88555e+21
-24.6926  1.87902e+21
-24.5753  1.88695e+21
-24.458  1.9103e+21
-24.3407  1.94785e+21
-24.2234  1.9965e+21
-24.1061  2.05241e+21
-23.9888  2.11147e+21
-23.8715  2.17016e+21
-23.7542  2.22484e+21
-23.6369  2.27373e+21
-23.5196  2.31486e+21
-23.4023  2.34663e+21
-23.2849  2.36842e+21
-23.1676  2.37907e+21
-23.0503  2.37869e+21
-22.933  2.36853e+21
-22.8157  2.35136e+21
-22.6984  2.33078e+21
-22.5811  2.31267e+21
-22.4638  2.30246e+21
-22.3465  2.30542e+21
-22.2292  2.3256e+21
-22.1119  2.36452e+21
-21.9946  2.42082e+21
-21.8773  2.49039e+21
-21.76  2.56706e+21
-21.6427  2.64378e+21
-21.5254  2.71345e+21
-21.4081  2.77104e+21
-21.2908  2.81399e+21
-21.1735  2.84258e+21
-21.0561  2.85987e+21
-20.9388  2.87101e+21
-20.8215  2.88146e+21
-20.7042  2.89593e+21
-20.5869  2.9173e+21
-20.4696  2.94615e+21
-20.3523  2.9802e+21
-20.235  3.01544e+21
-20.1177  3.04755e+21
-20.0004  3.07199e+21
-19.8831  3.08603e+21
-19.7658  3.08904e+21
-19.6485  3.08276e+21
-19.5312  3.07064e+21
-19.4139  3.05768e+21
-19.2966  3.04952e+21
-19.1793  3.05067e+21
-19.062  3.06483e+21
-18.9447  3.09526e+21
-18.8274  3.14319e+21
-18.71  3.20909e+21
-18.5927  3.29335e+21
-18.4754  3.39492e+21
-18.3581  3.51278e+21
-18.2408  3.64494e+21
-18.1235  3.78874e+21
-18.0062  3.93941e+21
-17.8889  4.09205e+21
-17.7716  4.24061e+21
-17.6543  4.37915e+21
-17.537  4.50325e+21
-17.4197  4.61159e+21
-17.3024  4.70486e+21
-17.1851  4.78871e+21
-17.0678  4.87134e+21
-16.9505  4.96258e+21
-16.8332  5.07314e+21
-16.7159  5.21086e+21
-16.5986  5.38127e+21
-16.4813  5.58388e+21
-16.364  5.81443e+21
-16.2466  6.06341e+21
-16.1293  6.31858e+21
-16.012  6.56768e+21
-15.8947  6.79921e+21
-15.7774  7.00539e+21
-15.6601  7.18266e+21
-15.5428  7.33264e+21
-15.4255  7.46153e+21
-15.3082  7.57836e+21
-15.1909  7.69385e+21
-15.0736  7.81915e+21
-14.9563  7.96437e+21
-14.839  8.13696e+21
-14.7217  8.34316e+21
-14.6044  8.58593e+21
-14.4871  8.86646e+21
-14.3698  9.18407e+21
-14.2525  9.53667e+21
-14.1352  9.92013e+21
-14.0178  1.03291e+22
-13.9005  1.07568e+22
-13.7832  1.11943e+22
-13.6659  1.16331e+22
-13.5486  1.20643e+22
-13.4313  1.24821e+22
-13.314  1.28822e+22
-13.1967  1.32652e+22
-13.0794  1.36359e+22
-12.9621  1.40035e+22
-12.8448  1.43804e+22
-12.7275  1.47803e+22
-12.6102  1.52158e+22
-12.4929  1.56988e+22
-12.3756  1.62356e+22
-12.2583  1.68288e+22
-12.141  1.74761e+22
-12.0237  1.81719e+22
-11.9064  1.89078e+22
-11.7891  1.96748e+22
-11.6718  2.04641e+22
-11.5544  2.12684e+22
-11.4371  2.20825e+22
-11.3198  2.29015e+22
-11.2025  2.37222e+22
-11.0852  2.45409e+22
-10.9679  2.53527e+22
-10.8506  2.61524e+22
-10.7333  2.69336e+22
-10.616  2.76911e+22
-10.4987  2.84195e+22
-10.3814  2.91166e+22
-10.2641  2.97837e+22
-10.1468  3.0425e+22
-10.0295  3.10483e+22
-9.91217  3.16642e+22
-9.79487  3.22839e+22
-9.67756  3.2919e+22
-9.56026  3.35801e+22
-9.44295  3.42749e+22
-9.32565  3.50085e+22
-9.20834  3.5783e+22
-9.09104  3.65978e+22
-8.97373  3.74493e+22
-8.85643  3.83334e+22
-8.73913  3.92425e+22
-8.62182  4.01684e+22
-8.50452  4.11023e+22
-8.38721  4.20332e+22
-8.26991  4.2951e+22
-8.1526  4.38446e+22
-8.03529  4.47057e+22
-7.91799  4.55271e+22
-7.80069  4.63066e+22
-7.68338  4.70456e+22
-7.56608  4.77517e+22
-7.44877  4.84364e+22
-7.33146  4.91142e+22
-7.21416  4.98017e+22
-7.09685  5.05142e+22
-6.97955  5.12651e+22
-6.86224  5.20623e+22
-6.74494  5.29064e+22
-6.62763  5.37938e+22
-6.51033  5.47145e+22
-6.39302  5.56545e+22
-6.27572  5.6599e+22
-6.15842  5.75321e+22
-6.04111  5.84414e+22
-5.92381  5.93181e+22
-5.8065  6.01567e+22
-5.68919  6.09565e+22
-5.57189  6.17205e+22
-5.45458  6.24524e+22
-5.33728  6.31594e+22
-5.21997  6.3847e+22
-5.10267  6.45213e+22
-4.98536  6.51874e+22
-4.86806  6.58499e+22
-4.75075  6.65124e+22
-4.63345  6.71781e+22
-4.51614  6.78486e+22
-4.39884  6.85247e+22
-4.28154  6.92045e+22
-4.16423  6.98859e+22
-4.04692  7.0563e+22
-3.92962  7.12303e+22
-3.81231  7.18799e+22
-3.69501  7.25051e+22
-3.5777  7.31017e+22
-3.4604  7.36672e+22
-3.34309  7.42021e+22
-3.22579  7.47104e+22
-3.10849  7.51987e+22
-2.99118  7.56732e+22
-2.87387  7.61415e+22
-2.75657  7.66076e+22
-2.63926  7.70735e+22
-2.52196  7.75371e+22
-2.40465  7.79939e+22
-2.28735  7.84373e+22
-2.17005  7.88599e+22
-2.05274  7.92557e+22
-1.93544  7.96194e+22
-1.81813  7.99502e+22
-1.70083  8.0249e+22
-1.58352  8.05186e+22
-1.46622  8.07633e+22
-1.34891  8.09862e+22
-1.2316  8.11913e+22
-1.1143  8.13792e+22
-0.996995  8.15503e+22
-0.87969  8.17029e+22
-0.762385  8.18355e+22
-0.64508  8.19473e+22
-0.527775  8.20374e+22
-0.41047  8.21073e+22
-0.293165  8.21586e+22
-0.17586  8.21934e+22
-0.058555  8.22135e+22
0.05875  8.22197e+22
0.176055  8.22114e+22
0.29336  8.2188e+22
0.410665  8.21456e+22
0.52797  8.20836e+22
0.645275  8.19998e+22
0.76258  8.18942e+22
0.879885  8.17673e+22
0.99719  8.16215e+22
1.1145  8.14583e+22
1.2318  8.12791e+22
1.3491  8.10836e+22
1.46641  8.08707e+22
1.58371  8.06358e+22
1.70102  8.03749e+22
1.81832  8.00844e+22
1.93563  7.97612e+22
2.05294  7.94048e+22
2.17024  7.90176e+22
2.28754  7.86049e+22
2.40485  7.81732e+22
2.52216  7.77302e+22
2.63946  7.72813e+22
2.75677  7.68306e+22
2.87407  7.63791e+22
2.99137  7.59235e+22
3.10868  7.54586e+22
3.22599  7.49774e+22
3.34329  7.44735e+22
3.4606  7.39404e+22
3.5779  7.33762e+22
3.69521  7.27809e+22
3.81251  7.21577e+22
3.92982  7.15118e+22
4.04712  7.08504e+22
4.16443  7.01794e+22
4.28173  6.95055e+22
4.39903  6.88326e+22
4.51634  6.81628e+22
4.63364  6.74973e+22
4.75095  6.68358e+22
4.86825  6.61757e+22
4.98556  6.55153e+22
5.10286  6.48504e+22
5.22017  6.41775e+22
5.33748  6.34907e+22
5.45478  6.27846e+22
5.57209  6.20522e+22
5.68939  6.12875e+22
5.8067  6.04862e+22
5.924  5.9646e+22
6.0413  5.87686e+22
6.15861  5.78601e+22
6.27591  5.69301e+22
6.39322  5.59926e+22
6.51052  5.50634e+22
6.62783  5.41569e+22
6.74514  5.32863e+22
6.86244  5.24598e+22
6.97975  5.16799e+22
7.09705  5.09431e+22
7.21436  5.02396e+22
7.33166  4.95558e+22
7.44897  4.88756e+22
7.56627  4.8183e+22
7.68358  4.74646e+22
7.80088  4.67099e+22
7.91819  4.59144e+22
8.03549  4.50773e+22
8.1528  4.42025e+22
8.2701  4.32972e+22
8.38741  4.23718e+22
8.50471  4.14357e+22
8.62202  4.05005e+22
8.73932  3.95762e+22
8.85662  3.86711e+22
8.97393  3.77942e+22
9.09123  3.69521e+22
9.20854  3.61484e+22
9.32584  3.53858e+22
9.44315  3.46641e+22
9.56045  3.398e+22
9.67776  3.33264e+22
9.79506  3.26948e+22
9.91237  3.20732e+22
10.0297  3.14505e+22
10.147  3.08148e+22
10.2643  3.01568e+22
10.3816  2.94707e+22
10.4989  2.87531e+22
10.6162  2.80053e+22
10.7335  2.72308e+22
10.8508  2.64355e+22
10.9681  2.56249e+22
11.0854  2.48061e+22
11.2027  2.39832e+22
11.32  2.31604e+22
11.4373  2.2341e+22
11.5546  2.15286e+22
11.6719  2.07274e+22
11.7893  1.99429e+22
11.9066  1.91825e+22
12.0239  1.84551e+22
12.1412  1.77689e+22
12.2585  1.71315e+22
12.3758  1.65472e+22
12.4931  1.60165e+22
12.6104  1.5536e+22
12.7277  1.50973e+22
12.845  1.46885e+22
12.9623  1.42972e+22
13.0796  1.39099e+22
13.1969  1.35159e+22
13.3142  1.31081e+22
13.4315  1.26825e+22
13.5488  1.22408e+22
13.6661  1.17875e+22
13.7834  1.13303e+22
13.9007  1.08772e+22
14.018  1.04375e+22
14.1354  1.00193e+22
14.2527  9.62925e+21
14.37  9.27234e+21
14.4873  8.95296e+21
14.6046  8.67318e+21
14.7219  8.43302e+21
14.8392  8.23072e+21
14.9565  8.06295e+21
15.0738  7.9225e+21
15.1911  7.80089e+21
15.3084  7.68703e+21
15.4257  7.56965e+21
15.543  7.43719e+21
15.6603  7.28083e+21
15.7776  7.09577e+21
15.8949  6.88171e+21
16.0122  6.64298e+21
16.1295  6.38905e+21
16.2468  6.13143e+21
16.3641  5.88337e+21
16.4815  5.65622e+21
16.5988  5.458e+21
16.7161  5.29265e+21
16.8334  5.15825e+21
16.9507  5.04943e+21
17.068  4.95698e+21
17.1853  4.87066e+21
17.3026  4.7812e+21
17.4199  4.681e+21
17.5372  4.56611e+21
17.6545  4.43565e+21
17.7718  4.2921e+21
17.8891  4.14008e+21
18.0064  3.98497e+21
18.1237  3.83215e+21
18.241  3.68649e+21
18.3583  3.55215e+21
18.4756  3.4319e+21
18.5929  3.32733e+21
18.7102  3.24029e+21
18.8275  3.17159e+21
18.9449  3.12183e+21
19.0622  3.08994e+21
19.1795  3.07475e+21
19.2968  3.0731e+21
19.4141  3.08029e+21
19.5314  3.09107e+21
19.6487  3.09992e+21
19.766  3.10176e+21
19.8833  3.09358e+21
20.0006  3.07427e+21
20.1179  3.04538e+21
20.2352  3.01024e+21
20.3525  2.97375e+21
20.4698  2.94077e+21
20.5871  2.91467e+21
20.7044  2.89679e+21
20.8217  2.88608e+21
20.939  2.87856e+21
21.0563  2.86916e+21
21.1736  2.85212e+21
21.291  2.82278e+21
21.4083  2.77909e+21
21.5256  2.72081e+21
21.6429  2.65193e+21
21.7602  2.5779e+21
21.8775  2.50558e+21
21.9948  2.44201e+21
22.1121  2.39227e+21
22.2294  2.35969e+21
22.3467  2.34446e+21
22.464  2.34423e+21
22.5813  2.35485e+21
22.6986  2.37113e+21
22.8159  2.38743e+21
22.9332  2.39969e+21
23.0505  2.40431e+21
23.1678  2.39961e+21
23.2851  2.38471e+21
23.4024  2.35942e+21
23.5198  2.32433e+21
23.6371  2.28034e+21
23.7544  2.22831e+21
23.8717  2.17001e+21
23.989  2.10816e+21
24.1063  2.04593e+21
24.2236  1.9875e+21
24.3409  1.93774e+21
24.4582  1.90061e+21
24.5755  1.87939e+21
24.6928  1.87491e+21
24.8101  1.88542e+21
24.9274  1.90671e+21
25.0447  1.93227e+21
25.162  1.95489e+21
25.2793  1.96722e+21
25.3966  1.96408e+21
25.5139  1.94322e+21
25.6312  1.90562e+21
25.7485  1.85624e+21
25.8658  1.80223e+21
25.9832  1.75214e+21
26.1005  1.71432e+21
26.2178  1.69444e+21
26.3351  1.69571e+21
26.4524  1.71704e+21
26.5697  1.75402e+21
26.687  1.79982e+21
26.8043  1.84615e+21
26.9216  1.88508e+21
27.0389  1.91054e+21
27.1562  1.91863e+21
27.2735  1.9084e+21
27.3908  1.88158e+21
27.5081  1.84161e+21
27.6254  1.79311e+21
27.7427  1.74136e+21
27.86  1.69061e+21
27.9773  1.64466e+21
28.0946  1.60638e+21
28.212  1.57808e+21
28.3293  1.56144e+21
28.4466  1.55756e+21
28.5639  1.5669e+21
28.6812  1.58929e+21
28.7985  1.62263e+21
28.9158  1.66364e+21
29.0331  1.70747e+21
29.1504  1.74762e+21
29.2677  1.77766e+21
29.385  1.79122e+21
29.5023  1.78412e+21
29.6196  1.75502e+21
29.7369  1.70565e+21
29.8542  1.64164e+21
29.9715  1.57085e+21
30.0888  1.50294e+21
30.2061  1.44688e+21
30.3234  1.40958e+21
30.4407  1.39515e+21
30.558  1.40345e+21
30.6754  1.4306e+21
30.7927  1.47007e+21
30.91  1.51311e+21
31.0273  1.55214e+21
31.1446  1.58057e+21
31.2619  1.59487e+21
31.3792  1.59494e+21
31.4965  1.58305e+21
31.6138  1.56393e+21
31.7311  1.54296e+21
31.8484  1.52499e+21
31.9657  1.51355e+21
32.083  1.51054e+21
32.2003  1.51555e+21
32.3176  1.52709e+21
32.4349  1.54294e+21
32.5522  1.56069e+21
32.6695  1.57845e+21
32.7868  1.5946e+21
32.9042  1.60836e+21
33.0215  1.61868e+21
33.1388  1.62452e+21
33.2561  1.62417e+21
33.3734  1.61621e+21
33.4907  1.59872e+21
33.608  1.5714e+21
33.7253  1.53509e+21
33.8426  1.49259e+21
33.9599  1.44892e+21
34.0772  1.41e+21
34.1945  1.38219e+21
34.3118  1.37072e+21
34.4291  1.37864e+21
34.5464  1.40561e+21
34.6637  1.44751e+21
34.781  1.49775e+21
34.8983  1.54727e+21
35.0156  1.58687e+21
35.1329  1.60928e+21
35.2503  1.60978e+21
35.3676  1.58766e+21
35.4849  1.54652e+21
35.6022  1.4924e+21
35.7195  1.43388e+21
35.8368  1.37924e+21
35.9541  1.3356e+21
36.0714  1.3075e+21
36.1887  1.29612e+21
36.306  1.29997e+21
36.4233  1.31545e+21
36.5406  1.33771e+21
36.6579  1.3618e+21
36.7752  1.38407e+21
36.8925  1.40192e+21
37.0098  1.4143e+21
37.1271  1.42127e+21
37.2444  1.42367e+21
37.3617  1.42243e+21
37.479  1.41832e+21
37.5964  1.41217e+21
37.7137  1.40453e+21
37.831  1.39666e+21
37.9483  1.38966e+21
38.0656  1.38563e+21
38.1829  1.38607e+21
38.3002  1.39246e+21
38.4175  1.40494e+21
38.5348  1.422e+21
38.6521  1.44053e+21
38.7694  1.45557e+21
38.8867  1.46148e+21
39.004  1.45322e+21
39.1213  1.427e+21
39.2386  1.38204e+21
39.3559  1.32045e+21
39.4732  1.24814e+21
39.5905  1.1731e+21
39.7078  1.10479e+21
39.8251  1.05251e+21
39.9425  1.02336e+21
40.0598  1.02136e+21
40.1771  1.04682e+21
40.2944  1.09582e+21
40.4117  1.16177e+21
40.529  1.23598e+21
40.6463  1.30943e+21
40.7636  1.37443e+21
40.8809  1.4248e+21
40.9982  1.45755e+21
41.1155  1.47218e+21
41.2328  1.4705e+21
41.3501  1.45553e+21
41.4674  1.43174e+21
41.5847  1.403e+21
41.702  1.37326e+21
41.8193  1.3457e+21
41.9366  1.32282e+21
42.0539  1.30631e+21
42.1712  1.29729e+21
42.2885  1.29601e+21
42.4059  1.30193e+21
42.5232  1.31367e+21
42.6405  1.3285e+21
42.7578  1.34327e+21
42.8751  1.35378e+21
42.9924  1.35658e+21
43.1097  1.34859e+21
43.227  1.32853e+21
43.3443  1.29747e+21
43.4616  1.25843e+21
43.5789  1.21681e+21
43.6962  1.17928e+21
43.8135  1.15271e+21
43.9308  1.14293e+21
44.0481  1.15316e+21
44.1654  1.18405e+21
44.2827  1.23233e+21
44.4  1.29142e+21
44.5173  1.35318e+21
44.6347  1.40844e+21
44.752  1.44906e+21
44.8693  1.46943e+21
44.9866  1.46697e+21
45.1039  1.44346e+21
45.2212  1.40355e+21
45.3385  1.35481e+21
45.4558  1.30576e+21
45.5731  1.26411e+21
45.6904  1.23615e+21
45.8077  1.22554e+21
45.925  1.23271e+21
46.0423  1.25551e+21
46.1596  1.29039e+21
46.2769  1.33222e+21
46.3942  1.3765e+21
46.5115  1.41915e+21
46.6288  1.45746e+21
46.7461  1.48958e+21
46.8634  1.51438e+21
46.9808  1.53118e+21
47.0981  1.53911e+21
47.2154  1.53776e+21
47.3327  1.52631e+21
47.45  1.50524e+21
47.5673  1.47556e+21
47.6846  1.44026e+21
47.8019  1.40317e+21
47.9192  1.36934e+21
48.0365  1.34377e+21
48.1538  1.33015e+21
48.2711  1.33039e+21
48.3884  1.34367e+21
48.5057  1.36663e+21
48.623  1.39352e+21
48.7403  1.4176e+21
48.8576  1.433e+21
48.9749  1.43555e+21
49.0922  1.42387e+21
49.2095  1.40018e+21
49.3269  1.36961e+21
49.4442  1.33881e+21
49.5615  1.31504e+21
49.6788  1.30385e+21
49.7961  1.30822e+21
49.9134  1.32768e+21
50.0307  1.3589e+21
50.148  1.39596e+21
50.2653  1.4319e+21
50.3826  1.46055e+21
50.4999  1.47736e+21
50.6172  1.48041e+21
50.7345  1.47017e+21
50.8518  1.44969e+21
