#S 1 spectral density
#N 2
#UFWHM 38.9453
#L  abscissas [um]  spectral density
-58.5938  1.94e+20
-58.4764  1.90707e+20
-58.3591  1.85596e+20
-58.2418  1.81308e+20
-58.1245  1.80208e+20
-58.0072  1.83702e+20
-57.8899  1.91636e+20
-57.7726  2.02311e+20
-57.6553  2.12895e+20
-57.538  2.19914e+20
-57.4207  2.20306e+20
-57.3034  2.12334e+20
-57.1861  1.96106e+20
-57.0688  1.73871e+20
-56.9515  1.49485e+20
-56.8342  1.27905e+20
-56.7169  1.13953e+20
-56.5996  1.11206e+20
-56.4823  1.21339e+20
-56.365  1.43501e+20
-56.2477  1.74595e+20
-56.1303  2.10015e+20
-56.013  2.44406e+20
-55.8957  2.7328e+20
-55.7784  2.93511e+20
-55.6611  3.04254e+20
-55.5438  3.06731e+20
-55.4265  3.03932e+20
-55.3092  2.99403e+20
-55.1919  2.96472e+20
-55.0746  2.9713e+20
-54.9573  3.01542e+20
-54.84  3.08299e+20
-54.7227  3.14575e+20
-54.6054  3.17336e+20
-54.4881  3.14282e+20
-54.3708  3.04493e+20
-54.2535  2.88933e+20
-54.1362  2.70224e+20
-54.0189  2.51848e+20
-53.9016  2.37297e+20
-53.7842  2.28838e+20
-53.6669  2.2704e+20
-53.5496  2.30364e+20
-53.4323  2.35594e+20
-53.315  2.38916e+20
-53.1977  2.36785e+20
-53.0804  2.27373e+20
-52.9631  2.10839e+20
-52.8458  1.89697e+20
-52.7285  1.68184e+20
-52.6112  1.50984e+20
-52.4939  1.42141e+20
-52.3766  1.43741e+20
-52.2593  1.55292e+20
-52.142  1.73753e+20
-52.0247  1.94275e+20
-51.9074  2.1138e+20
-51.7901  2.20437e+20
-51.6728  2.18942e+20
-51.5555  2.07028e+20
-51.4381  1.87477e+20
-51.3208  1.64853e+20
-51.2035  1.44185e+20
-51.0862  1.29762e+20
-50.9689  1.23618e+20
-50.8516  1.2544e+20
-50.7343  1.32515e+20
-50.617  1.40673e+20
-50.4997  1.4566e+20
-50.3824  1.44548e+20
-50.2651  1.36573e+20
-50.1478  1.23665e+20
-50.0305  1.09809e+20
-49.9132  1.00217e+20
-49.7959  9.98284e+19
-49.6786  1.11927e+20
-49.5613  1.37323e+20
-49.444  1.73944e+20
-49.3267  2.17403e+20
-49.2094  2.62291e+20
-49.092  3.03101e+20
-48.9747  3.35841e+20
-48.8574  3.58674e+20
-48.7401  3.72182e+20
-48.6228  3.7878e+20
-48.5055  3.81556e+20
-48.3882  3.8361e+20
-48.2709  3.8658e+20
-48.1536  3.904e+20
-48.0363  3.93427e+20
-47.919  3.93099e+20
-47.8017  3.86961e+20
-47.6844  3.73846e+20
-47.5671  3.54272e+20
-47.4498  3.30973e+20
-47.3325  3.0815e+20
-47.2152  2.90438e+20
-47.0979  2.81946e+20
-46.9806  2.84677e+20
-46.8633  2.98219e+20
-46.7459  3.19603e+20
-46.6286  3.4363e+20
-46.5113  3.64542e+20
-46.394  3.77184e+20
-46.2767  3.78137e+20
-46.1594  3.66898e+20
-46.0421  3.45752e+20
-45.9248  3.19216e+20
-45.8075  2.93042e+20
-45.6902  2.72696e+20
-45.5729  2.61993e+20
-45.4556  2.62491e+20
-45.3383  2.72863e+20
-45.221  2.89563e+20
-45.1037  3.07693e+20
-44.9864  3.22114e+20
-44.8691  3.2877e+20
-44.7518  3.25491e+20
-44.6345  3.12227e+20
-44.5172  2.90989e+20
-44.3998  2.64913e+20
-44.2825  2.37578e+20
-44.1652  2.11883e+20
-44.0479  1.89437e+20
-43.9306  1.70521e+20
-43.8133  1.54077e+20
-43.696  1.38582e+20
-43.5787  1.22695e+20
-43.4614  1.0594e+20
-43.3441  8.92037e+19
-43.2268  7.46796e+19
-43.1095  6.54413e+19
-42.9922  6.46603e+19
-42.8749  7.46422e+19
-42.7576  9.62665e+19
-42.6403  1.28324e+20
-42.523  1.67719e+20
-42.4057  2.09909e+20
-42.2884  2.4991e+20
-42.171  2.83147e+20
-42.0537  3.0656e+20
-41.9364  3.18914e+20
-41.8191  3.2118e+20
-41.7018  3.15953e+20
-41.5845  3.06678e+20
-41.4672  2.96839e+20
-41.3499  2.8888e+20
-41.2326  2.83931e+20
-41.1153  2.8135e+20
-40.998  2.79522e+20
-40.8807  2.76371e+20
-40.7634  2.70344e+20
-40.6461  2.60934e+20
-40.5288  2.495e+20
-40.4115  2.38794e+20
-40.2942  2.32492e+20
-40.1769  2.34324e+20
-40.0596  2.46907e+20
-39.9423  2.70904e+20
-39.825  3.04917e+20
-39.7076  3.45387e+20
-39.5903  3.87348e+20
-39.473  4.25557e+20
-39.3557  4.55875e+20
-39.2384  4.76018e+20
-39.1211  4.86042e+20
-39.0038  4.88492e+20
-38.8865  4.87392e+20
-38.7692  4.87098e+20
-38.6519  4.91518e+20
-38.5346  5.02397e+20
-38.4173  5.19309e+20
-38.3  5.3974e+20
-38.1827  5.59546e+20
-38.0654  5.74222e+20
-37.9481  5.80187e+20
-37.8308  5.75236e+20
-37.7135  5.59722e+20
-37.5962  5.35685e+20
-37.4789  5.06714e+20
-37.3615  4.7658e+20
-37.2442  4.4831e+20
-37.1269  4.23437e+20
-37.0096  4.01908e+20
-36.8923  3.82334e+20
-36.775  3.62718e+20
-36.6577  3.41682e+20
-36.5404  3.19276e+20
-36.4231  2.97124e+20
-36.3058  2.78891e+20
-36.1885  2.68898e+20
-36.0712  2.71457e+20
-35.9539  2.89219e+20
-35.8366  3.22472e+20
-35.7193  3.68485e+20
-35.602  4.21785e+20
-35.4847  4.75174e+20
-35.3674  5.21332e+20
-35.2501  5.54198e+20
-35.1328  5.70351e+20
-35.0154  5.69605e+20
-34.8981  5.55094e+20
-34.7808  5.32044e+20
-34.6635  5.06796e+20
-34.5462  4.84963e+20
-34.4289  4.70144e+20
-34.3116  4.6353e+20
-34.1943  4.63524e+20
-34.077  4.66679e+20
-33.9597  4.69072e+20
-33.8424  4.67109e+20
-33.7251  4.59047e+20
-33.6078  4.45396e+20
-33.4905  4.28354e+20
-33.3732  4.11638e+20
-33.2559  3.98976e+20
-33.1386  3.93172e+20
-33.0213  3.95296e+20
-32.904  4.04597e+20
-32.7867  4.1872e+20
-32.6693  4.34949e+20
-32.552  4.51067e+20
-32.4347  4.66749e+20
-32.3174  4.83732e+20
-32.2001  5.05919e+20
-32.0828  5.38694e+20
-31.9655  5.87344e+20
-31.8482  6.55993e+20
-31.7309  7.45936e+20
-31.6136  8.5504e+20
-31.4963  9.78039e+20
-31.379  1.10675e+21
-31.2617  1.23192e+21
-31.1444  1.34453e+21
-31.0271  1.43754e+21
-30.9098  1.50685e+21
-30.7925  1.55173e+21
-30.6752  1.57475e+21
-30.5579  1.5809e+21
-30.4406  1.57693e+21
-30.3232  1.56997e+21
-30.2059  1.56709e+21
-30.0886  1.57518e+21
-29.9713  1.60086e+21
-29.854  1.65077e+21
-29.7367  1.73239e+21
-29.6194  1.85313e+21
-29.5021  2.02097e+21
-29.3848  2.24307e+21
-29.2675  2.52457e+21
-29.1502  2.86699e+21
-29.0329  3.26794e+21
-28.9156  3.71986e+21
-28.7983  4.21069e+21
-28.681  4.72494e+21
-28.5637  5.24514e+21
-28.4464  5.7542e+21
-28.3291  6.23737e+21
-28.2118  6.68424e+21
-28.0944  7.08921e+21
-27.9771  7.45195e+21
-27.8598  7.77658e+21
-27.7425  8.0709e+21
-27.6252  8.3445e+21
-27.5079  8.6082e+21
-27.3906  8.87164e+21
-27.2733  9.14497e+21
-27.156  9.43672e+21
-27.0387  9.75536e+21
-26.9214  1.01088e+22
-26.8041  1.05043e+22
-26.6868  1.09486e+22
-26.5695  1.14472e+22
-26.4522  1.20024e+22
-26.3349  1.26136e+22
-26.2176  1.32757e+22
-26.1003  1.39792e+22
-25.983  1.4711e+22
-25.8657  1.54554e+22
-25.7483  1.61953e+22
-25.631  1.69152e+22
-25.5137  1.76021e+22
-25.3964  1.82467e+22
-25.2791  1.88452e+22
-25.1618  1.93975e+22
-25.0445  1.99076e+22
-24.9272  2.03822e+22
-24.8099  2.08283e+22
-24.6926  2.12542e+22
-24.5753  2.16669e+22
-24.458  2.20722e+22
-24.3407  2.24762e+22
-24.2234  2.28838e+22
-24.1061  2.33003e+22
-23.9888  2.37311e+22
-23.8715  2.41806e+22
-23.7542  2.46526e+22
-23.6369  2.51488e+22
-23.5196  2.56679e+22
-23.4023  2.62052e+22
-23.2849  2.67531e+22
-23.1676  2.7301e+22
-23.0503  2.78374e+22
-22.933  2.83515e+22
-22.8157  2.88337e+22
-22.6984  2.92783e+22
-22.5811  2.96837e+22
-22.4638  3.0052e+22
-22.3465  3.0389e+22
-22.2292  3.07014e+22
-22.1119  3.09971e+22
-21.9946  3.12822e+22
-21.8773  3.15614e+22
-21.76  3.18364e+22
-21.6427  3.21078e+22
-21.5254  3.23749e+22
-21.4081  3.26368e+22
-21.2908  3.28937e+22
-21.1735  3.31473e+22
-21.0561  3.34005e+22
-20.9388  3.36566e+22
-20.8215  3.39195e+22
-20.7042  3.41912e+22
-20.5869  3.44723e+22
-20.4696  3.47611e+22
-20.3523  3.50544e+22
-20.235  3.53475e+22
-20.1177  3.56366e+22
-20.0004  3.5919e+22
-19.8831  3.61942e+22
-19.7658  3.64634e+22
-19.6485  3.67305e+22
-19.5312  3.69998e+22
-19.4139  3.72756e+22
-19.2966  3.75614e+22
-19.1793  3.78578e+22
-19.062  3.8164e+22
-18.9447  3.84776e+22
-18.8274  3.87953e+22
-18.71  3.9114e+22
-18.5927  3.94323e+22
-18.4754  3.97505e+22
-18.3581  4.00708e+22
-18.2408  4.03961e+22
-18.1235  4.07301e+22
-18.0062  4.10742e+22
-17.8889  4.14288e+22
-17.7716  4.17909e+22
-17.6543  4.2156e+22
-17.537  4.25175e+22
-17.4197  4.28697e+22
-17.3024  4.32078e+22
-17.1851  4.35302e+22
-17.0678  4.38381e+22
-16.9505  4.41355e+22
-16.8332  4.44286e+22
-16.7159  4.47235e+22
-16.5986  4.50256e+22
-16.4813  4.53382e+22
-16.364  4.56612e+22
-16.2466  4.59922e+22
-16.1293  4.63274e+22
-16.012  4.66617e+22
-15.8947  4.69921e+22
-15.7774  4.73166e+22
-15.6601  4.76362e+22
-15.5428  4.79539e+22
-15.4255  4.82736e+22
-15.3082  4.85995e+22
-15.1909  4.89346e+22
-15.0736  4.92786e+22
-14.9563  4.963e+22
-14.839  4.99838e+22
-14.7217  5.03346e+22
-14.6044  5.06768e+22
-14.4871  5.10064e+22
-14.3698  5.13211e+22
-14.2525  5.16211e+22
-14.1352  5.19092e+22
-14.0178  5.21885e+22
-13.9005  5.24625e+22
-13.7832  5.27339e+22
-13.6659  5.30031e+22
-13.5486  5.32697e+22
-13.4313  5.35314e+22
-13.314  5.37864e+22
-13.1967  5.4033e+22
-13.0794  5.42721e+22
-12.9621  5.45062e+22
-12.8448  5.47394e+22
-12.7275  5.49769e+22
-12.6102  5.52238e+22
-12.4929  5.54839e+22
-12.3756  5.57579e+22
-12.2583  5.6045e+22
-12.141  5.63416e+22
-12.0237  5.66429e+22
-11.9064  5.69442e+22
-11.7891  5.72425e+22
-11.6718  5.75366e+22
-11.5544  5.7828e+22
-11.4371  5.81205e+22
-11.3198  5.84188e+22
-11.2025  5.87276e+22
-11.0852  5.90498e+22
-10.9679  5.93857e+22
-10.8506  5.97323e+22
-10.7333  6.00839e+22
-10.616  6.04332e+22
-10.4987  6.07723e+22
-10.3814  6.10943e+22
-10.2641  6.13945e+22
-10.1468  6.16715e+22
-10.0295  6.19261e+22
-9.91217  6.2162e+22
-9.79487  6.23837e+22
-9.67756  6.25967e+22
-9.56026  6.28049e+22
-9.44295  6.30118e+22
-9.32565  6.3219e+22
-9.20834  6.34275e+22
-9.09104  6.36379e+22
-8.97373  6.38512e+22
-8.85643  6.40686e+22
-8.73913  6.42926e+22
-8.62182  6.45249e+22
-8.50452  6.47675e+22
-8.38721  6.50203e+22
-8.26991  6.52821e+22
-8.1526  6.55488e+22
-8.03529  6.58153e+22
-7.91799  6.60748e+22
-7.80069  6.63215e+22
-7.68338  6.65502e+22
-7.56608  6.6759e+22
-7.44877  6.69486e+22
-7.33146  6.71219e+22
-7.21416  6.72843e+22
-7.09685  6.74414e+22
-6.97955  6.75985e+22
-6.86224  6.77583e+22
-6.74494  6.79214e+22
-6.62763  6.80855e+22
-6.51033  6.82466e+22
-6.39302  6.83995e+22
-6.27572  6.85402e+22
-6.15842  6.86663e+22
-6.04111  6.87773e+22
-5.92381  6.88769e+22
-5.8065  6.89698e+22
-5.68919  6.90623e+22
-5.57189  6.91606e+22
-5.45458  6.92695e+22
-5.33728  6.93919e+22
-5.21997  6.95279e+22
-5.10267  6.96761e+22
-4.98536  6.98335e+22
-4.86806  6.99972e+22
-4.75075  7.01651e+22
-4.63345  7.0336e+22
-4.51614  7.05096e+22
-4.39884  7.06875e+22
-4.28154  7.08693e+22
-4.16423  7.1055e+22
-4.04692  7.12417e+22
-3.92962  7.14255e+22
-3.81231  7.16e+22
-3.69501  7.17591e+22
-3.5777  7.18971e+22
-3.4604  7.20103e+22
-3.34309  7.20979e+22
-3.22579  7.21628e+22
-3.10849  7.22103e+22
-2.99118  7.22472e+22
-2.87387  7.22815e+22
-2.75657  7.23195e+22
-2.63926  7.23653e+22
-2.52196  7.24205e+22
-2.40465  7.24845e+22
-2.28735  7.25544e+22
-2.17005  7.26273e+22
-2.05274  7.27004e+22
-1.93544  7.27732e+22
-1.81813  7.28464e+22
-1.70083  7.29226e+22
-1.58352  7.30043e+22
-1.46622  7.30941e+22
-1.34891  7.31923e+22
-1.2316  7.32973e+22
-1.1143  7.34049e+22
-0.996995  7.35097e+22
-0.87969  7.36054e+22
-0.762385  7.36868e+22
-0.64508  7.37507e+22
-0.527775  7.37962e+22
-0.41047  7.38253e+22
-0.293165  7.38423e+22
-0.17586  7.38507e+22
-0.058555  7.38545e+22
0.05875  7.38556e+22
0.176055  7.38529e+22
0.29336  7.38438e+22
0.410665  7.38238e+22
0.52797  7.37885e+22
0.645275  7.37347e+22
0.76258  7.36615e+22
0.879885  7.35704e+22
0.99719  7.34659e+22
1.1145  7.33542e+22
1.2318  7.32417e+22
1.3491  7.31338e+22
1.46641  7.30341e+22
1.58371  7.29432e+22
1.70102  7.28598e+22
1.81832  7.27812e+22
1.93563  7.27046e+22
2.05294  7.26279e+22
2.17024  7.25505e+22
2.28754  7.24741e+22
2.40485  7.24015e+22
2.52216  7.23359e+22
2.63946  7.22791e+22
2.75677  7.22317e+22
2.87407  7.21911e+22
2.99137  7.21523e+22
3.10868  7.21084e+22
3.22599  7.20522e+22
3.34329  7.19768e+22
3.4606  7.18779e+22
3.5779  7.17543e+22
3.69521  7.16078e+22
3.81251  7.14425e+22
3.92982  7.12646e+22
4.04712  7.10803e+22
4.16443  7.08942e+22
4.28173  7.07099e+22
4.39903  7.05287e+22
4.51634  7.03504e+22
4.63364  7.01744e+22
4.75095  7.00001e+22
4.86825  6.98277e+22
4.98556  6.96598e+22
5.10286  6.94988e+22
5.22017  6.93484e+22
5.33748  6.92113e+22
5.45478  6.90888e+22
5.57209  6.89797e+22
5.68939  6.88804e+22
5.8067  6.87853e+22
5.924  6.8688e+22
6.0413  6.85822e+22
6.15861  6.84639e+22
6.27591  6.83307e+22
6.39322  6.81838e+22
6.51052  6.80265e+22
6.62783  6.78634e+22
6.74514  6.76991e+22
6.86244  6.75373e+22
6.97975  6.73791e+22
7.09705  6.72228e+22
7.21436  6.70645e+22
7.33166  6.68983e+22
7.44897  6.67189e+22
7.56627  6.65214e+22
7.68358  6.63036e+22
7.80088  6.60661e+22
7.91819  6.58123e+22
8.03549  6.55473e+22
8.1528  6.52775e+22
8.2701  6.50089e+22
8.38741  6.47465e+22
8.50471  6.4493e+22
8.62202  6.42495e+22
8.73932  6.40154e+22
8.85662  6.37889e+22
8.97393  6.35682e+22
9.09123  6.33519e+22
9.20854  6.31388e+22
9.32584  6.29285e+22
9.44315  6.27204e+22
9.56045  6.2513e+22
9.67776  6.23037e+22
9.79506  6.20885e+22
9.91237  6.18626e+22
10.0297  6.16205e+22
10.147  6.1358e+22
10.2643  6.10719e+22
10.3816  6.07626e+22
10.4989  6.04329e+22
10.6162  6.00886e+22
10.7335  5.97371e+22
10.8508  5.93865e+22
10.9681  5.90434e+22
11.0854  5.87127e+22
11.2027  5.83956e+22
11.32  5.80908e+22
11.4373  5.77949e+22
11.5546  5.75024e+22
11.6719  5.72093e+22
11.7893  5.69122e+22
11.9066  5.66109e+22
12.0239  5.6307e+22
12.1412  5.60046e+22
12.2585  5.57085e+22
12.3758  5.5423e+22
12.4931  5.51507e+22
12.6104  5.48925e+22
12.7277  5.4646e+22
12.845  5.44072e+22
12.9623  5.41713e+22
13.0796  5.39336e+22
13.1969  5.36905e+22
13.3142  5.34403e+22
13.4315  5.31834e+22
13.5488  5.29211e+22
13.6661  5.26553e+22
13.7834  5.23877e+22
13.9007  5.21178e+22
14.018  5.18441e+22
14.1354  5.15636e+22
14.2527  5.12721e+22
14.37  5.09667e+22
14.4873  5.06457e+22
14.6046  5.03095e+22
14.7219  4.99611e+22
14.8392  4.9606e+22
14.9565  4.92494e+22
15.0738  4.88972e+22
15.1911  4.8553e+22
15.3084  4.82183e+22
15.4257  4.78916e+22
15.543  4.75702e+22
15.6603  4.72495e+22
15.7776  4.69258e+22
15.8949  4.6597e+22
16.0122  4.62627e+22
16.1295  4.59257e+22
16.2468  4.55898e+22
16.3641  4.52596e+22
16.4815  4.49386e+22
16.5988  4.46285e+22
16.7161  4.4328e+22
16.8334  4.40332e+22
16.9507  4.37383e+22
17.068  4.34371e+22
17.1853  4.31242e+22
17.3026  4.27967e+22
17.4199  4.24545e+22
17.5372  4.21003e+22
17.6545  4.17395e+22
17.7718  4.13782e+22
17.8891  4.10221e+22
18.0064  4.06749e+22
18.1237  4.03384e+22
18.241  4.00115e+22
18.3583  3.96916e+22
18.4756  3.93751e+22
18.5929  3.90593e+22
18.7102  3.87428e+22
18.8275  3.8426e+22
18.9449  3.81113e+22
19.0622  3.78017e+22
19.1795  3.75008e+22
19.2968  3.72105e+22
19.4141  3.69308e+22
19.5314  3.66598e+22
19.6487  3.63938e+22
19.766  3.6128e+22
19.8833  3.58579e+22
20.0006  3.55807e+22
20.1179  3.52956e+22
20.2352  3.50041e+22
20.3525  3.47096e+22
20.4698  3.44168e+22
20.5871  3.41296e+22
20.7044  3.38507e+22
20.8217  3.35815e+22
20.939  3.33204e+22
21.0563  3.30649e+22
21.1736  3.2811e+22
21.291  3.25554e+22
21.4083  3.22958e+22
21.5256  3.2031e+22
21.6429  3.17612e+22
21.7602  3.14873e+22
21.8775  3.12094e+22
21.9948  3.09265e+22
22.1121  3.06352e+22
22.2294  3.03298e+22
22.3467  3.00031e+22
22.464  2.96476e+22
22.5813  2.9256e+22
22.6986  2.88242e+22
22.8159  2.83521e+22
22.9332  2.78429e+22
23.0505  2.73045e+22
23.1678  2.67477e+22
23.2851  2.61843e+22
23.4024  2.56262e+22
23.5198  2.50835e+22
23.6371  2.45626e+22
23.7544  2.40672e+22
23.8717  2.35972e+22
23.989  2.315e+22
24.1063  2.27211e+22
24.2236  2.2306e+22
24.3409  2.18987e+22
24.4582  2.14941e+22
24.5755  2.10862e+22
24.6928  2.0669e+22
24.8101  2.02353e+22
24.9274  1.97778e+22
25.0447  1.92878e+22
25.162  1.87587e+22
25.2793  1.81844e+22
25.3966  1.75625e+22
25.5139  1.68952e+22
25.6312  1.61889e+22
25.7485  1.54551e+22
25.8658  1.47081e+22
25.9832  1.3965e+22
26.1005  1.32427e+22
26.2178  1.25565e+22
26.3351  1.19179e+22
26.4524  1.13347e+22
26.5697  1.08095e+22
26.687  1.03416e+22
26.8043  9.92712e+21
26.9216  9.55917e+21
27.0389  9.23083e+21
27.1562  8.93389e+21
27.2735  8.66028e+21
27.3908  8.40111e+21
27.5081  8.14762e+21
27.6254  7.88943e+21
27.7427  7.61657e+21
27.86  7.31889e+21
27.9773  6.98794e+21
28.0946  6.61744e+21
28.212  6.20577e+21
28.3293  5.75512e+21
28.4466  5.27363e+21
28.5639  4.7737e+21
28.6812  4.27076e+21
28.7985  3.78211e+21
28.9158  3.32359e+21
29.0331  2.90932e+21
29.1504  2.54898e+21
29.2677  2.24716e+21
29.385  2.00439e+21
29.5023  1.81732e+21
29.6196  1.67977e+21
29.7369  1.58419e+21
29.8542  1.52319e+21
29.9715  1.4894e+21
30.0888  1.47602e+21
30.2061  1.47706e+21
30.3234  1.48611e+21
30.4407  1.49668e+21
30.558  1.50173e+21
30.6754  1.49464e+21
30.7927  1.46927e+21
30.91  1.42169e+21
31.0273  1.35039e+21
31.1446  1.25736e+21
31.2619  1.14773e+21
31.3792  1.02911e+21
31.4965  9.10371e+20
31.6138  8.00118e+20
31.7311  7.05128e+20
31.8484  6.29373e+20
31.9657  5.73311e+20
32.083  5.34403e+20
32.2003  5.08065e+20
32.3176  4.88887e+20
32.4349  4.72171e+20
32.5522  4.55001e+20
32.6695  4.36543e+20
32.7868  4.18295e+20
32.9042  4.02919e+20
33.0215  3.9327e+20
33.1388  3.91348e+20
33.2561  3.97371e+20
33.3734  4.09749e+20
33.4907  4.25179e+20
33.608  4.40085e+20
33.7253  4.51028e+20
33.8426  4.56379e+20
33.9599  4.56541e+20
34.0772  4.54006e+20
34.1945  4.52328e+20
34.3118  4.5551e+20
34.4291  4.6626e+20
34.5464  4.85065e+20
34.6637  5.09791e+20
34.781  5.35785e+20
34.8983  5.57081e+20
35.0156  5.67435e+20
35.1329  5.6238e+20
35.2503  5.39786e+20
35.3676  5.01201e+20
35.4849  4.51197e+20
35.6022  3.96597e+20
35.7195  3.44864e+20
35.8368  3.02869e+20
35.9541  2.75056e+20
36.0714  2.63092e+20
36.1887  2.65744e+20
36.306  2.79528e+20
36.4233  2.99796e+20
36.5406  3.22329e+20
36.6579  3.44178e+20
36.7752  3.64121e+20
36.8925  3.82939e+20
37.0098  4.02378e+20
37.1271  4.24419e+20
37.2444  4.50083e+20
37.3617  4.79032e+20
37.479  5.09025e+20
37.5964  5.3684e+20
37.7137  5.58491e+20
37.831  5.71034e+20
37.9483  5.72972e+20
38.0656  5.64896e+20
38.1829  5.49592e+20
38.3002  5.31125e+20
38.4175  5.13941e+20
38.5348  5.01503e+20
38.6521  4.95406e+20
38.7694  4.95018e+20
38.8867  4.97357e+20
39.004  4.98135e+20
39.1213  4.92794e+20
39.2386  4.77849e+20
39.3559  4.51842e+20
39.4732  4.15806e+20
39.5905  3.73234e+20
39.7078  3.29206e+20
39.8251  2.89124e+20
39.9425  2.57704e+20
40.0598  2.3773e+20
40.1771  2.29822e+20
40.2944  2.32032e+20
40.4117  2.41014e+20
40.529  2.5277e+20
40.6463  2.63825e+20
40.7636  2.71905e+20
40.8809  2.76497e+20
40.9982  2.78775e+20
41.1155  2.80621e+20
41.2328  2.84271e+20
41.3501  2.9089e+20
41.4674  3.00372e+20
41.5847  3.10894e+20
41.702  3.19401e+20
41.8193  3.22137e+20
41.9366  3.15898e+20
42.0539  2.98676e+20
42.1712  2.70601e+20
42.2885  2.33745e+20
42.4059  1.92061e+20
42.5232  1.5052e+20
42.6405  1.13996e+20
42.7578  8.64154e+19
42.8751  6.99078e+19
42.9924  6.4626e+19
43.1097  6.88906e+19
43.227  7.98971e+19
43.3443  9.44504e+19
43.4616  1.0995e+20
43.5789  1.24878e+20
43.6962  1.39153e+20
43.8135  1.53813e+20
43.9308  1.70434e+20
44.0481  1.90405e+20
44.1654  2.14187e+20
44.2827  2.409e+20
44.4  2.68243e+20
44.5173  2.92927e+20
44.6347  3.11453e+20
44.752  3.21219e+20
44.8693  3.21004e+20
44.9866  3.11878e+20
45.1039  2.96703e+20
45.2212  2.80087e+20
45.3385  2.66965e+20
45.4558  2.61603e+20
45.5731  2.66594e+20
45.6904  2.81943e+20
45.8077  3.05133e+20
45.925  3.31592e+20
46.0423  3.5579e+20
46.1596  3.72553e+20
46.2769  3.78243e+20
46.3942  3.71776e+20
46.5115  3.54947e+20
46.6288  3.31785e+20
46.7461  3.07824e+20
46.8634  2.88542e+20
46.9808  2.78458e+20
47.0981  2.79503e+20
47.2154  2.91347e+20
47.3327  3.11147e+20
47.45  3.34612e+20
47.5673  3.57241e+20
47.6846  3.75377e+20
47.8019  3.87017e+20
47.9192  3.92112e+20
48.0365  3.92246e+20
48.1538  3.89855e+20
48.2711  3.87014e+20
48.3884  3.84776e+20
48.5057  3.82638e+20
48.623  3.78388e+20
48.7403  3.6911e+20
48.8576  3.51901e+20
48.9749  3.25063e+20
49.0922  2.89027e+20
49.2095  2.46419e+20
49.3269  2.01861e+20
49.4442  1.60843e+20
49.5615  1.28538e+20
49.6788  1.08452e+20
49.7961  1.01469e+20
49.9134  1.05878e+20
50.0307  1.17639e+20
50.148  1.31522e+20
50.2653  1.42625e+20
50.3826  1.47597e+20
50.4999  1.45503e+20
50.6172  1.38058e+20
50.7345  1.2886e+20
50.8518  1.22408e+20
