#S 1 spectral density
#N 2
#UFWHM 14.6631
#L  abscissas [um]  spectral density
-58.5938  1.30359e+21
-58.4764  1.29263e+21
-58.3591  1.27766e+21
-58.2418  1.26053e+21
-58.1245  1.24333e+21
-58.0072  1.22761e+21
-57.8899  1.21447e+21
-57.7726  1.20403e+21
-57.6553  1.19591e+21
-57.538  1.18899e+21
-57.4207  1.18226e+21
-57.3034  1.17525e+21
-57.1861  1.16761e+21
-57.0688  1.16033e+21
-56.9515  1.15479e+21
-56.8342  1.15224e+21
-56.7169  1.15423e+21
-56.5996  1.16114e+21
-56.4823  1.17242e+21
-56.365  1.1866e+21
-56.2477  1.20147e+21
-56.1303  1.21436e+21
-56.013  1.2231e+21
-55.8957  1.22626e+21
-55.7784  1.224e+21
-55.6611  1.21778e+21
-55.5438  1.21031e+21
-55.4265  1.2048e+21
-55.3092  1.20419e+21
-55.1919  1.21078e+21
-55.0746  1.22462e+21
-54.9573  1.2446e+21
-54.84  1.26772e+21
-54.7227  1.29022e+21
-54.6054  1.3081e+21
-54.4881  1.31838e+21
-54.3708  1.3195e+21
-54.2535  1.31174e+21
-54.1362  1.29708e+21
-54.0189  1.27846e+21
-53.9016  1.25934e+21
-53.7842  1.24268e+21
-53.6669  1.22976e+21
-53.5496  1.22092e+21
-53.4323  1.21502e+21
-53.315  1.21012e+21
-53.1977  1.20444e+21
-53.0804  1.19666e+21
-52.9631  1.18715e+21
-52.8458  1.17693e+21
-52.7285  1.16815e+21
-52.6112  1.16333e+21
-52.4939  1.16383e+21
-52.3766  1.17006e+21
-52.2593  1.18104e+21
-52.142  1.19381e+21
-52.0247  1.20551e+21
-51.9074  1.21294e+21
-51.7901  1.21439e+21
-51.6728  1.20989e+21
-51.5555  1.20181e+21
-51.4381  1.19387e+21
-51.3208  1.19069e+21
-51.2035  1.19598e+21
-51.0862  1.21225e+21
-50.9689  1.2391e+21
-50.8516  1.2738e+21
-50.7343  1.31125e+21
-50.617  1.34541e+21
-50.4997  1.37088e+21
-50.3824  1.38333e+21
-50.2651  1.38189e+21
-50.1478  1.36783e+21
-50.0305  1.34559e+21
-49.9132  1.32053e+21
-49.7959  1.29828e+21
-49.6786  1.28309e+21
-49.5613  1.27693e+21
-49.444  1.27939e+21
-49.3267  1.28749e+21
-49.2094  1.29746e+21
-49.092  1.30531e+21
-48.9747  1.30789e+21
-48.8574  1.30419e+21
-48.7401  1.29535e+21
-48.6228  1.2839e+21
-48.5055  1.27347e+21
-48.3882  1.26705e+21
-48.2709  1.26698e+21
-48.1536  1.27339e+21
-48.0363  1.28485e+21
-47.919  1.29905e+21
-47.8017  1.31267e+21
-47.6844  1.32334e+21
-47.5671  1.33006e+21
-47.4498  1.33269e+21
-47.3325  1.33337e+21
-47.2152  1.3342e+21
-47.0979  1.33743e+21
-46.9806  1.34404e+21
-46.8633  1.35402e+21
-46.7459  1.3652e+21
-46.6286  1.37465e+21
-46.5113  1.37876e+21
-46.394  1.37512e+21
-46.2767  1.36251e+21
-46.1594  1.34233e+21
-46.0421  1.31746e+21
-45.9248  1.29281e+21
-45.8075  1.27387e+21
-45.6902  1.26494e+21
-45.5729  1.26898e+21
-45.4556  1.28612e+21
-45.3383  1.31418e+21
-45.221  1.34845e+21
-45.1037  1.38323e+21
-44.9864  1.41266e+21
-44.8691  1.43225e+21
-44.7518  1.43961e+21
-44.6345  1.43463e+21
-44.5172  1.41985e+21
-44.3998  1.39962e+21
-44.2825  1.37883e+21
-44.1652  1.36178e+21
-44.0479  1.35214e+21
-43.9306  1.35118e+21
-43.8133  1.35831e+21
-43.696  1.37117e+21
-43.5787  1.38674e+21
-43.4614  1.40129e+21
-43.3441  1.41191e+21
-43.2268  1.41698e+21
-43.1095  1.41551e+21
-42.9922  1.40864e+21
-42.8749  1.39774e+21
-42.7576  1.38457e+21
-42.6403  1.37154e+21
-42.523  1.35995e+21
-42.4057  1.35104e+21
-42.2884  1.34554e+21
-42.171  1.34416e+21
-42.0537  1.34745e+21
-41.9364  1.35623e+21
-41.8191  1.37112e+21
-41.7018  1.39285e+21
-41.5845  1.42118e+21
-41.4672  1.4553e+21
-41.3499  1.49276e+21
-41.2326  1.53035e+21
-41.1153  1.5638e+21
-40.998  1.58852e+21
-40.8807  1.60082e+21
-40.7634  1.59812e+21
-40.6461  1.58029e+21
-40.5288  1.54922e+21
-40.4115  1.50908e+21
-40.2942  1.46547e+21
-40.1769  1.42449e+21
-40.0596  1.39173e+21
-39.9423  1.37076e+21
-39.825  1.36325e+21
-39.7076  1.36841e+21
-39.5903  1.38304e+21
-39.473  1.40267e+21
-39.3557  1.42283e+21
-39.2384  1.4393e+21
-39.1211  1.44947e+21
-39.0038  1.45205e+21
-38.8865  1.44813e+21
-38.7692  1.43919e+21
-38.6519  1.42786e+21
-38.5346  1.41657e+21
-38.4173  1.40687e+21
-38.3  1.4001e+21
-38.1827  1.3966e+21
-38.0654  1.39629e+21
-37.9481  1.39961e+21
-37.8308  1.40647e+21
-37.7135  1.41762e+21
-37.5962  1.43337e+21
-37.4789  1.45412e+21
-37.3615  1.47897e+21
-37.2442  1.50606e+21
-37.1269  1.53212e+21
-37.0096  1.55353e+21
-36.8923  1.56606e+21
-36.775  1.56692e+21
-36.6577  1.55448e+21
-36.5404  1.53019e+21
-36.4231  1.49741e+21
-36.3058  1.46174e+21
-36.1885  1.42964e+21
-36.0712  1.40717e+21
-35.9539  1.39896e+21
-35.8366  1.40658e+21
-35.7193  1.42881e+21
-35.602  1.46104e+21
-35.4847  1.49717e+21
-35.3674  1.53001e+21
-35.2501  1.5532e+21
-35.1328  1.56249e+21
-35.0154  1.5564e+21
-34.8981  1.53629e+21
-34.7808  1.5051e+21
-34.6635  1.46849e+21
-34.5462  1.43109e+21
-34.4289  1.39698e+21
-34.3116  1.36851e+21
-34.1943  1.34644e+21
-34.077  1.32979e+21
-33.9597  1.31727e+21
-33.8424  1.30742e+21
-33.7251  1.29934e+21
-33.6078  1.29336e+21
-33.4905  1.29011e+21
-33.3732  1.29091e+21
-33.2559  1.29691e+21
-33.1386  1.30774e+21
-33.0213  1.32225e+21
-32.904  1.33799e+21
-32.7867  1.35219e+21
-32.6693  1.36213e+21
-32.552  1.36617e+21
-32.4347  1.36458e+21
-32.3174  1.35947e+21
-32.2001  1.35436e+21
-32.0828  1.35366e+21
-31.9655  1.36127e+21
-31.8482  1.37962e+21
-31.7309  1.4087e+21
-31.6136  1.44578e+21
-31.4963  1.48578e+21
-31.379  1.5226e+21
-31.2617  1.54968e+21
-31.1444  1.56221e+21
-31.0271  1.55773e+21
-30.9098  1.53681e+21
-30.7925  1.50321e+21
-30.6752  1.46253e+21
-30.5579  1.42144e+21
-30.4406  1.38605e+21
-30.3232  1.36095e+21
-30.2059  1.34806e+21
-30.0886  1.34631e+21
-29.9713  1.35346e+21
-29.854  1.3652e+21
-29.7367  1.37739e+21
-29.6194  1.38662e+21
-29.5021  1.39154e+21
-29.3848  1.39192e+21
-29.2675  1.38951e+21
-29.1502  1.38665e+21
-29.0329  1.38548e+21
-28.9156  1.38813e+21
-28.7983  1.39463e+21
-28.681  1.40473e+21
-28.5637  1.4176e+21
-28.4464  1.43138e+21
-28.3291  1.44581e+21
-28.2118  1.46084e+21
-28.0944  1.47767e+21
-27.9771  1.49823e+21
-27.8598  1.52436e+21
-27.7425  1.55704e+21
-27.6252  1.59631e+21
-27.5079  1.63968e+21
-27.3906  1.68385e+21
-27.2733  1.72415e+21
-27.156  1.75608e+21
-27.0387  1.77613e+21
-26.9214  1.78277e+21
-26.8041  1.77713e+21
-26.6868  1.76297e+21
-26.5695  1.74594e+21
-26.4522  1.73239e+21
-26.3349  1.72828e+21
-26.2176  1.73758e+21
-26.1003  1.7618e+21
-25.983  1.79937e+21
-25.8657  1.84588e+21
-25.7483  1.8954e+21
-25.631  1.94154e+21
-25.5137  1.9786e+21
-25.3964  2.0023e+21
-25.2791  2.01203e+21
-25.1618  2.00901e+21
-25.0445  1.99688e+21
-24.9272  1.98009e+21
-24.8099  1.96419e+21
-24.6926  1.95305e+21
-24.5753  1.95007e+21
-24.458  1.95672e+21
-24.3407  1.97294e+21
-24.2234  1.99812e+21
-24.1061  2.03053e+21
-23.9888  2.06898e+21
-23.8715  2.11236e+21
-23.7542  2.15906e+21
-23.6369  2.20808e+21
-23.5196  2.25745e+21
-23.4023  2.30505e+21
-23.2849  2.34785e+21
-23.1676  2.38258e+21
-23.0503  2.40675e+21
-22.933  2.41846e+21
-22.8157  2.41786e+21
-22.6984  2.40711e+21
-22.5811  2.39058e+21
-22.4638  2.37407e+21
-22.3465  2.3637e+21
-22.2292  2.36523e+21
-22.1119  2.38208e+21
-21.9946  2.41551e+21
-21.8773  2.46337e+21
-21.76  2.52088e+21
-21.6427  2.58142e+21
-21.5254  2.63745e+21
-21.4081  2.68277e+21
-21.2908  2.71278e+21
-21.1735  2.72589e+21
-21.0561  2.72304e+21
-20.9388  2.70846e+21
-20.8215  2.68766e+21
-20.7042  2.66594e+21
-20.5869  2.64934e+21
-20.4696  2.64189e+21
-20.3523  2.64529e+21
-20.235  2.66039e+21
-20.1177  2.68597e+21
-20.0004  2.71998e+21
-19.8831  2.76065e+21
-19.7658  2.80558e+21
-19.6485  2.85302e+21
-19.5312  2.90085e+21
-19.4139  2.94672e+21
-19.2966  2.98852e+21
-19.1793  3.02329e+21
-19.062  3.04777e+21
-18.9447  3.05986e+21
-18.8274  3.05793e+21
-18.71  3.04211e+21
-18.5927  3.01481e+21
-18.4754  2.97988e+21
-18.3581  2.94339e+21
-18.2408  2.91085e+21
-18.1235  2.88835e+21
-18.0062  2.87906e+21
-17.8889  2.88539e+21
-17.7716  2.90589e+21
-17.6543  2.93782e+21
-17.537  2.97689e+21
-17.4197  3.01945e+21
-17.3024  3.06261e+21
-17.1851  3.10558e+21
-17.0678  3.15057e+21
-16.9505  3.20052e+21
-16.8332  3.26089e+21
-16.7159  3.33574e+21
-16.5986  3.42839e+21
-16.4813  3.53966e+21
-16.364  3.66753e+21
-16.2466  3.80821e+21
-16.1293  3.95586e+21
-16.012  4.10515e+21
-15.8947  4.25183e+21
-15.7774  4.39336e+21
-15.6601  4.53002e+21
-15.5428  4.66459e+21
-15.4255  4.80169e+21
-15.3082  4.94568e+21
-15.1909  5.10081e+21
-15.0736  5.2692e+21
-14.9563  5.45129e+21
-14.839  5.64555e+21
-14.7217  5.84868e+21
-14.6044  6.05721e+21
-14.4871  6.2676e+21
-14.3698  6.47701e+21
-14.2525  6.68494e+21
-14.1352  6.89073e+21
-14.0178  7.09532e+21
-13.9005  7.29948e+21
-13.7832  7.50381e+21
-13.6659  7.70861e+21
-13.5486  7.91376e+21
-13.4313  8.12006e+21
-13.314  8.32892e+21
-13.1967  8.54339e+21
-13.0794  8.76857e+21
-12.9621  9.01045e+21
-12.8448  9.27603e+21
-12.7275  9.57186e+21
-12.6102  9.90099e+21
-12.4929  1.02652e+22
-12.3756  1.06607e+22
-12.2583  1.10804e+22
-12.141  1.15141e+22
-12.0237  1.19503e+22
-11.9064  1.23784e+22
-11.7891  1.27898e+22
-11.6718  1.31807e+22
-11.5544  1.35517e+22
-11.4371  1.3909e+22
-11.3198  1.42616e+22
-11.2025  1.46228e+22
-11.0852  1.50057e+22
-10.9679  1.54227e+22
-10.8506  1.58837e+22
-10.7333  1.63957e+22
-10.616  1.6962e+22
-10.4987  1.75827e+22
-10.3814  1.82551e+22
-10.2641  1.89745e+22
-10.1468  1.97352e+22
-10.0295  2.05282e+22
-9.91217  2.13461e+22
-9.79487  2.21789e+22
-9.67756  2.30164e+22
-9.56026  2.38483e+22
-9.44295  2.46649e+22
-9.32565  2.54582e+22
-9.20834  2.62227e+22
-9.09104  2.69569e+22
-8.97373  2.76641e+22
-8.85643  2.83513e+22
-8.73913  2.90303e+22
-8.62182  2.97135e+22
-8.50452  3.04165e+22
-8.38721  3.11516e+22
-8.26991  3.19301e+22
-8.1526  3.27577e+22
-8.03529  3.36369e+22
-7.91799  3.45648e+22
-7.80069  3.55352e+22
-7.68338  3.65395e+22
-7.56608  3.75678e+22
-7.44877  3.86111e+22
-7.33146  3.96601e+22
-7.21416  4.07072e+22
-7.09685  4.17466e+22
-6.97955  4.27722e+22
-6.86224  4.37799e+22
-6.74494  4.47639e+22
-6.62763  4.57209e+22
-6.51033  4.6648e+22
-6.39302  4.75431e+22
-6.27572  4.84071e+22
-6.15842  4.9244e+22
-6.04111  5.00594e+22
-5.92381  5.08626e+22
-5.8065  5.16629e+22
-5.68919  5.2469e+22
-5.57189  5.32901e+22
-5.45458  5.41298e+22
-5.33728  5.49903e+22
-5.21997  5.58684e+22
-5.10267  5.67588e+22
-4.98536  5.76523e+22
-4.86806  5.85408e+22
-4.75075  5.94153e+22
-4.63345  6.02694e+22
-4.51614  6.10978e+22
-4.39884  6.18994e+22
-4.28154  6.26721e+22
-4.16423  6.34192e+22
-4.04692  6.41406e+22
-3.92962  6.48395e+22
-3.81231  6.55171e+22
-3.69501  6.61748e+22
-3.5777  6.68152e+22
-3.4604  6.74399e+22
-3.34309  6.80525e+22
-3.22579  6.86559e+22
-3.10849  6.92547e+22
-2.99118  6.98504e+22
-2.87387  7.04455e+22
-2.75657  7.10389e+22
-2.63926  7.16272e+22
-2.52196  7.22042e+22
-2.40465  7.27632e+22
-2.28735  7.32965e+22
-2.17005  7.37977e+22
-2.05274  7.42628e+22
-1.93544  7.46903e+22
-1.81813  7.50831e+22
-1.70083  7.54466e+22
-1.58352  7.57884e+22
-1.46622  7.61155e+22
-1.34891  7.64338e+22
-1.2316  7.67478e+22
-1.1143  7.70575e+22
-0.996995  7.73613e+22
-0.87969  7.76534e+22
-0.762385  7.79275e+22
-0.64508  7.81766e+22
-0.527775  7.83939e+22
-0.41047  7.85742e+22
-0.293165  7.87131e+22
-0.17586  7.88085e+22
-0.058555  7.88585e+22
0.05875  7.88627e+22
0.176055  7.88204e+22
0.29336  7.87335e+22
0.410665  7.86022e+22
0.52797  7.84303e+22
0.645275  7.82221e+22
0.76258  7.79839e+22
0.879885  7.77223e+22
0.99719  7.74449e+22
1.1145  7.71582e+22
1.2318  7.68663e+22
1.3491  7.65703e+22
1.46641  7.62695e+22
1.58371  7.59575e+22
1.70102  7.56275e+22
1.81832  7.52724e+22
1.93563  7.48845e+22
2.05294  7.44594e+22
2.17024  7.39955e+22
2.28754  7.34952e+22
2.40485  7.29631e+22
2.52216  7.24071e+22
2.63946  7.18339e+22
2.75677  7.12512e+22
2.87407  7.06642e+22
2.99137  7.00753e+22
3.10868  6.94843e+22
3.22599  6.88901e+22
3.34329  6.82898e+22
3.4606  6.76791e+22
3.5779  6.70561e+22
3.69521  6.64178e+22
3.81251  6.57624e+22
3.92982  6.5088e+22
4.04712  6.43934e+22
4.16443  6.36758e+22
4.28173  6.29339e+22
4.39903  6.21652e+22
4.51634  6.1369e+22
4.63364  6.05453e+22
4.75095  5.96978e+22
4.86825  5.88306e+22
4.98556  5.79525e+22
5.10286  5.7071e+22
5.22017  5.61955e+22
5.33748  5.53335e+22
5.45478  5.44897e+22
5.57209  5.36651e+22
5.68939  5.28572e+22
5.8067  5.20594e+22
5.924  5.12632e+22
6.0413  5.04597e+22
6.15861  4.96388e+22
6.27591  4.87929e+22
6.39322  4.79177e+22
6.51052  4.70104e+22
6.62783  4.60715e+22
6.74514  4.51036e+22
6.86244  4.41097e+22
6.97975  4.30947e+22
7.09705  4.20628e+22
7.21436  4.10188e+22
7.33166  3.99686e+22
7.44897  3.89183e+22
7.56627  3.78762e+22
7.68358  3.68511e+22
7.80088  3.58526e+22
7.91819  3.48908e+22
8.03549  3.39735e+22
8.1528  3.31055e+22
8.2701  3.22881e+22
8.38741  3.1518e+22
8.50471  3.07865e+22
8.62202  3.00833e+22
8.73932  2.93937e+22
8.85662  2.87035e+22
8.97393  2.80005e+22
9.09123  2.72747e+22
9.20854  2.65202e+22
9.32584  2.57358e+22
9.44315  2.49244e+22
9.56045  2.40922e+22
9.67776  2.32478e+22
9.79506  2.24011e+22
9.91237  2.15623e+22
10.0297  2.07416e+22
10.147  1.99479e+22
10.2643  1.91897e+22
10.3816  1.84751e+22
10.4989  1.78089e+22
10.6162  1.71963e+22
10.7335  1.66391e+22
10.8508  1.61352e+22
10.9681  1.56805e+22
11.0854  1.52664e+22
11.2027  1.4882e+22
11.32  1.45135e+22
11.4373  1.4148e+22
11.5546  1.37735e+22
11.6719  1.33814e+22
11.7893  1.29679e+22
11.9066  1.25337e+22
12.0239  1.2085e+22
12.1412  1.16313e+22
12.2585  1.11841e+22
12.3758  1.07548e+22
12.4931  1.03531e+22
12.6104  9.985e+21
12.7277  9.65304e+21
12.845  9.35519e+21
12.9623  9.08726e+21
13.0796  8.84266e+21
13.1969  8.61496e+21
13.3142  8.39822e+21
13.4315  8.18762e+21
13.5488  7.98047e+21
13.6661  7.77554e+21
13.7834  7.57208e+21
13.9007  7.36914e+21
14.018  7.16628e+21
14.1354  6.96279e+21
14.2527  6.75753e+21
14.37  6.54948e+21
14.4873  6.33991e+21
14.6046  6.1301e+21
14.7219  5.92308e+21
14.8392  5.72198e+21
14.9565  5.53099e+21
15.0738  5.3523e+21
15.1911  5.18695e+21
15.3084  5.03358e+21
15.4257  4.88943e+21
15.543  4.74945e+21
15.6603  4.60921e+21
15.7776  4.46466e+21
15.8949  4.31408e+21
16.0122  4.15802e+21
16.1295  3.99989e+21
16.2468  3.84464e+21
16.3641  3.69855e+21
16.4815  3.56645e+21
16.5988  3.45194e+21
16.7161  3.35673e+21
16.8334  3.27884e+21
16.9507  3.215e+21
17.068  3.16042e+21
17.1853  3.11063e+21
17.3026  3.06292e+21
17.4199  3.01609e+21
17.5372  2.9717e+21
17.6545  2.93274e+21
17.7718  2.90305e+21
17.8891  2.88658e+21
18.0064  2.88488e+21
18.1237  2.89828e+21
18.241  2.92441e+21
18.3583  2.95878e+21
18.4756  2.9953e+21
18.5929  3.02859e+21
18.7102  3.0535e+21
18.8275  3.06634e+21
18.9449  3.06604e+21
19.0622  3.05248e+21
19.1795  3.02737e+21
19.2968  2.99341e+21
19.4141  2.9528e+21
19.5314  2.90801e+21
19.6487  2.86125e+21
19.766  2.81456e+21
19.8833  2.76955e+21
20.0006  2.72878e+21
20.1179  2.69501e+21
20.2352  2.67018e+21
20.3525  2.65701e+21
20.4698  2.65602e+21
20.5871  2.66654e+21
20.7044  2.68548e+21
20.8217  2.70859e+21
20.939  2.72955e+21
21.0563  2.74232e+21
21.1736  2.7415e+21
21.291  2.72374e+21
21.4083  2.68877e+21
21.5256  2.63894e+21
21.6429  2.58e+21
21.7602  2.51856e+21
21.8775  2.4622e+21
21.9948  2.41692e+21
22.1121  2.38693e+21
22.2294  2.37331e+21
22.3467  2.37409e+21
22.464  2.38499e+21
22.5813  2.4003e+21
22.6986  2.41366e+21
22.8159  2.42008e+21
22.9332  2.41637e+21
23.0505  2.40103e+21
23.1678  2.37448e+21
23.2851  2.33892e+21
23.4024  2.29704e+21
23.5198  2.25154e+21
23.6371  2.20494e+21
23.7544  2.15871e+21
23.8717  2.11429e+21
23.989  2.07302e+21
24.1063  2.03604e+21
24.2236  2.0049e+21
24.3409  1.98144e+21
24.4582  1.96733e+21
24.5755  1.96341e+21
24.6928  1.96945e+21
24.8101  1.98338e+21
24.9274  2.00132e+21
25.0447  2.01872e+21
25.162  2.02981e+21
25.2793  2.03009e+21
25.3966  2.01607e+21
25.5139  1.98743e+21
25.6312  1.94605e+21
25.7485  1.89645e+21
25.8658  1.8451e+21
25.9832  1.7984e+21
26.1005  1.76231e+21
26.2178  1.74021e+21
26.3351  1.73296e+21
26.4524  1.73822e+21
26.5697  1.75137e+21
26.687  1.76603e+21
26.8043  1.77637e+21
26.9216  1.7775e+21
27.0389  1.76637e+21
27.1562  1.74315e+21
27.2735  1.7098e+21
27.3908  1.66999e+21
27.5081  1.62829e+21
27.6254  1.58867e+21
27.7427  1.55412e+21
27.86  1.52543e+21
27.9773  1.50256e+21
28.0946  1.4839e+21
28.212  1.46766e+21
28.3293  1.45259e+21
28.4466  1.43778e+21
28.5639  1.42375e+21
28.6812  1.41162e+21
28.7985  1.4027e+21
28.9158  1.39781e+21
29.0331  1.39704e+21
29.1504  1.39926e+21
29.2677  1.40207e+21
29.385  1.40315e+21
29.5023  1.40016e+21
29.6196  1.39199e+21
29.7369  1.37935e+21
29.8542  1.36445e+21
29.9715  1.35134e+21
30.0888  1.34429e+21
30.2061  1.34739e+21
30.3234  1.36289e+21
30.4407  1.39066e+21
30.558  1.42795e+21
30.6754  1.4696e+21
30.7927  1.50942e+21
30.91  1.54057e+21
31.0273  1.55808e+21
31.1446  1.55898e+21
31.2619  1.54366e+21
31.3792  1.51486e+21
31.4965  1.47818e+21
31.6138  1.43984e+21
31.7311  1.40548e+21
31.8484  1.37965e+21
31.9657  1.36402e+21
32.083  1.3578e+21
32.2003  1.35853e+21
32.3176  1.36224e+21
32.4349  1.36502e+21
32.5522  1.36378e+21
32.6695  1.35729e+21
32.7868  1.34595e+21
32.9042  1.33155e+21
33.0215  1.31683e+21
33.1388  1.30412e+21
33.2561  1.29524e+21
33.3734  1.29115e+21
33.4907  1.29103e+21
33.608  1.29422e+21
33.7253  1.29965e+21
33.8426  1.30676e+21
33.9599  1.31618e+21
34.0772  1.32921e+21
34.1945  1.34759e+21
34.3118  1.37259e+21
34.4291  1.40482e+21
34.5464  1.44255e+21
34.6637  1.48288e+21
34.781  1.5209e+21
34.8983  1.55137e+21
35.0156  1.56935e+21
35.1329  1.57187e+21
35.2503  1.55844e+21
35.3676  1.53138e+21
35.4849  1.49593e+21
35.6022  1.45868e+21
35.7195  1.42693e+21
35.8368  1.40666e+21
35.9541  1.40152e+21
36.0714  1.41184e+21
36.1887  1.43536e+21
36.306  1.46704e+21
36.4233  1.50058e+21
36.5406  1.5301e+21
36.6579  1.5505e+21
36.7752  1.5589e+21
36.8925  1.55527e+21
37.0098  1.54109e+21
37.1271  1.5198e+21
37.2444  1.49503e+21
37.3617  1.47012e+21
37.479  1.4478e+21
37.5964  1.42945e+21
37.7137  1.41549e+21
37.831  1.40561e+21
37.9483  1.39957e+21
38.0656  1.39726e+21
38.1829  1.39855e+21
38.3002  1.40383e+21
38.4175  1.41295e+21
38.5348  1.425e+21
38.6521  1.43871e+21
38.7694  1.45168e+21
38.8867  1.46101e+21
39.004  1.46408e+21
39.1213  1.45916e+21
39.2386  1.44598e+21
39.3559  1.42648e+21
39.4732  1.40383e+21
39.5905  1.38296e+21
39.7078  1.36876e+21
39.8251  1.36558e+21
39.9425  1.37588e+21
40.0598  1.39979e+21
40.1771  1.43492e+21
40.2944  1.47655e+21
40.4117  1.51888e+21
40.529  1.55588e+21
40.6463  1.58237e+21
40.7636  1.5949e+21
40.8809  1.59251e+21
40.9982  1.5766e+21
41.1155  1.54981e+21
41.2328  1.51668e+21
41.3501  1.48098e+21
41.4674  1.44649e+21
41.5847  1.41588e+21
41.702  1.3905e+21
41.8193  1.37076e+21
41.9366  1.3566e+21
42.0539  1.34741e+21
42.1712  1.34303e+21
42.2885  1.34313e+21
42.4059  1.34791e+21
42.5232  1.35667e+21
42.6405  1.36898e+21
42.7578  1.3834e+21
42.8751  1.39781e+21
42.9924  1.40996e+21
43.1097  1.41749e+21
43.227  1.41856e+21
43.3443  1.41294e+21
43.4616  1.40147e+21
43.5789  1.38644e+21
43.6962  1.37129e+21
43.8135  1.35976e+21
43.9308  1.3549e+21
44.0481  1.35874e+21
44.1654  1.37102e+21
44.2827  1.3897e+21
44.4  1.4109e+21
44.5173  1.4297e+21
44.6347  1.44139e+21
44.752  1.44216e+21
44.8693  1.43039e+21
44.9866  1.40693e+21
45.1039  1.37494e+21
45.2212  1.33958e+21
45.3385  1.30672e+21
45.4558  1.28136e+21
45.5731  1.26747e+21
45.6904  1.26654e+21
45.8077  1.2772e+21
45.925  1.29639e+21
46.0423  1.31912e+21
46.1596  1.34059e+21
46.2769  1.35684e+21
46.3942  1.36535e+21
46.5115  1.36596e+21
46.6288  1.36044e+21
46.7461  1.35139e+21
46.8634  1.34214e+21
46.9808  1.3353e+21
47.0981  1.33207e+21
47.2154  1.33192e+21
47.3327  1.33318e+21
47.45  1.33369e+21
47.5673  1.33098e+21
47.6846  1.32397e+21
47.8019  1.31292e+21
47.9192  1.29925e+21
48.0365  1.28603e+21
48.1538  1.27615e+21
48.2711  1.27177e+21
48.3884  1.27386e+21
48.5057  1.28151e+21
48.623  1.29216e+21
48.7403  1.30273e+21
48.8576  1.30971e+21
48.9749  1.31112e+21
49.0922  1.3064e+21
49.2095  1.29728e+21
49.3269  1.28737e+21
49.4442  1.2804e+21
49.5615  1.28018e+21
49.6788  1.28875e+21
49.7961  1.30589e+21
49.9134  1.32891e+21
50.0307  1.35312e+21
50.148  1.37273e+21
50.2653  1.38266e+21
50.3826  1.37959e+21
50.4999  1.36266e+21
50.6172  1.33418e+21
50.7345  1.29857e+21
