#S 1 spectral density
#N 2
#UFWHM 22.5226
#L  abscissas [um]  spectral density
-58.5938  2.46192e+20
-58.4764  2.38314e+20
-58.3591  2.30936e+20
-58.2418  2.26952e+20
-58.1245  2.28565e+20
-58.0072  2.36892e+20
-57.8899  2.51305e+20
-57.7726  2.69386e+20
-57.6553  2.87475e+20
-57.538  3.01211e+20
-57.4207  3.0697e+20
-57.3034  3.02486e+20
-57.1861  2.8753e+20
-57.0688  2.64315e+20
-56.9515  2.37199e+20
-56.8342  2.11251e+20
-56.7169  1.91985e+20
-56.5996  1.83417e+20
-56.4823  1.87616e+20
-56.365  2.04038e+20
-56.2477  2.29654e+20
-56.1303  2.59888e+20
-56.013  2.89385e+20
-55.8957  3.13385e+20
-55.7784  3.28775e+20
-55.6611  3.34682e+20
-55.5438  3.32484e+20
-55.4265  3.25192e+20
-55.3092  3.16857e+20
-55.1919  3.11207e+20
-55.0746  3.10378e+20
-54.9573  3.15273e+20
-54.84  3.2456e+20
-54.7227  3.35924e+20
-54.6054  3.46308e+20
-54.4881  3.5342e+20
-54.3708  3.56138e+20
-54.2535  3.55105e+20
-54.1362  3.52376e+20
-54.0189  3.50834e+20
-53.9016  3.53135e+20
-53.7842  3.60735e+20
-53.6669  3.7354e+20
-53.5496  3.89226e+20
-53.4323  4.04131e+20
-53.315  4.14146e+20
-53.1977  4.15587e+20
-53.0804  4.06656e+20
-52.9631  3.88004e+20
-52.8458  3.6242e+20
-52.7285  3.34802e+20
-52.6112  3.10394e+20
-52.4939  2.93872e+20
-52.3766  2.879e+20
-52.2593  2.92495e+20
-52.142  3.04972e+20
-52.0247  3.20912e+20
-51.9074  3.34969e+20
-51.7901  3.42661e+20
-51.6728  3.41532e+20
-51.5555  3.31675e+20
-51.4381  3.1573e+20
-51.3208  2.98134e+20
-51.2035  2.836e+20
-51.0862  2.76087e+20
-50.9689  2.77412e+20
-50.8516  2.8673e+20
-50.7343  3.00936e+20
-50.617  3.15371e+20
-50.4997  3.25403e+20
-50.3824  3.27536e+20
-50.2651  3.20676e+20
-50.1478  3.06449e+20
-50.0305  2.88654e+20
-49.9132  2.72353e+20
-49.7959  2.62531e+20
-49.6786  2.62594e+20
-49.5613  2.73393e+20
-49.444  2.93347e+20
-49.3267  3.1835e+20
-49.2094  3.43302e+20
-49.092  3.63247e+20
-48.9747  3.74666e+20
-48.8574  3.76481e+20
-48.7401  3.69696e+20
-48.6228  3.57535e+20
-48.5055  3.44001e+20
-48.3882  3.32679e+20
-48.2709  3.26024e+20
-48.1536  3.24269e+20
-48.0363  3.26219e+20
-47.919  3.29215e+20
-47.8017  3.30488e+20
-47.6844  3.28243e+20
-47.5671  3.22259e+20
-47.4498  3.13955e+20
-47.3325  3.06511e+20
-47.2152  3.03313e+20
-47.0979  3.07236e+20
-46.9806  3.19369e+20
-46.8633  3.38619e+20
-46.7459  3.61592e+20
-46.6286  3.83318e+20
-46.5113  3.9839e+20
-46.394  4.02437e+20
-46.2767  3.9337e+20
-46.1594  3.71958e+20
-46.0421  3.41725e+20
-45.9248  3.0876e+20
-45.8075  2.79772e+20
-45.6902  2.60815e+20
-45.5729  2.56231e+20
-45.4556  2.67107e+20
-45.3383  2.9174e+20
-45.221  3.25501e+20
-45.1037  3.62343e+20
-44.9864  3.96053e+20
-44.8691  4.21738e+20
-44.7518  4.36551e+20
-44.6345  4.40199e+20
-44.5172  4.34796e+20
-44.3998  4.23979e+20
-44.2825  4.12056e+20
-44.1652  4.02489e+20
-44.0479  3.97606e+20
-43.9306  3.98036e+20
-43.8133  4.02603e+20
-43.696  4.09361e+20
-43.5787  4.16248e+20
-43.4614  4.21528e+20
-43.3441  4.24784e+20
-43.2268  4.26783e+20
-43.1095  4.29214e+20
-42.9922  4.34196e+20
-42.8749  4.43292e+20
-42.7576  4.57058e+20
-42.6403  4.74645e+20
-42.523  4.93569e+20
-42.4057  5.10575e+20
-42.2884  5.22183e+20
-42.171  5.25717e+20
-42.0537  5.19947e+20
-41.9364  5.05561e+20
-41.8191  4.85009e+20
-41.7018  4.62145e+20
-41.5845  4.41112e+20
-41.4672  4.25571e+20
-41.3499  4.17605e+20
-41.2326  4.17572e+20
-41.1153  4.23588e+20
-40.998  4.32548e+20
-40.8807  4.40685e+20
-40.7634  4.44762e+20
-40.6461  4.42922e+20
-40.5288  4.34986e+20
-40.4115  4.22785e+20
-40.2942  4.09375e+20
-40.1769  3.98129e+20
-40.0596  3.92005e+20
-39.9423  3.92014e+20
-39.825  3.97773e+20
-39.7076  4.06894e+20
-39.5903  4.15799e+20
-39.473  4.21041e+20
-39.3557  4.19843e+20
-39.2384  4.11605e+20
-39.1211  3.97793e+20
-39.0038  3.81889e+20
-38.8865  3.68701e+20
-38.7692  3.62867e+20
-38.6519  3.6804e+20
-38.5346  3.85403e+20
-38.4173  4.13706e+20
-38.3  4.49204e+20
-38.1827  4.8638e+20
-38.0654  5.19578e+20
-37.9481  5.44096e+20
-37.8308  5.57e+20
-37.7135  5.58147e+20
-37.5962  5.49646e+20
-37.4789  5.35252e+20
-37.3615  5.19495e+20
-37.2442  5.0611e+20
-37.1269  4.9741e+20
-37.0096  4.93808e+20
-36.8923  4.94084e+20
-36.775  4.95968e+20
-36.6577  4.97106e+20
-36.5404  4.96289e+20
-36.4231  4.93406e+20
-36.3058  4.90141e+20
-36.1885  4.89038e+20
-36.0712  4.92709e+20
-35.9539  5.02764e+20
-35.8366  5.19072e+20
-35.7193  5.39408e+20
-35.602  5.59676e+20
-35.4847  5.75045e+20
-35.3674  5.80878e+20
-35.2501  5.74558e+20
-35.1328  5.56069e+20
-35.0154  5.28475e+20
-34.8981  4.9759e+20
-34.7808  4.70393e+20
-34.6635  4.53962e+20
-34.5462  4.53457e+20
-34.4289  4.70854e+20
-34.3116  5.04572e+20
-34.1943  5.49943e+20
-34.077  5.99701e+20
-33.9597  6.46165e+20
-33.8424  6.82741e+20
-33.7251  7.05305e+20
-33.6078  7.1285e+20
-33.4905  7.07458e+20
-33.3732  6.93694e+20
-33.2559  6.7705e+20
-33.1386  6.62222e+20
-33.0213  6.52911e+20
-32.904  6.50029e+20
-32.7867  6.52798e+20
-32.6693  6.58909e+20
-32.552  6.65604e+20
-32.4347  6.7085e+20
-32.3174  6.74221e+20
-32.2001  6.7656e+20
-32.0828  6.80455e+20
-31.9655  6.88725e+20
-31.8482  7.03815e+20
-31.7309  7.26296e+20
-31.6136  7.55077e+20
-31.4963  7.86729e+20
-31.379  8.16904e+20
-31.2617  8.40812e+20
-31.1444  8.54627e+20
-31.0271  8.56572e+20
-30.9098  8.47205e+20
-30.7925  8.29669e+20
-30.6752  8.08423e+20
-30.5579  7.88226e+20
-30.4406  7.73598e+20
-30.3232  7.66827e+20
-30.2059  7.68205e+20
-30.0886  7.75624e+20
-29.9713  7.85727e+20
-29.854  7.94748e+20
-29.7367  7.99607e+20
-29.6194  7.98774e+20
-29.5021  7.92763e+20
-29.3848  7.83819e+20
-29.2675  7.75158e+20
-29.1502  7.6976e+20
-29.0329  7.69958e+20
-28.9156  7.76112e+20
-28.7983  7.86426e+20
-28.681  7.98115e+20
-28.5637  8.07546e+20
-28.4464  8.11548e+20
-28.3291  8.08901e+20
-28.2118  8.00557e+20
-28.0944  7.8964e+20
-27.9771  7.81626e+20
-27.8598  7.82011e+20
-27.7425  7.96113e+20
-27.6252  8.268e+20
-27.5079  8.74501e+20
-27.3906  9.36287e+20
-27.2733  1.00664e+21
-27.156  1.07851e+21
-27.0387  1.14436e+21
-26.9214  1.19837e+21
-26.8041  1.23664e+21
-26.6868  1.25821e+21
-26.5695  1.26468e+21
-26.4522  1.25999e+21
-26.3349  1.24866e+21
-26.2176  1.23523e+21
-26.1003  1.2232e+21
-25.983  1.21451e+21
-25.8657  1.20958e+21
-25.7483  1.20785e+21
-25.631  1.20873e+21
-25.5137  1.21183e+21
-25.3964  1.21763e+21
-25.2791  1.22728e+21
-25.1618  1.24287e+21
-25.0445  1.26579e+21
-24.9272  1.29666e+21
-24.8099  1.33467e+21
-24.6926  1.37708e+21
-24.5753  1.41977e+21
-24.458  1.45829e+21
-24.3407  1.48866e+21
-24.2234  1.508e+21
-24.1061  1.51692e+21
-23.9888  1.51814e+21
-23.8715  1.51708e+21
-23.7542  1.52018e+21
-23.6369  1.53479e+21
-23.5196  1.56588e+21
-23.4023  1.61643e+21
-23.2849  1.68603e+21
-23.1676  1.77081e+21
-23.0503  1.86493e+21
-22.933  1.96092e+21
-22.8157  2.05208e+21
-22.6984  2.13309e+21
-22.5811  2.20167e+21
-22.4638  2.25797e+21
-22.3465  2.30451e+21
-22.2292  2.3454e+21
-22.1119  2.38486e+21
-21.9946  2.4266e+21
-21.8773  2.47279e+21
-21.76  2.52435e+21
-21.6427  2.58079e+21
-21.5254  2.64165e+21
-21.4081  2.70719e+21
-21.2908  2.77882e+21
-21.1735  2.85891e+21
-21.0561  2.95183e+21
-20.9388  3.06152e+21
-20.8215  3.19128e+21
-20.7042  3.34221e+21
-20.5869  3.51255e+21
-20.4696  3.6976e+21
-20.3523  3.88997e+21
-20.235  4.08078e+21
-20.1177  4.26111e+21
-20.0004  4.42367e+21
-19.8831  4.56353e+21
-19.7658  4.67869e+21
-19.6485  4.7712e+21
-19.5312  4.8451e+21
-19.4139  4.90567e+21
-19.2966  4.95951e+21
-19.1793  5.01208e+21
-19.062  5.06841e+21
-18.9447  5.13328e+21
-18.8274  5.21122e+21
-18.71  5.30659e+21
-18.5927  5.42582e+21
-18.4754  5.57495e+21
-18.3581  5.76158e+21
-18.2408  5.99148e+21
-18.1235  6.26967e+21
-18.0062  6.59654e+21
-17.8889  6.96922e+21
-17.7716  7.3802e+21
-17.6543  7.81796e+21
-17.537  8.26977e+21
-17.4197  8.7224e+21
-17.3024  9.1637e+21
-17.1851  9.58655e+21
-17.0678  9.98783e+21
-16.9505  1.03685e+22
-16.8332  1.07347e+22
-16.7159  1.10939e+22
-16.5986  1.14556e+22
-16.4813  1.18276e+22
-16.364  1.22171e+22
-16.2466  1.26293e+22
-16.1293  1.3067e+22
-16.012  1.35339e+22
-15.8947  1.40318e+22
-15.7774  1.45649e+22
-15.6601  1.51373e+22
-15.5428  1.57534e+22
-15.4255  1.64174e+22
-15.3082  1.71311e+22
-15.1909  1.78931e+22
-15.0736  1.86985e+22
-14.9563  1.95392e+22
-14.839  2.04031e+22
-14.7217  2.12782e+22
-14.6044  2.2152e+22
-14.4871  2.30143e+22
-14.3698  2.38576e+22
-14.2525  2.46794e+22
-14.1352  2.54794e+22
-14.0178  2.6261e+22
-13.9005  2.70285e+22
-13.7832  2.77867e+22
-13.6659  2.85399e+22
-13.5486  2.92918e+22
-13.4313  3.00449e+22
-13.314  3.08017e+22
-13.1967  3.15656e+22
-13.0794  3.23399e+22
-12.9621  3.31299e+22
-12.8448  3.39405e+22
-12.7275  3.47761e+22
-12.6102  3.56388e+22
-12.4929  3.6528e+22
-12.3756  3.74388e+22
-12.2583  3.83627e+22
-12.141  3.92881e+22
-12.0237  4.02014e+22
-11.9064  4.10899e+22
-11.7891  4.1942e+22
-11.6718  4.27508e+22
-11.5544  4.35132e+22
-11.4371  4.42306e+22
-11.3198  4.49081e+22
-11.2025  4.55535e+22
-11.0852  4.61755e+22
-10.9679  4.6782e+22
-10.8506  4.73803e+22
-10.7333  4.79752e+22
-10.616  4.85718e+22
-10.4987  4.91732e+22
-10.3814  4.97822e+22
-10.2641  5.04035e+22
-10.1468  5.10402e+22
-10.0295  5.16972e+22
-9.91217  5.23776e+22
-9.79487  5.30821e+22
-9.67756  5.38099e+22
-9.56026  5.45573e+22
-9.44295  5.5317e+22
-9.32565  5.60799e+22
-9.20834  5.68367e+22
-9.09104  5.75786e+22
-8.97373  5.82987e+22
-8.85643  5.89932e+22
-8.73913  5.96624e+22
-8.62182  6.03092e+22
-8.50452  6.09382e+22
-8.38721  6.15555e+22
-8.26991  6.21674e+22
-8.1526  6.27779e+22
-8.03529  6.33905e+22
-7.91799  6.40061e+22
-7.80069  6.46253e+22
-7.68338  6.52471e+22
-7.56608  6.58717e+22
-7.44877  6.64999e+22
-7.33146  6.71322e+22
-7.21416  6.77703e+22
-7.09685  6.84147e+22
-6.97955  6.90652e+22
-6.86224  6.97201e+22
-6.74494  7.03746e+22
-6.62763  7.10239e+22
-6.51033  7.16617e+22
-6.39302  7.22827e+22
-6.27572  7.28835e+22
-6.15842  7.34633e+22
-6.04111  7.40239e+22
-5.92381  7.45706e+22
-5.8065  7.51089e+22
-5.68919  7.56456e+22
-5.57189  7.61853e+22
-5.45458  7.67305e+22
-5.33728  7.728e+22
-5.21997  7.78295e+22
-5.10267  7.83725e+22
-4.98536  7.89011e+22
-4.86806  7.94088e+22
-4.75075  7.98907e+22
-4.63345  8.03452e+22
-4.51614  8.07736e+22
-4.39884  8.11803e+22
-4.28154  8.15703e+22
-4.16423  8.19504e+22
-4.04692  8.23248e+22
-3.92962  8.26969e+22
-3.81231  8.30675e+22
-3.69501  8.34357e+22
-3.5777  8.37995e+22
-3.4604  8.41575e+22
-3.34309  8.45084e+22
-3.22579  8.48527e+22
-3.10849  8.51912e+22
-2.99118  8.55258e+22
-2.87387  8.5858e+22
-2.75657  8.61874e+22
-2.63926  8.65121e+22
-2.52196  8.6828e+22
-2.40465  8.713e+22
-2.28735  8.74125e+22
-2.17005  8.76707e+22
-2.05274  8.79017e+22
-1.93544  8.81056e+22
-1.81813  8.82852e+22
-1.70083  8.84453e+22
-1.58352  8.85916e+22
-1.46622  8.87293e+22
-1.34891  8.88616e+22
-1.2316  8.89895e+22
-1.1143  8.91113e+22
-0.996995  8.92232e+22
-0.87969  8.93208e+22
-0.762385  8.93997e+22
-0.64508  8.94587e+22
-0.527775  8.94974e+22
-0.41047  8.95191e+22
-0.293165  8.95282e+22
-0.17586  8.95301e+22
-0.058555  8.95287e+22
0.05875  8.95264e+22
0.176055  8.95221e+22
0.29336  8.9514e+22
0.410665  8.94962e+22
0.52797  8.94644e+22
0.645275  8.94142e+22
0.76258  8.93441e+22
0.879885  8.92539e+22
0.99719  8.9147e+22
1.1145  8.90278e+22
1.2318  8.89003e+22
1.3491  8.87678e+22
1.46641  8.86312e+22
1.58371  8.84884e+22
1.70102  8.83347e+22
1.81832  8.8165e+22
1.93563  8.79735e+22
2.05294  8.7756e+22
2.17024  8.75108e+22
2.28754  8.72394e+22
2.40485  8.69451e+22
2.52216  8.66337e+22
2.63946  8.63105e+22
2.75677  8.59808e+22
2.87407  8.56477e+22
2.99137  8.53123e+22
3.10868  8.49739e+22
3.22599  8.46311e+22
3.34329  8.42819e+22
3.4606  8.39254e+22
3.5779  8.35617e+22
3.69521  8.31926e+22
3.81251  8.28197e+22
3.92982  8.24452e+22
4.04712  8.20689e+22
4.16443  8.16893e+22
4.28173  8.13026e+22
4.39903  8.09039e+22
4.51634  8.04864e+22
4.63364  8.00452e+22
4.75095  7.95773e+22
4.86825  7.90822e+22
4.98556  7.85633e+22
5.10286  7.80259e+22
5.22017  7.74777e+22
5.33748  7.69259e+22
5.45478  7.63764e+22
5.57209  7.58321e+22
5.68939  7.52927e+22
5.8067  7.47544e+22
5.924  7.42118e+22
6.0413  7.36583e+22
6.15861  7.30882e+22
6.27591  7.24975e+22
6.39322  7.18857e+22
6.51052  7.12549e+22
6.62783  7.06094e+22
6.74514  6.99552e+22
6.86244  6.92981e+22
6.97975  6.86431e+22
7.09705  6.79931e+22
7.21436  6.73498e+22
7.33166  6.67128e+22
7.44897  6.60808e+22
7.56627  6.54528e+22
7.68358  6.48279e+22
7.80088  6.4206e+22
7.91819  6.35876e+22
8.03549  6.29732e+22
8.1528  6.23615e+22
8.2701  6.17512e+22
8.38741  6.11384e+22
8.50471  6.05175e+22
8.62202  5.98825e+22
8.73932  5.92276e+22
8.85662  5.8548e+22
8.97393  5.78427e+22
9.09123  5.71129e+22
9.20854  5.63638e+22
9.32584  5.56031e+22
9.44315  5.48403e+22
9.56045  5.40845e+22
9.67776  5.33444e+22
9.79506  5.26253e+22
9.91237  5.19306e+22
10.0297  5.126e+22
10.147  5.06112e+22
10.2643  4.99808e+22
10.3816  4.93652e+22
10.4989  4.87596e+22
10.6162  4.81608e+22
10.7335  4.75653e+22
10.8508  4.69692e+22
10.9681  4.63677e+22
11.0854  4.5754e+22
11.2027  4.51214e+22
11.32  4.44603e+22
11.4373  4.37632e+22
11.5546  4.30233e+22
11.6719  4.22376e+22
11.7893  4.14062e+22
11.9066  4.05342e+22
12.0239  3.9631e+22
12.1412  3.87089e+22
12.2585  3.77812e+22
12.3758  3.6861e+22
12.4931  3.59584e+22
12.6104  3.50807e+22
12.7277  3.42304e+22
12.845  3.34069e+22
12.9623  3.26067e+22
13.0796  3.18249e+22
13.1969  3.10562e+22
13.3142  3.02963e+22
13.4315  2.95411e+22
13.5488  2.87881e+22
13.6661  2.80347e+22
13.7834  2.72788e+22
13.9007  2.6516e+22
14.018  2.57422e+22
14.1354  2.49531e+22
14.2527  2.4145e+22
14.37  2.33157e+22
14.4873  2.24669e+22
14.6046  2.16025e+22
14.7219  2.07314e+22
14.8392  1.98646e+22
14.9565  1.90143e+22
15.0738  1.81926e+22
15.1911  1.74097e+22
15.3084  1.66724e+22
15.4257  1.59847e+22
15.543  1.53458e+22
15.6603  1.47524e+22
15.7776  1.42012e+22
15.8949  1.36872e+22
16.0122  1.32062e+22
16.1295  1.27553e+22
16.2468  1.2332e+22
16.3641  1.19334e+22
16.4815  1.15554e+22
16.5988  1.11926e+22
16.7161  1.08374e+22
16.8334  1.04811e+22
16.9507  1.0115e+22
17.068  9.7317e+21
17.1853  9.32689e+21
17.3026  8.90095e+21
17.4199  8.45908e+21
17.5372  8.01024e+21
17.6545  7.56685e+21
17.7718  7.1426e+21
17.8891  6.74991e+21
18.0064  6.39891e+21
18.1237  6.0947e+21
18.241  5.8395e+21
18.3583  5.63073e+21
18.4756  5.46274e+21
18.5929  5.32899e+21
18.7102  5.22255e+21
18.8275  5.13679e+21
18.9449  5.0667e+21
19.0622  5.00703e+21
19.1795  4.95409e+21
19.2968  4.90324e+21
19.4141  4.84875e+21
19.5314  4.78434e+21
19.6487  4.70462e+21
19.766  4.60437e+21
19.8833  4.48003e+21
20.0006  4.33181e+21
20.1179  4.16229e+21
20.2352  3.9775e+21
20.3525  3.78607e+21
20.4698  3.5969e+21
20.5871  3.41847e+21
20.7044  3.25691e+21
20.8217  3.11595e+21
20.939  2.99588e+21
21.0563  2.8945e+21
21.1736  2.80803e+21
21.291  2.73183e+21
21.4083  2.66276e+21
21.5256  2.59843e+21
21.6429  2.53826e+21
21.7602  2.4827e+21
21.8775  2.43237e+21
21.9948  2.38743e+21
22.1121  2.34649e+21
22.2294  2.30698e+21
22.3467  2.26475e+21
22.464  2.21532e+21
22.5813  2.15521e+21
22.6986  2.08253e+21
22.8159  1.998e+21
22.9332  1.90564e+21
23.0505  1.81114e+21
23.1678  1.72197e+21
23.2851  1.64482e+21
23.4024  1.58486e+21
23.5198  1.54434e+21
23.6371  1.52255e+21
23.7544  1.51487e+21
23.8717  1.51552e+21
23.989  1.51703e+21
24.1063  1.51338e+21
24.2236  1.50005e+21
24.3409  1.47556e+21
24.4582  1.44082e+21
24.5755  1.39942e+21
24.6928  1.35576e+21
24.8101  1.31456e+21
24.9274  1.27923e+21
25.0447  1.25157e+21
25.162  1.23198e+21
25.2793  1.21923e+21
25.3966  1.21147e+21
25.5139  1.20705e+21
25.6312  1.2049e+21
25.7485  1.20503e+21
25.8658  1.20787e+21
25.9832  1.21423e+21
26.1005  1.22447e+21
26.2178  1.23723e+21
26.3351  1.24997e+21
26.4524  1.25874e+21
26.5697  1.25887e+21
26.687  1.24596e+21
26.8043  1.21713e+21
26.9216  1.17187e+21
27.0389  1.11233e+21
27.1562  1.04342e+21
27.2735  9.71953e+20
27.3908  9.05081e+20
27.5081  8.49219e+20
27.6254  8.09009e+20
27.7427  7.85894e+20
27.86  7.78027e+20
27.9773  7.8172e+20
28.0946  7.9131e+20
28.212  8.01207e+20
28.3293  8.07175e+20
28.4466  8.06732e+20
28.5639  8.00193e+20
28.6812  7.89697e+20
28.7985  7.78397e+20
28.9158  7.69644e+20
29.0331  7.66124e+20
29.1504  7.68467e+20
29.2677  7.75394e+20
29.385  7.84532e+20
29.5023  7.92307e+20
29.6196  7.96172e+20
29.7369  7.94674e+20
29.8542  7.88081e+20
29.9715  7.78654e+20
30.0888  7.69739e+20
30.2061  7.65143e+20
30.3234  7.67608e+20
30.4407  7.78177e+20
30.558  7.95774e+20
30.6754  8.16985e+20
30.7927  8.37352e+20
30.91  8.51892e+20
31.0273  8.56633e+20
31.1446  8.49678e+20
31.2619  8.3137e+20
31.3792  8.04388e+20
31.4965  7.72981e+20
31.6138  7.42054e+20
31.7311  7.15577e+20
31.8484  6.96037e+20
31.9657  6.83882e+20
32.083  6.77644e+20
32.2003  6.74707e+20
32.3176  6.72295e+20
32.4349  6.68386e+20
32.5522  6.62562e+20
32.6695  6.55906e+20
32.7868  6.50755e+20
32.9042  6.49771e+20
33.0215  6.54872e+20
33.1388  6.66123e+20
33.2561  6.81702e+20
33.3734  6.97373e+20
33.4907  7.08015e+20
33.608  7.08524e+20
33.7253  6.95146e+20
33.8426  6.66895e+20
33.9599  6.26005e+20
34.0772  5.77724e+20
34.1945  5.29208e+20
34.3118  4.88164e+20
34.4291  4.60826e+20
34.5464  4.50949e+20
34.6637  4.58683e+20
34.781  4.80643e+20
34.8983  5.10794e+20
35.0156  5.41664e+20
35.1329  5.66632e+20
35.2503  5.80705e+20
35.3676  5.81989e+20
35.4849  5.71749e+20
35.6022  5.53381e+20
35.7195  5.31851e+20
35.8368  5.1206e+20
35.9541  4.97525e+20
36.0714  4.89745e+20
36.1887  4.88118e+20
36.306  4.90506e+20
36.4233  4.94122e+20
36.5406  4.96654e+20
36.6579  4.96945e+20
36.7752  4.95396e+20
36.8925  4.93923e+20
37.0098  4.94906e+20
37.1271  5.00328e+20
37.2444  5.10796e+20
37.3617  5.25316e+20
37.479  5.40864e+20
37.5964  5.53296e+20
37.7137  5.5821e+20
37.831  5.52316e+20
37.9483  5.34493e+20
38.0656  5.05943e+20
38.1829  4.7028e+20
38.3002  4.33064e+20
38.4175  4.00052e+20
38.5348  3.76088e+20
38.6521  3.64062e+20
38.7694  3.64252e+20
38.8867  3.73972e+20
39.004  3.89184e+20
39.1213  4.04832e+20
39.2386  4.16484e+20
39.3559  4.21402e+20
39.4732  4.19135e+20
39.5905  4.11427e+20
39.7078  4.01459e+20
39.8251  3.93119e+20
39.9425  3.89588e+20
40.0598  3.92475e+20
40.1771  4.01508e+20
40.2944  4.14445e+20
40.4117  4.27969e+20
40.529  4.38614e+20
40.6463  4.43765e+20
40.7636  4.42444e+20
40.8809  4.35644e+20
40.9982  4.26184e+20
41.1155  4.17737e+20
41.2328  4.14128e+20
41.3501  4.17914e+20
41.4674  4.29971e+20
41.5847  4.49048e+20
41.702  4.7216e+20
41.8193  4.95003e+20
41.9366  5.13515e+20
42.0539  5.24212e+20
42.1712  5.25558e+20
42.2885  5.1778e+20
42.4059  5.03001e+20
42.5232  4.84409e+20
42.6405  4.65778e+20
42.7578  4.49894e+20
42.8751  4.38486e+20
42.9924  4.3173e+20
43.1097  4.28455e+20
43.227  4.26635e+20
43.3443  4.24319e+20
43.4616  4.20141e+20
43.5789  4.13973e+20
43.6962  4.06805e+20
43.8135  4.00676e+20
43.9308  3.97702e+20
44.0481  3.99497e+20
44.1654  4.06452e+20
44.2827  4.17182e+20
44.4  4.28677e+20
44.5173  4.37136e+20
44.6347  4.38488e+20
44.752  4.29816e+20
44.8693  4.10071e+20
44.9866  3.80632e+20
45.1039  3.45304e+20
45.2212  3.09674e+20
45.3385  2.79862e+20
45.4558  2.61233e+20
45.5731  2.57108e+20
45.6904  2.68033e+20
45.8077  2.9152e+20
45.925  3.22611e+20
46.0423  3.54787e+20
46.1596  3.8162e+20
46.2769  3.98236e+20
46.3942  4.02092e+20
46.5115  3.93495e+20
46.6288  3.75584e+20
46.7461  3.53052e+20
46.8634  3.31169e+20
46.9808  3.14317e+20
47.0981  3.05018e+20
47.2154  3.03598e+20
47.3327  3.0838e+20
47.45  3.16196e+20
47.5673  3.2371e+20
47.6846  3.28619e+20
47.8019  3.29854e+20
47.9192  3.28159e+20
48.0365  3.25822e+20
48.1538  3.25416e+20
48.2711  3.28936e+20
48.3884  3.37239e+20
48.5057  3.49237e+20
48.623  3.62014e+20
48.7403  3.71856e+20
48.8576  3.75258e+20
48.9749  3.6968e+20
49.0922  3.548e+20
49.2095  3.32756e+20
49.3269  3.07636e+20
49.4442  2.84442e+20
49.5615  2.67943e+20
49.6788  2.61352e+20
49.7961  2.65419e+20
49.9134  2.78161e+20
50.0307  2.95594e+20
50.148  3.12543e+20
50.2653  3.24269e+20
50.3826  3.27685e+20
50.4999  3.22252e+20
50.6172  3.09987e+20
50.7345  2.94959e+20
50.8518  2.82071e+20
