#S 1 spectral density
#N 2
#UFWHM 41.0568
#L  abscissas [um]  spectral density
-58.5938  1.90886e+20
-58.4764  1.79812e+20
-58.3591  1.69026e+20
-58.2418  1.61524e+20
-58.1245  1.59776e+20
-58.0072  1.6518e+20
-57.8899  1.77382e+20
-57.7726  1.94239e+20
-57.6553  2.12295e+20
-57.538  2.27379e+20
-57.4207  2.35519e+20
-57.3034  2.34178e+20
-57.1861  2.22586e+20
-57.0688  2.02361e+20
-56.9515  1.76751e+20
-56.8342  1.50384e+20
-56.7169  1.28029e+20
-56.5996  1.13521e+20
-56.4823  1.08917e+20
-56.365  1.14105e+20
-56.2477  1.2684e+20
-56.1303  1.43535e+20
-56.013  1.59849e+20
-55.8957  1.72313e+20
-55.7784  1.78694e+20
-55.6611  1.78941e+20
-55.5438  1.74846e+20
-55.4265  1.69652e+20
-55.3092  1.67021e+20
-55.1919  1.70072e+20
-55.0746  1.80354e+20
-54.9573  1.9745e+20
-54.84  2.19099e+20
-54.7227  2.41747e+20
-54.6054  2.61399e+20
-54.4881  2.74877e+20
-54.3708  2.80599e+20
-54.2535  2.788e+20
-54.1362  2.71706e+20
-54.0189  2.62484e+20
-53.9016  2.54537e+20
-53.7842  2.50227e+20
-53.6669  2.50343e+20
-53.5496  2.53703e+20
-53.4323  2.57483e+20
-53.315  2.58358e+20
-53.1977  2.53195e+20
-53.0804  2.40596e+20
-52.9631  2.21094e+20
-52.8458  1.97497e+20
-52.7285  1.74255e+20
-52.6112  1.56186e+20
-52.4939  1.4742e+20
-52.3766  1.50043e+20
-52.2593  1.63556e+20
-52.142  1.84885e+20
-52.0247  2.09141e+20
-51.9074  2.30779e+20
-51.7901  2.45115e+20
-51.6728  2.49617e+20
-51.5555  2.4433e+20
-51.4381  2.31981e+20
-51.3208  2.17014e+20
-51.2035  2.0427e+20
-51.0862  1.97804e+20
-50.9689  1.99382e+20
-50.8516  2.08327e+20
-50.7343  2.21515e+20
-50.617  2.34331e+20
-50.4997  2.42042e+20
-50.3824  2.41335e+20
-50.2651  2.30974e+20
-50.1478  2.12737e+20
-50.0305  1.90341e+20
-49.9132  1.691e+20
-49.7959  1.54175e+20
-49.6786  1.49147e+20
-49.5613  1.55556e+20
-49.444  1.72048e+20
-49.3267  1.9513e+20
-49.2094  2.20368e+20
-49.092  2.43252e+20
-48.9747  2.60714e+20
-48.8574  2.71744e+20
-48.7401  2.77554e+20
-48.6228  2.80929e+20
-48.5055  2.8517e+20
-48.3882  2.93174e+20
-48.2709  3.06172e+20
-48.1536  3.23427e+20
-48.0363  3.42361e+20
-47.919  3.5937e+20
-47.8017  3.70838e+20
-47.6844  3.74501e+20
-47.5671  3.69767e+20
-47.4498  3.58433e+20
-47.3325  3.44017e+20
-47.2152  3.30747e+20
-47.0979  3.22556e+20
-46.9806  3.21681e+20
-46.8633  3.28149e+20
-46.7459  3.39768e+20
-46.6286  3.5224e+20
-46.5113  3.60879e+20
-46.394  3.61642e+20
-46.2767  3.52221e+20
-46.1594  3.33083e+20
-46.0421  3.07253e+20
-45.9248  2.79893e+20
-45.8075  2.57049e+20
-45.6902  2.44215e+20
-45.5729  2.45038e+20
-45.4556  2.60509e+20
-45.3383  2.88803e+20
-45.221  3.25472e+20
-45.1037  3.64701e+20
-44.9864  4.00567e+20
-44.8691  4.27995e+20
-44.7518  4.44077e+20
-44.6345  4.48069e+20
-44.5172  4.41428e+20
-44.3998  4.26959e+20
-44.2825  4.08068e+20
-44.1652  3.8762e+20
-44.0479  3.67291e+20
-43.9306  3.47613e+20
-43.8133  3.27797e+20
-43.696  3.06617e+20
-43.5787  2.83054e+20
-43.4614  2.56897e+20
-43.3441  2.29343e+20
-43.2268  2.02736e+20
-43.1095  1.80355e+20
-42.9922  1.65496e+20
-42.8749  1.60668e+20
-42.7576  1.6695e+20
-42.6403  1.83429e+20
-42.523  2.07299e+20
-42.4057  2.34496e+20
-42.2884  2.60495e+20
-42.171  2.81318e+20
-42.0537  2.94442e+20
-41.9364  2.99156e+20
-41.8191  2.96855e+20
-41.7018  2.9042e+20
-41.5845  2.8342e+20
-41.4672  2.79161e+20
-41.3499  2.79786e+20
-41.2326  2.85771e+20
-41.1153  2.95626e+20
-40.998  3.06786e+20
-40.8807  3.15962e+20
-40.7634  3.20585e+20
-40.6461  3.18874e+20
-40.5288  3.1133e+20
-40.4115  2.99977e+20
-40.2942  2.87937e+20
-40.1769  2.78921e+20
-40.0596  2.758e+20
-39.9423  2.7993e+20
-39.825  2.90929e+20
-39.7076  3.06547e+20
-39.5903  3.23395e+20
-39.473  3.37818e+20
-39.3557  3.47345e+20
-39.2384  3.51157e+20
-39.1211  3.50641e+20
-39.0038  3.49229e+20
-38.8865  3.51416e+20
-38.7692  3.61694e+20
-38.6519  3.83542e+20
-38.5346  4.17924e+20
-38.4173  4.63251e+20
-38.3  5.15598e+20
-38.1827  5.69248e+20
-38.0654  6.18045e+20
-37.9481  6.56833e+20
-37.8308  6.82038e+20
-37.7135  6.92791e+20
-37.5962  6.90335e+20
-37.4789  6.77666e+20
-37.3615  6.58423e+20
-37.2442  6.35741e+20
-37.1269  6.1156e+20
-37.0096  5.86512e+20
-36.8923  5.59937e+20
-36.775  5.30762e+20
-36.6577  4.98422e+20
-36.5404  4.63777e+20
-36.4231  4.29168e+20
-36.3058  3.98734e+20
-36.1885  3.7717e+20
-36.0712  3.6886e+20
-35.9539  3.76638e+20
-35.8366  4.00542e+20
-35.7193  4.37701e+20
-35.602  4.82531e+20
-35.4847  5.27638e+20
-35.3674  5.65631e+20
-35.2501  5.90544e+20
-35.1328  5.99138e+20
-35.0154  5.91489e+20
-34.8981  5.71085e+20
-34.7808  5.43557e+20
-34.6635  5.15537e+20
-34.5462  4.92853e+20
-34.4289  4.79136e+20
-34.3116  4.75312e+20
-34.1943  4.79377e+20
-34.077  4.87147e+20
-33.9597  4.93756e+20
-33.8424  4.94519e+20
-33.7251  4.86613e+20
-33.6078  4.69388e+20
-33.4905  4.4425e+20
-33.3732  4.14338e+20
-33.2559  3.83332e+20
-33.1386  3.54431e+20
-33.0213  3.29866e+20
-32.904  3.10422e+20
-32.7867  2.96074e+20
-32.6693  2.86765e+20
-32.552  2.83307e+20
-32.4347  2.88477e+20
-32.3174  3.07057e+20
-32.2001  3.45619e+20
-32.0828  4.11485e+20
-31.9655  5.11352e+20
-31.8482  6.49407e+20
-31.7309  8.26262e+20
-31.6136  1.03788e+21
-31.4963  1.27607e+21
-31.379  1.52907e+21
-31.2617  1.78322e+21
-31.1444  2.02509e+21
-31.0271  2.24315e+21
-30.9098  2.42925e+21
-30.7925  2.57945e+21
-30.6752  2.69417e+21
-30.5579  2.77747e+21
-30.4406  2.83655e+21
-30.3232  2.88033e+21
-30.2059  2.91906e+21
-30.0886  2.96364e+21
-29.9713  3.02556e+21
-29.854  3.11672e+21
-29.7367  3.24982e+21
-29.6194  3.43692e+21
-29.5021  3.68965e+21
-29.3848  4.01796e+21
-29.2675  4.42786e+21
-29.1502  4.92039e+21
-29.0329  5.49102e+21
-28.9156  6.12821e+21
-28.7983  6.81496e+21
-28.681  7.52963e+21
-28.5637  8.24802e+21
-28.4464  8.94615e+21
-28.3291  9.60268e+21
-28.2118  1.02016e+22
-28.0944  1.07323e+22
-27.9771  1.11917e+22
-27.8598  1.15822e+22
-27.7425  1.1912e+22
-27.6252  1.21928e+22
-27.5079  1.24387e+22
-27.3906  1.26643e+22
-27.2733  1.28855e+22
-27.156  1.31168e+22
-27.0387  1.3373e+22
-26.9214  1.36676e+22
-26.8041  1.40128e+22
-26.6868  1.44187e+22
-26.5695  1.48934e+22
-26.4522  1.54393e+22
-26.3349  1.6055e+22
-26.2176  1.67328e+22
-26.1003  1.74592e+22
-25.983  1.82163e+22
-25.8657  1.89831e+22
-25.7483  1.97371e+22
-25.631  2.04575e+22
-25.5137  2.1127e+22
-25.3964  2.17332e+22
-25.2791  2.22702e+22
-25.1618  2.27378e+22
-25.0445  2.31413e+22
-24.9272  2.34899e+22
-24.8099  2.37949e+22
-24.6926  2.40695e+22
-24.5753  2.43259e+22
-24.458  2.45759e+22
-24.3407  2.48308e+22
-24.2234  2.51e+22
-24.1061  2.53924e+22
-23.9888  2.57159e+22
-23.8715  2.60757e+22
-23.7542  2.64755e+22
-23.6369  2.69152e+22
-23.5196  2.73912e+22
-23.4023  2.78955e+22
-23.2849  2.8417e+22
-23.1676  2.89417e+22
-23.0503  2.94551e+22
-22.933  2.99438e+22
-22.8157  3.03967e+22
-22.6984  3.08075e+22
-22.5811  3.1175e+22
-22.4638  3.15023e+22
-22.3465  3.17969e+22
-22.2292  3.20676e+22
-22.1119  3.23241e+22
-21.9946  3.25746e+22
-21.8773  3.28247e+22
-21.76  3.30768e+22
-21.6427  3.33313e+22
-21.5254  3.35863e+22
-21.4081  3.38394e+22
-21.2908  3.40886e+22
-21.1735  3.43333e+22
-21.0561  3.45742e+22
-20.9388  3.48128e+22
-20.8215  3.50519e+22
-20.7042  3.52932e+22
-20.5869  3.55379e+22
-20.4696  3.57859e+22
-20.3523  3.60362e+22
-20.235  3.6287e+22
-20.1177  3.65375e+22
-20.0004  3.67881e+22
-19.8831  3.70408e+22
-19.7658  3.72987e+22
-19.6485  3.75664e+22
-19.5312  3.7848e+22
-19.4139  3.81462e+22
-19.2966  3.84617e+22
-19.1793  3.87917e+22
-19.062  3.91311e+22
-18.9447  3.94727e+22
-18.8274  3.98089e+22
-18.71  4.01326e+22
-18.5927  4.04394e+22
-18.4754  4.07274e+22
-18.3581  4.09985e+22
-18.2408  4.12561e+22
-18.1235  4.15061e+22
-18.0062  4.17534e+22
-17.8889  4.20026e+22
-17.7716  4.22554e+22
-17.6543  4.25125e+22
-17.537  4.27724e+22
-17.4197  4.30336e+22
-17.3024  4.32948e+22
-17.1851  4.3557e+22
-17.0678  4.38225e+22
-16.9505  4.40955e+22
-16.8332  4.43809e+22
-16.7159  4.46828e+22
-16.5986  4.50036e+22
-16.4813  4.53431e+22
-16.364  4.56974e+22
-16.2466  4.60606e+22
-16.1293  4.64252e+22
-16.012  4.67835e+22
-15.8947  4.71298e+22
-15.7774  4.74608e+22
-15.6601  4.77768e+22
-15.5428  4.80808e+22
-15.4255  4.83774e+22
-15.3082  4.86723e+22
-15.1909  4.897e+22
-15.0736  4.92727e+22
-14.9563  4.95809e+22
-14.839  4.98918e+22
-14.7217  5.02021e+22
-14.6044  5.05079e+22
-14.4871  5.08064e+22
-14.3698  5.10962e+22
-14.2525  5.13781e+22
-14.1352  5.16545e+22
-14.0178  5.19284e+22
-13.9005  5.22023e+22
-13.7832  5.2478e+22
-13.6659  5.27548e+22
-13.5486  5.30313e+22
-13.4313  5.33039e+22
-13.314  5.35699e+22
-13.1967  5.38271e+22
-13.0794  5.40754e+22
-12.9621  5.43173e+22
-12.8448  5.45565e+22
-12.7275  5.47979e+22
-12.6102  5.50466e+22
-12.4929  5.53058e+22
-12.3756  5.55758e+22
-12.2583  5.58552e+22
-12.141  5.61396e+22
-12.0237  5.64229e+22
-11.9064  5.66994e+22
-11.7891  5.69647e+22
-11.6718  5.72167e+22
-11.5544  5.74559e+22
-11.4371  5.76855e+22
-11.3198  5.79105e+22
-11.2025  5.81359e+22
-11.0852  5.83661e+22
-10.9679  5.86032e+22
-10.8506  5.88468e+22
-10.7333  5.90941e+22
-10.616  5.93409e+22
-10.4987  5.95826e+22
-10.3814  5.98153e+22
-10.2641  6.00366e+22
-10.1468  6.02469e+22
-10.0295  6.0448e+22
-9.91217  6.06434e+22
-9.79487  6.08365e+22
-9.67756  6.10311e+22
-9.56026  6.12284e+22
-9.44295  6.14288e+22
-9.32565  6.16308e+22
-9.20834  6.18322e+22
-9.09104  6.20311e+22
-8.97373  6.22262e+22
-8.85643  6.24176e+22
-8.73913  6.26074e+22
-8.62182  6.27979e+22
-8.50452  6.29923e+22
-8.38721  6.31925e+22
-8.26991  6.33999e+22
-8.1526  6.36127e+22
-8.03529  6.38286e+22
-7.91799  6.40428e+22
-7.80069  6.42513e+22
-7.68338  6.44501e+22
-7.56608  6.46378e+22
-7.44877  6.48149e+22
-7.33146  6.49837e+22
-7.21416  6.51486e+22
-7.09685  6.53139e+22
-6.97955  6.54835e+22
-6.86224  6.5659e+22
-6.74494  6.584e+22
-6.62763  6.60235e+22
-6.51033  6.62053e+22
-6.39302  6.63802e+22
-6.27572  6.65443e+22
-6.15842  6.66954e+22
-6.04111  6.68335e+22
-5.92381  6.69619e+22
-5.8065  6.70853e+22
-5.68919  6.72091e+22
-5.57189  6.73384e+22
-5.45458  6.74763e+22
-5.33728  6.76241e+22
-5.21997  6.778e+22
-5.10267  6.79407e+22
-4.98536  6.81019e+22
-4.86806  6.82594e+22
-4.75075  6.84105e+22
-4.63345  6.85545e+22
-4.51614  6.86918e+22
-4.39884  6.88253e+22
-4.28154  6.89571e+22
-4.16423  6.90894e+22
-4.04692  6.92219e+22
-3.92962  6.93531e+22
-3.81231  6.94791e+22
-3.69501  6.95954e+22
-3.5777  6.96976e+22
-3.4604  6.97825e+22
-3.34309  6.98491e+22
-3.22579  6.98995e+22
-3.10849  6.99375e+22
-2.99118  6.99684e+22
-2.87387  6.99978e+22
-2.75657  7.00301e+22
-2.63926  7.00674e+22
-2.52196  7.01096e+22
-2.40465  7.01547e+22
-2.28735  7.01991e+22
-2.17005  7.02396e+22
-2.05274  7.02739e+22
-1.93544  7.03017e+22
-1.81813  7.03251e+22
-1.70083  7.03478e+22
-1.58352  7.03741e+22
-1.46622  7.04077e+22
-1.34891  7.04505e+22
-1.2316  7.05021e+22
-1.1143  7.05595e+22
-0.996995  7.0618e+22
-0.87969  7.06719e+22
-0.762385  7.07165e+22
-0.64508  7.07487e+22
-0.527775  7.07678e+22
-0.41047  7.07759e+22
-0.293165  7.07768e+22
-0.17586  7.07746e+22
-0.058555  7.0773e+22
0.05875  7.07738e+22
0.176055  7.07762e+22
0.29336  7.07778e+22
0.410665  7.07741e+22
0.52797  7.07607e+22
0.645275  7.07346e+22
0.76258  7.06948e+22
0.879885  7.06426e+22
0.99719  7.05821e+22
1.1145  7.05191e+22
1.2318  7.04589e+22
1.3491  7.04061e+22
1.46641  7.03629e+22
1.58371  7.03287e+22
1.70102  7.03005e+22
1.81832  7.02745e+22
1.93563  7.02461e+22
2.05294  7.02122e+22
2.17024  7.01715e+22
2.28754  7.01251e+22
2.40485  7.00758e+22
2.52216  7.00274e+22
2.63946  6.99826e+22
2.75677  6.99436e+22
2.87407  6.99094e+22
2.99137  6.9877e+22
3.10868  6.98415e+22
3.22599  6.97976e+22
3.34329  6.97398e+22
3.4606  6.96652e+22
3.5779  6.95728e+22
3.69521  6.94646e+22
3.81251  6.93439e+22
3.92982  6.92154e+22
4.04712  6.90836e+22
4.16443  6.89508e+22
4.28173  6.8818e+22
4.39903  6.86844e+22
4.51634  6.85474e+22
4.63364  6.84046e+22
4.75095  6.82542e+22
4.86825  6.80958e+22
4.98556  6.79318e+22
5.10286  6.77655e+22
5.22017  6.76017e+22
5.33748  6.74445e+22
5.45478  6.72973e+22
5.57209  6.71602e+22
5.68939  6.70314e+22
5.8067  6.69066e+22
5.924  6.67803e+22
6.0413  6.66469e+22
6.15861  6.65023e+22
6.27591  6.63444e+22
6.39322  6.6174e+22
6.51052  6.59942e+22
6.62783  6.58096e+22
6.74514  6.56251e+22
6.86244  6.54447e+22
6.97975  6.52704e+22
7.09705  6.51016e+22
7.21436  6.49358e+22
7.33166  6.47685e+22
7.44897  6.45956e+22
7.56627  6.4413e+22
7.68358  6.42194e+22
7.80088  6.40149e+22
7.91819  6.38022e+22
8.03549  6.35852e+22
8.1528  6.33681e+22
8.2701  6.31546e+22
8.38741  6.2947e+22
8.50471  6.27454e+22
8.62202  6.25486e+22
8.73932  6.23541e+22
8.85662  6.21589e+22
8.97393  6.19611e+22
9.09123  6.176e+22
9.20854  6.15559e+22
9.32584  6.13508e+22
9.44315  6.11469e+22
9.56045  6.09461e+22
9.67776  6.07491e+22
9.79506  6.05547e+22
9.91237  6.03607e+22
10.0297  6.01632e+22
10.147  5.99585e+22
10.2643  5.97433e+22
10.3816  5.95168e+22
10.4989  5.92796e+22
10.6162  5.90346e+22
10.7335  5.87863e+22
10.8508  5.85396e+22
10.9681  5.82977e+22
11.0854  5.80627e+22
11.2027  5.78338e+22
11.32  5.76078e+22
11.4373  5.73804e+22
11.5546  5.71461e+22
11.6719  5.69008e+22
11.7893  5.66423e+22
11.9066  5.63713e+22
12.0239  5.60906e+22
12.1412  5.58056e+22
12.2585  5.55221e+22
12.3758  5.52454e+22
12.4931  5.49787e+22
12.6104  5.47233e+22
12.7277  5.44771e+22
12.845  5.42359e+22
12.9623  5.39951e+22
13.0796  5.37502e+22
13.1969  5.34976e+22
13.3142  5.32362e+22
13.4315  5.29673e+22
13.5488  5.26928e+22
13.6661  5.24161e+22
13.7834  5.214e+22
13.9007  5.18657e+22
14.018  5.15926e+22
14.1354  5.1319e+22
14.2527  5.10414e+22
14.37  5.07574e+22
14.4873  5.0465e+22
14.6046  5.01639e+22
14.7219  4.9856e+22
14.8392  4.95451e+22
14.9565  4.92343e+22
15.0738  4.89271e+22
15.1911  4.86249e+22
15.3084  4.83265e+22
15.4257  4.80286e+22
15.543  4.77267e+22
15.6603  4.74151e+22
15.7776  4.70898e+22
15.8949  4.67489e+22
16.0122  4.63935e+22
16.1295  4.60282e+22
16.2468  4.56595e+22
16.3641  4.52954e+22
16.4815  4.4943e+22
16.5988  4.46077e+22
16.7161  4.42917e+22
16.8334  4.39946e+22
16.9507  4.37129e+22
17.068  4.34422e+22
17.1853  4.31776e+22
17.3026  4.29156e+22
17.4199  4.26544e+22
17.5372  4.23937e+22
17.6545  4.2135e+22
17.7718  4.18801e+22
17.8891  4.16295e+22
18.0064  4.13822e+22
18.1237  4.11356e+22
18.241  4.08844e+22
18.3583  4.06235e+22
18.4756  4.03477e+22
18.5929  4.00541e+22
18.7102  3.97424e+22
18.8275  3.94154e+22
18.9449  3.90787e+22
19.0622  3.87398e+22
19.1795  3.84062e+22
19.2968  3.80845e+22
19.4141  3.77787e+22
19.5314  3.74899e+22
19.6487  3.72165e+22
19.766  3.69552e+22
19.8833  3.67011e+22
20.0006  3.64503e+22
20.1179  3.62001e+22
20.2352  3.59493e+22
20.3525  3.56984e+22
20.4698  3.5449e+22
20.5871  3.52026e+22
20.7044  3.49599e+22
20.8217  3.47211e+22
20.939  3.44845e+22
21.0563  3.4248e+22
21.1736  3.4009e+22
21.291  3.37661e+22
21.4083  3.35192e+22
21.5256  3.32692e+22
21.6429  3.30184e+22
21.7602  3.27687e+22
21.8775  3.25211e+22
21.9948  3.22743e+22
22.1121  3.20241e+22
22.2294  3.17632e+22
22.3467  3.14825e+22
22.464  3.11721e+22
22.5813  3.08232e+22
22.6986  3.04299e+22
22.8159  2.99911e+22
22.9332  2.95103e+22
23.0505  2.89965e+22
23.1678  2.84621e+22
23.2851  2.79221e+22
23.4024  2.73914e+22
23.5198  2.68838e+22
23.6371  2.64095e+22
23.7544  2.59749e+22
23.8717  2.55825e+22
23.989  2.52305e+22
24.1063  2.49146e+22
24.2236  2.46283e+22
24.3409  2.43631e+22
24.4582  2.41097e+22
24.5755  2.38569e+22
24.6928  2.35931e+22
24.8101  2.33055e+22
24.9274  2.29813e+22
25.0447  2.2607e+22
25.162  2.21724e+22
25.2793  2.16692e+22
25.3966  2.10945e+22
25.5139  2.04512e+22
25.6312  1.97485e+22
25.7485  1.90016e+22
25.8658  1.82299e+22
25.9832  1.74559e+22
26.1005  1.6702e+22
26.2178  1.5989e+22
26.3351  1.53329e+22
26.4524  1.4745e+22
26.5697  1.42298e+22
26.687  1.37873e+22
26.8043  1.3412e+22
26.9216  1.30943e+22
27.0389  1.2823e+22
27.1562  1.25848e+22
27.2735  1.23651e+22
27.3908  1.21491e+22
27.5081  1.1922e+22
27.6254  1.16678e+22
27.7427  1.13725e+22
27.86  1.10229e+22
27.9773  1.06094e+22
28.0946  1.01263e+22
28.212  9.57426e+21
28.3293  8.95923e+21
28.4466  8.29471e+21
28.5639  7.5994e+21
28.6812  6.89529e+21
28.7985  6.20661e+21
28.9158  5.5558e+21
29.0331  4.96255e+21
29.1504  4.44116e+21
29.2677  3.99917e+21
29.385  3.63857e+21
29.5023  3.35596e+21
29.6196  3.14327e+21
29.7369  2.98975e+21
29.8542  2.88393e+21
29.9715  2.81343e+21
30.0888  2.76623e+21
30.2061  2.73135e+21
30.3234  2.69781e+21
30.4407  2.65543e+21
30.558  2.5946e+21
30.6754  2.50759e+21
30.7927  2.3883e+21
30.91  2.23421e+21
31.0273  2.04658e+21
31.1446  1.83073e+21
31.2619  1.5961e+21
31.3792  1.35456e+21
31.4965  1.1195e+21
31.6138  9.03289e+20
31.7311  7.16092e+20
31.8484  5.64107e+20
31.9657  4.49335e+20
32.083  3.69541e+20
32.2003  3.19316e+20
32.3176  2.91773e+20
32.4349  2.79955e+20
32.5522  2.7809e+20
32.6695  2.82518e+20
32.7868  2.91564e+20
32.9042  3.05249e+20
33.0215  3.24003e+20
33.1388  3.4792e+20
33.2561  3.75859e+20
33.3734  4.05511e+20
33.4907  4.33444e+20
33.608  4.56233e+20
33.7253  4.71192e+20
33.8426  4.7756e+20
33.9599  4.76733e+20
34.0772  4.72197e+20
34.1945  4.68404e+20
34.3118  4.70062e+20
34.4291  4.8046e+20
34.5464  5.0027e+20
34.6637  5.2744e+20
34.781  5.57185e+20
34.8983  5.83286e+20
35.0156  5.99214e+20
35.1329  6.0011e+20
35.2503  5.83742e+20
35.3676  5.5145e+20
35.4849  5.07779e+20
35.6022  4.59695e+20
35.7195  4.14845e+20
35.8368  3.80404e+20
35.9541  3.61e+20
36.0714  3.58571e+20
36.1887  3.71938e+20
36.306  3.97517e+20
36.4233  4.30445e+20
36.5406  4.66052e+20
36.6579  5.00638e+20
36.7752  5.32241e+20
36.8925  5.60735e+20
37.0098  5.86884e+20
37.1271  6.118e+20
37.2444  6.35741e+20
37.3617  6.57706e+20
37.479  6.75223e+20
37.5964  6.85012e+20
37.7137  6.83384e+20
37.831  6.68149e+20
37.9483  6.38789e+20
38.0656  5.97217e+20
38.1829  5.47655e+20
38.3002  4.95839e+20
38.4175  4.47831e+20
38.5348  4.08636e+20
38.6521  3.81162e+20
38.7694  3.65824e+20
38.8867  3.6027e+20
39.004  3.60418e+20
39.1213  3.61433e+20
39.2386  3.59207e+20
39.3559  3.51222e+20
39.4732  3.37107e+20
39.5905  3.1884e+20
39.7078  2.99848e+20
39.8251  2.83973e+20
39.9425  2.74427e+20
40.0598  2.72839e+20
40.1771  2.78889e+20
40.2944  2.90164e+20
40.4117  3.03164e+20
40.529  3.14123e+20
40.6463  3.20142e+20
40.7636  3.19689e+20
40.8809  3.13358e+20
40.9982  3.03365e+20
41.1155  2.92707e+20
41.2328  2.8463e+20
41.3501  2.81276e+20
41.4674  2.83289e+20
41.5847  2.89195e+20
41.702  2.96325e+20
41.8193  3.00952e+20
41.9366  2.99659e+20
42.0539  2.90203e+20
42.1712  2.72216e+20
42.2885  2.47265e+20
42.4059  2.18913e+20
42.5232  1.91554e+20
42.6405  1.69665e+20
42.7578  1.56853e+20
42.8751  1.54993e+20
42.9924  1.6393e+20
43.1097  1.81905e+20
43.227  2.05911e+20
43.3443  2.3259e+20
43.4616  2.59101e+20
43.5789  2.83682e+20
43.6962  3.05918e+20
43.8135  3.26502e+20
43.9308  3.46655e+20
44.0481  3.67348e+20
44.1654  3.88765e+20
44.2827  4.09778e+20
44.4  4.28066e+20
44.5173  4.40289e+20
44.6347  4.43339e+20
44.752  4.34959e+20
44.8693  4.1459e+20
44.9866  3.84039e+20
45.1039  3.47107e+20
45.2212  3.09327e+20
45.3385  2.7656e+20
45.4558  2.54022e+20
45.5731  2.45066e+20
45.6904  2.50271e+20
45.8077  2.67521e+20
45.925  2.92391e+20
46.0423  3.19103e+20
46.1596  3.42063e+20
46.2769  3.57014e+20
46.3942  3.61932e+20
46.5115  3.57532e+20
46.6288  3.46815e+20
46.7461  3.34109e+20
46.8634  3.23926e+20
46.9808  3.19906e+20
47.0981  3.23284e+20
47.2154  3.33429e+20
47.3327  3.47395e+20
47.45  3.61175e+20
47.5673  3.70744e+20
47.6846  3.73304e+20
47.8019  3.67788e+20
47.9192  3.55254e+20
48.0365  3.38429e+20
48.1538  3.20849e+20
48.2711  3.05583e+20
48.3884  2.94479e+20
48.5057  2.87597e+20
48.623  2.83051e+20
48.7403  2.77977e+20
48.8576  2.69208e+20
48.9749  2.54621e+20
49.0922  2.33937e+20
49.2095  2.09007e+20
49.3269  1.83475e+20
49.4442  1.61991e+20
49.5615  1.48732e+20
49.6788  1.46466e+20
49.7961  1.55393e+20
49.9134  1.73284e+20
50.0307  1.9577e+20
50.148  2.17453e+20
50.2653  2.33471e+20
50.3826  2.40645e+20
50.4999  2.3827e+20
50.6172  2.28381e+20
50.7345  2.15009e+20
50.8518  2.03087e+20
