#S 1 spectral density
#N 2
#UFWHM 30.4993
#L  abscissas [um]  spectral density
-58.5938  2.83521e+20
-58.4764  2.72332e+20
-58.3591  2.60108e+20
-58.2418  2.50267e+20
-58.1245  2.45807e+20
-58.0072  2.48612e+20
-57.8899  2.58647e+20
-57.7726  2.74172e+20
-57.6553  2.91846e+20
-57.538  3.07564e+20
-57.4207  3.17398e+20
-57.3034  3.18648e+20
-57.1861  3.10433e+20
-57.0688  2.94108e+20
-56.9515  2.72891e+20
-56.8342  2.51146e+20
-56.7169  2.33566e+20
-56.5996  2.23771e+20
-56.4823  2.23809e+20
-56.365  2.33351e+20
-56.2477  2.50038e+20
-56.1303  2.70143e+20
-56.013  2.89218e+20
-55.8957  3.03423e+20
-55.7784  3.10456e+20
-55.6611  3.0994e+20
-55.5438  3.03442e+20
-55.4265  2.94025e+20
-55.3092  2.85161e+20
-55.1919  2.79906e+20
-55.0746  2.79834e+20
-54.9573  2.84737e+20
-54.84  2.92713e+20
-54.7227  3.00558e+20
-54.6054  3.04968e+20
-54.4881  3.03397e+20
-54.3708  2.94823e+20
-54.2535  2.80326e+20
-54.1362  2.62631e+20
-54.0189  2.45425e+20
-53.9016  2.3244e+20
-53.7842  2.26207e+20
-53.6669  2.2748e+20
-53.5496  2.34886e+20
-53.4323  2.45278e+20
-53.315  2.54738e+20
-53.1977  2.5964e+20
-53.0804  2.57832e+20
-52.9631  2.49162e+20
-52.8458  2.35566e+20
-52.7285  2.20861e+20
-52.6112  2.09196e+20
-52.4939  2.04157e+20
-52.3766  2.07517e+20
-52.2593  2.18666e+20
-52.142  2.34497e+20
-52.0247  2.50485e+20
-51.9074  2.61628e+20
-51.7901  2.6395e+20
-51.6728  2.55796e+20
-51.5555  2.38163e+20
-51.4381  2.1467e+20
-51.3208  1.907e+20
-51.2035  1.71762e+20
-51.0862  1.62457e+20
-50.9689  1.64851e+20
-50.8516  1.78208e+20
-50.7343  1.98989e+20
-50.617  2.22143e+20
-50.4997  2.42112e+20
-50.3824  2.5456e+20
-50.2651  2.57402e+20
-50.1478  2.51315e+20
-50.0305  2.39367e+20
-49.9132  2.26162e+20
-49.7959  2.16484e+20
-49.6786  2.13929e+20
-49.5613  2.20029e+20
-49.444  2.33986e+20
-49.3267  2.52902e+20
-49.2094  2.72912e+20
-49.092  2.90223e+20
-48.9747  3.02336e+20
-48.8574  3.08667e+20
-48.7401  3.1048e+20
-48.6228  3.10534e+20
-48.5055  3.11835e+20
-48.3882  3.16674e+20
-48.2709  3.25698e+20
-48.1536  3.37459e+20
-48.0363  3.48878e+20
-47.919  3.5597e+20
-47.8017  3.55026e+20
-47.6844  3.43986e+20
-47.5671  3.23019e+20
-47.4498  2.94676e+20
-47.3325  2.63781e+20
-47.2152  2.35828e+20
-47.0979  2.16011e+20
-46.9806  2.07593e+20
-46.8633  2.11412e+20
-46.7459  2.25446e+20
-46.6286  2.45289e+20
-46.5113  2.65351e+20
-46.394  2.80243e+20
-46.2767  2.86048e+20
-46.1594  2.81219e+20
-46.0421  2.66858e+20
-45.9248  2.46301e+20
-45.8075  2.24122e+20
-45.6902  2.0489e+20
-45.5729  1.92031e+20
-45.4556  1.87026e+20
-45.3383  1.89032e+20
-45.221  1.95447e+20
-45.1037  2.02632e+20
-44.9864  2.06955e+20
-44.8691  2.06058e+20
-44.7518  1.99247e+20
-44.6345  1.87711e+20
-44.5172  1.74275e+20
-44.3998  1.62391e+20
-44.2825  1.55298e+20
-44.1652  1.54997e+20
-44.0479  1.61672e+20
-43.9306  1.73739e+20
-43.8133  1.88069e+20
-43.696  2.00953e+20
-43.5787  2.09134e+20
-43.4614  2.10436e+20
-43.3441  2.0468e+20
-43.2268  1.9347e+20
-43.1095  1.8003e+20
-42.9922  1.68294e+20
-42.8749  1.61856e+20
-42.7576  1.63248e+20
-42.6403  1.73261e+20
-42.523  1.90693e+20
-42.4057  2.12905e+20
-42.2884  2.36431e+20
-42.171  2.57822e+20
-42.0537  2.74641e+20
-41.9364  2.85826e+20
-41.8191  2.91947e+20
-41.7018  2.94822e+20
-41.5845  2.96869e+20
-41.4672  3.00297e+20
-41.3499  3.06287e+20
-41.2326  3.14843e+20
-41.1153  3.24294e+20
-40.998  3.32444e+20
-40.8807  3.36841e+20
-40.7634  3.359e+20
-40.6461  3.29481e+20
-40.5288  3.19445e+20
-40.4115  3.09134e+20
-40.2942  3.02881e+20
-40.1769  3.05105e+20
-40.0596  3.1881e+20
-39.9423  3.4488e+20
-39.825  3.81863e+20
-39.7076  4.2591e+20
-39.5903  4.71476e+20
-39.473  5.12651e+20
-39.3557  5.44349e+20
-39.2384  5.63561e+20
-39.1211  5.69659e+20
-39.0038  5.64658e+20
-38.8865  5.52494e+20
-38.7692  5.37729e+20
-38.6519  5.24739e+20
-38.5346  5.16413e+20
-38.4173  5.13586e+20
-38.3  5.15133e+20
-38.1827  5.18611e+20
-38.0654  5.20916e+20
-37.9481  5.19804e+20
-37.8308  5.13941e+20
-37.7135  5.04188e+20
-37.5962  4.92303e+20
-37.4789  4.81209e+20
-37.3615  4.73471e+20
-37.2442  4.70412e+20
-37.1269  4.71458e+20
-37.0096  4.74452e+20
-36.8923  4.75816e+20
-36.775  4.71706e+20
-36.6577  4.59179e+20
-36.5404  4.37419e+20
-36.4231  4.07845e+20
-36.3058  3.74504e+20
-36.1885  3.42949e+20
-36.0712  3.19134e+20
-35.9539  3.07946e+20
-35.8366  3.11854e+20
-35.7193  3.30381e+20
-35.602  3.60017e+20
-35.4847  3.95092e+20
-35.3674  4.29031e+20
-35.2501  4.55685e+20
-35.1328  4.71078e+20
-35.0154  4.73647e+20
-34.8981  4.64712e+20
-34.7808  4.47638e+20
-34.6635  4.26657e+20
-34.5462  4.05922e+20
-34.4289  3.87964e+20
-34.3116  3.73626e+20
-34.1943  3.61983e+20
-34.077  3.50978e+20
-33.9597  3.38647e+20
-33.8424  3.24102e+20
-33.7251  3.08387e+20
-33.6078  2.94545e+20
-33.4905  2.86984e+20
-33.3732  2.90783e+20
-33.2559  3.09992e+20
-33.1386  3.46334e+20
-33.0213  3.98839e+20
-32.904  4.63383e+20
-32.7867  5.33269e+20
-32.6693  6.01147e+20
-32.552  6.59619e+20
-32.4347  7.0384e+20
-32.3174  7.31586e+20
-32.2001  7.4406e+20
-32.0828  7.45443e+20
-31.9655  7.41752e+20
-31.8482  7.39101e+20
-31.7309  7.42513e+20
-31.6136  7.54993e+20
-31.4963  7.76888e+20
-31.379  8.06349e+20
-31.2617  8.39689e+20
-31.1444  8.73253e+20
-31.0271  9.0357e+20
-30.9098  9.2851e+20
-30.7925  9.47698e+20
-30.6752  9.61841e+20
-30.5579  9.72114e+20
-30.4406  9.79903e+20
-30.3232  9.85626e+20
-30.2059  9.89196e+20
-30.0886  9.89336e+20
-29.9713  9.85259e+20
-29.854  9.77014e+20
-29.7367  9.66215e+20
-29.6194  9.56487e+20
-29.5021  9.53586e+20
-29.3848  9.64091e+20
-29.2675  9.94562e+20
-29.1502  1.04994e+21
-29.0329  1.13242e+21
-28.9156  1.23997e+21
-28.7983  1.36741e+21
-28.681  1.50591e+21
-28.5637  1.64509e+21
-28.4464  1.77395e+21
-28.3291  1.88382e+21
-28.2118  1.96815e+21
-28.0944  2.02448e+21
-27.9771  2.05394e+21
-27.8598  2.0605e+21
-27.7425  2.04992e+21
-27.6252  2.02824e+21
-27.5079  2.00153e+21
-27.3906  1.97411e+21
-27.2733  1.94898e+21
-27.156  1.92843e+21
-27.0387  1.9138e+21
-26.9214  1.90705e+21
-26.8041  1.91057e+21
-26.6868  1.92717e+21
-26.5695  1.96013e+21
-26.4522  2.01178e+21
-26.3349  2.08325e+21
-26.2176  2.17338e+21
-26.1003  2.27869e+21
-25.983  2.39357e+21
-25.8657  2.51083e+21
-25.7483  2.6235e+21
-25.631  2.72605e+21
-25.5137  2.81499e+21
-25.3964  2.89048e+21
-25.2791  2.9556e+21
-25.1618  3.01635e+21
-25.0445  3.07981e+21
-24.9272  3.15354e+21
-24.8099  3.24356e+21
-24.6926  3.3539e+21
-24.5753  3.4856e+21
-24.458  3.63759e+21
-24.3407  3.80735e+21
-24.2234  3.99174e+21
-24.1061  4.18758e+21
-23.9888  4.39351e+21
-23.8715  4.60918e+21
-23.7542  4.83561e+21
-23.6369  5.07473e+21
-23.5196  5.3282e+21
-23.4023  5.59737e+21
-23.2849  5.88343e+21
-23.1676  6.18595e+21
-23.0503  6.50581e+21
-22.933  6.84434e+21
-22.8157  7.20483e+21
-22.6984  7.59197e+21
-22.5811  8.01317e+21
-22.4638  8.47609e+21
-22.3465  8.98853e+21
-22.2292  9.55585e+21
-22.1119  1.01803e+22
-21.9946  1.08589e+22
-21.8773  1.15845e+22
-21.76  1.2345e+22
-21.6427  1.31251e+22
-21.5254  1.39093e+22
-21.4081  1.46822e+22
-21.2908  1.54325e+22
-21.1735  1.61519e+22
-21.0561  1.68382e+22
-20.9388  1.74929e+22
-20.8215  1.81217e+22
-20.7042  1.87318e+22
-20.5869  1.93317e+22
-20.4696  1.99298e+22
-20.3523  2.05333e+22
-20.235  2.11479e+22
-20.1177  2.17787e+22
-20.0004  2.24302e+22
-19.8831  2.31054e+22
-19.7658  2.38065e+22
-19.6485  2.45357e+22
-19.5312  2.52908e+22
-19.4139  2.60688e+22
-19.2966  2.68632e+22
-19.1793  2.7664e+22
-19.062  2.84592e+22
-18.9447  2.92365e+22
-18.8274  2.99843e+22
-18.71  3.06928e+22
-18.5927  3.13571e+22
-18.4754  3.19763e+22
-18.3581  3.25539e+22
-18.2408  3.30964e+22
-18.1235  3.36123e+22
-18.0062  3.41097e+22
-17.8889  3.4595e+22
-17.7716  3.50718e+22
-17.6543  3.55407e+22
-17.537  3.60001e+22
-17.4197  3.64469e+22
-17.3024  3.68785e+22
-17.1851  3.72936e+22
-17.0678  3.7693e+22
-16.9505  3.808e+22
-16.8332  3.84597e+22
-16.7159  3.88372e+22
-16.5986  3.92178e+22
-16.4813  3.96044e+22
-16.364  3.99987e+22
-16.2466  4.04003e+22
-16.1293  4.08076e+22
-16.012  4.12191e+22
-15.8947  4.16344e+22
-15.7774  4.20551e+22
-15.6601  4.24845e+22
-15.5428  4.29273e+22
-15.4255  4.33885e+22
-15.3082  4.38721e+22
-15.1909  4.43791e+22
-15.0736  4.49077e+22
-14.9563  4.54525e+22
-14.839  4.60054e+22
-14.7217  4.6557e+22
-14.6044  4.70981e+22
-14.4871  4.7621e+22
-14.3698  4.81208e+22
-14.2525  4.85972e+22
-14.1352  4.90515e+22
-14.0178  4.94885e+22
-13.9005  4.99139e+22
-13.7832  5.03335e+22
-13.6659  5.07519e+22
-13.5486  5.11733e+22
-13.4313  5.16008e+22
-13.314  5.20369e+22
-13.1967  5.24846e+22
-13.0794  5.29474e+22
-12.9621  5.34301e+22
-12.8448  5.39372e+22
-12.7275  5.44731e+22
-12.6102  5.50395e+22
-12.4929  5.56364e+22
-12.3756  5.62587e+22
-12.2583  5.68991e+22
-12.141  5.75468e+22
-12.0237  5.81897e+22
-11.9064  5.88166e+22
-11.7891  5.94178e+22
-11.6718  5.99881e+22
-11.5544  6.05257e+22
-11.4371  6.10326e+22
-11.3198  6.15146e+22
-11.2025  6.19784e+22
-11.0852  6.24311e+22
-10.9679  6.28778e+22
-10.8506  6.33219e+22
-10.7333  6.37638e+22
-10.616  6.42028e+22
-10.4987  6.46362e+22
-10.3814  6.50618e+22
-10.2641  6.54785e+22
-10.1468  6.58861e+22
-10.0295  6.6286e+22
-9.91217  6.66809e+22
-9.79487  6.7073e+22
-9.67756  6.74644e+22
-9.56026  6.78561e+22
-9.44295  6.82478e+22
-9.32565  6.86382e+22
-9.20834  6.90258e+22
-9.09104  6.94097e+22
-8.97373  6.97899e+22
-8.85643  7.01682e+22
-8.73913  7.05474e+22
-8.62182  7.09313e+22
-8.50452  7.13232e+22
-8.38721  7.17247e+22
-8.26991  7.21355e+22
-8.1526  7.25524e+22
-8.03529  7.297e+22
-7.91799  7.3381e+22
-7.80069  7.37776e+22
-7.68338  7.41534e+22
-7.56608  7.45036e+22
-7.44877  7.48269e+22
-7.33146  7.51248e+22
-7.21416  7.54012e+22
-7.09685  7.56614e+22
-6.97955  7.59115e+22
-6.86224  7.61562e+22
-6.74494  7.63986e+22
-6.62763  7.66397e+22
-6.51033  7.68793e+22
-6.39302  7.71163e+22
-6.27572  7.735e+22
-6.15842  7.75807e+22
-6.04111  7.78105e+22
-5.92381  7.8043e+22
-5.8065  7.82827e+22
-5.68919  7.85343e+22
-5.57189  7.88011e+22
-5.45458  7.90844e+22
-5.33728  7.93831e+22
-5.21997  7.9693e+22
-5.10267  8.00091e+22
-4.98536  8.03249e+22
-4.86806  8.06352e+22
-4.75075  8.09363e+22
-4.63345  8.12267e+22
-4.51614  8.15073e+22
-4.39884  8.1781e+22
-4.28154  8.205e+22
-4.16423  8.23169e+22
-4.04692  8.25824e+22
-3.92962  8.28449e+22
-3.81231  8.31007e+22
-3.69501  8.33453e+22
-3.5777  8.35743e+22
-3.4604  8.37842e+22
-3.34309  8.3974e+22
-3.22579  8.41453e+22
-3.10849  8.43022e+22
-2.99118  8.44493e+22
-2.87387  8.4593e+22
-2.75657  8.4738e+22
-2.63926  8.48869e+22
-2.52196  8.50404e+22
-2.40465  8.51969e+22
-2.28735  8.53535e+22
-2.17005  8.55074e+22
-2.05274  8.56561e+22
-1.93544  8.57995e+22
-1.81813  8.5939e+22
-1.70083  8.60774e+22
-1.58352  8.6218e+22
-1.46622  8.63633e+22
-1.34891  8.65137e+22
-1.2316  8.66678e+22
-1.1143  8.68209e+22
-0.996995  8.69673e+22
-0.87969  8.71005e+22
-0.762385  8.72149e+22
-0.64508  8.73068e+22
-0.527775  8.73754e+22
-0.41047  8.74225e+22
-0.293165  8.74517e+22
-0.17586  8.74674e+22
-0.058555  8.74732e+22
0.05875  8.74712e+22
0.176055  8.74604e+22
0.29336  8.74383e+22
0.410665  8.74005e+22
0.52797  8.73431e+22
0.645275  8.72625e+22
0.76258  8.71583e+22
0.879885  8.70326e+22
0.99719  8.68898e+22
1.1145  8.6736e+22
1.2318  8.65782e+22
1.3491  8.64216e+22
1.46641  8.62697e+22
1.58371  8.61231e+22
1.70102  8.59806e+22
1.81832  8.5839e+22
1.93563  8.56948e+22
2.05294  8.55456e+22
2.17024  8.53905e+22
2.28754  8.52307e+22
2.40485  8.50688e+22
2.52216  8.4908e+22
2.63946  8.47511e+22
2.75677  8.45989e+22
2.87407  8.44503e+22
2.99137  8.43017e+22
3.10868  8.41479e+22
3.22599  8.39832e+22
3.34329  8.38026e+22
3.4606  8.36029e+22
3.5779  8.33837e+22
3.69521  8.31469e+22
3.81251  8.28964e+22
3.92982  8.26365e+22
4.04712  8.23719e+22
4.16443  8.21044e+22
4.28173  8.18351e+22
4.39903  8.15623e+22
4.51634  8.12831e+22
4.63364  8.09947e+22
4.75095  8.06951e+22
4.86825  8.03845e+22
4.98556  8.00656e+22
5.10286  7.97428e+22
5.22017  7.94223e+22
5.33748  7.91105e+22
5.45478  7.88123e+22
5.57209  7.85304e+22
5.68939  7.82653e+22
5.8067  7.80147e+22
5.924  7.77742e+22
6.0413  7.75394e+22
6.15861  7.7306e+22
6.27591  7.70706e+22
6.39322  7.6832e+22
6.51052  7.65907e+22
6.62783  7.63477e+22
6.74514  7.61039e+22
6.86244  7.58592e+22
6.97975  7.56118e+22
7.09705  7.53573e+22
7.21436  7.50906e+22
7.33166  7.48058e+22
7.44897  7.44976e+22
7.56627  7.41631e+22
7.68358  7.38016e+22
7.80088  7.34162e+22
7.91819  7.30125e+22
8.03549  7.25973e+22
8.1528  7.21786e+22
8.2701  7.17627e+22
8.38741  7.13545e+22
8.50471  7.09554e+22
8.62202  7.05657e+22
8.73932  7.01821e+22
8.85662  6.98015e+22
8.97393  6.94208e+22
9.09123  6.90374e+22
9.20854  6.86503e+22
9.32584  6.82599e+22
9.44315  6.78676e+22
9.56045  6.74746e+22
9.67776  6.70818e+22
9.79506  6.66887e+22
9.91237  6.62944e+22
10.0297  6.5896e+22
10.147  6.54914e+22
10.2643  6.50786e+22
10.3816  6.46571e+22
10.4989  6.42273e+22
10.6162  6.37916e+22
10.7335  6.3352e+22
10.8508  6.29105e+22
10.9681  6.24672e+22
11.0854  6.20202e+22
11.2027  6.15655e+22
11.32  6.10958e+22
11.4373  6.06045e+22
11.5546  6.00848e+22
11.6719  5.95326e+22
11.7893  5.8947e+22
11.9066  5.83313e+22
12.0239  5.76932e+22
12.1412  5.7043e+22
12.2585  5.63928e+22
12.3758  5.57548e+22
12.4931  5.51383e+22
12.6104  5.45503e+22
12.7277  5.39939e+22
12.845  5.34682e+22
12.9623  5.29705e+22
13.0796  5.24962e+22
13.1969  5.20405e+22
13.3142  5.15988e+22
13.4315  5.11674e+22
13.5488  5.07435e+22
13.6661  5.03242e+22
13.7834  4.99061e+22
13.9007  4.94848e+22
14.018  4.9055e+22
14.1354  4.86112e+22
14.2527  4.81484e+22
14.37  4.7663e+22
14.4873  4.71546e+22
14.6046  4.66257e+22
14.7219  4.60822e+22
14.8392  4.55322e+22
14.9565  4.49854e+22
15.0738  4.44506e+22
15.1911  4.39343e+22
15.3084  4.34404e+22
15.4257  4.29693e+22
15.543  4.2518e+22
15.6603  4.20816e+22
15.7776  4.16553e+22
15.8949  4.12346e+22
16.0122  4.08168e+22
16.1295  4.04014e+22
16.2468  3.99898e+22
16.3641  3.9584e+22
16.4815  3.91854e+22
16.5988  3.87944e+22
16.7161  3.84095e+22
16.8334  3.80267e+22
16.9507  3.7641e+22
17.068  3.72469e+22
17.1853  3.684e+22
17.3026  3.64179e+22
17.4199  3.59801e+22
17.5372  3.55279e+22
17.6545  3.50643e+22
17.7718  3.45915e+22
17.8891  3.41098e+22
18.0064  3.36175e+22
18.1237  3.31094e+22
18.241  3.25786e+22
18.3583  3.20167e+22
18.4756  3.14161e+22
18.5929  3.07712e+22
18.7102  3.0081e+22
18.8275  2.9348e+22
18.9449  2.85798e+22
19.0622  2.77869e+22
19.1795  2.69822e+22
19.2968  2.61781e+22
19.4141  2.53853e+22
19.5314  2.46128e+22
19.6487  2.38653e+22
19.766  2.31459e+22
19.8833  2.24537e+22
20.0006  2.17873e+22
20.1179  2.11436e+22
20.2352  2.05191e+22
20.3525  1.99092e+22
20.4698  1.93091e+22
20.5871  1.87123e+22
20.7044  1.81107e+22
20.8217  1.74971e+22
20.939  1.68629e+22
21.0563  1.62013e+22
21.1736  1.55082e+22
21.291  1.47837e+22
21.4083  1.40326e+22
21.5256  1.32636e+22
21.6429  1.24906e+22
21.7602  1.17287e+22
21.8775  1.09937e+22
21.9948  1.02991e+22
22.1121  9.65546e+21
22.2294  9.0675e+21
22.3467  8.5357e+21
22.464  8.05618e+21
22.5813  7.62208e+21
22.6986  7.22565e+21
22.8159  6.85865e+21
22.9332  6.51534e+21
23.0505  6.19163e+21
23.1678  5.88534e+21
23.2851  5.59601e+21
23.4024  5.32326e+21
23.5198  5.06749e+21
23.6371  4.82748e+21
23.7544  4.60149e+21
23.8717  4.38796e+21
23.989  4.18524e+21
24.1063  3.99262e+21
24.2236  3.81066e+21
24.3409  3.64179e+21
24.4582  3.48874e+21
24.5755  3.35413e+21
24.6928  3.24032e+21
24.8101  3.14676e+21
24.9274  3.07095e+21
25.0447  3.00763e+21
25.162  2.95018e+21
25.2793  2.8909e+21
25.3966  2.82298e+21
25.5139  2.74193e+21
25.6312  2.64603e+21
25.7485  2.53724e+21
25.8658  2.42028e+21
25.9832  2.30168e+21
26.1005  2.18924e+21
26.2178  2.08952e+21
26.3351  2.00733e+21
26.4524  1.94529e+21
26.5697  1.90327e+21
26.687  1.8796e+21
26.8043  1.87097e+21
26.9216  1.87423e+21
27.0389  1.8865e+21
27.1562  1.90543e+21
27.2735  1.92929e+21
27.3908  1.95611e+21
27.5081  1.98357e+21
27.6254  2.00799e+21
27.7427  2.02449e+21
27.86  2.02728e+21
27.9773  2.01029e+21
28.0946  1.96884e+21
28.212  1.9002e+21
28.3293  1.80513e+21
28.4466  1.68778e+21
28.5639  1.55602e+21
28.6812  1.41928e+21
28.7985  1.28824e+21
28.9158  1.17243e+21
29.0331  1.079e+21
29.1504  1.01167e+21
29.2677  9.7024e+20
29.385  9.51119e+20
29.5023  9.48688e+20
29.6196  9.56136e+20
29.7369  9.67332e+20
29.8542  9.77428e+20
29.9715  9.83915e+20
30.0888  9.85871e+20
30.2061  9.84054e+20
30.3234  9.79483e+20
30.4407  9.73071e+20
30.558  9.64708e+20
30.6754  9.53636e+20
30.7927  9.38662e+20
30.91  9.18294e+20
31.0273  8.92467e+20
31.1446  8.62053e+20
31.2619  8.2979e+20
31.3792  7.98975e+20
31.4965  7.73462e+20
31.6138  7.56179e+20
31.7311  7.48008e+20
31.8484  7.47511e+20
31.9657  7.50949e+20
32.083  7.52671e+20
32.2003  7.46408e+20
32.3176  7.27224e+20
32.4349  6.91908e+20
32.5522  6.40553e+20
32.6695  5.7659e+20
32.7868  5.06093e+20
32.9042  4.36462e+20
33.0215  3.75188e+20
33.1388  3.27832e+20
33.2561  2.97498e+20
33.3734  2.84148e+20
33.4907  2.84921e+20
33.608  2.95208e+20
33.7253  3.10172e+20
33.8426  3.25616e+20
33.9599  3.39285e+20
34.0772  3.50915e+20
34.1945  3.6176e+20
34.3118  3.73999e+20
34.4291  3.89353e+20
34.5464  4.08192e+20
34.6637  4.29036e+20
34.781  4.486e+20
34.8983  4.62724e+20
35.0156  4.67288e+20
35.1329  4.59743e+20
35.2503  4.39748e+20
35.3676  4.09864e+20
35.4849  3.7511e+20
35.6022  3.41864e+20
35.7195  3.16529e+20
35.8368  3.04212e+20
35.9541  3.07194e+20
36.0714  3.2474e+20
36.1887  3.53189e+20
36.306  3.87033e+20
36.4233  4.2017e+20
36.5406  4.47407e+20
36.6579  4.65597e+20
36.7752  4.7405e+20
36.8925  4.74796e+20
37.0098  4.71313e+20
37.1271  4.6766e+20
37.2444  4.67097e+20
37.3617  4.7144e+20
37.479  4.80395e+20
37.5964  4.92253e+20
37.7137  5.04036e+20
37.831  5.13191e+20
37.9483  5.18157e+20
38.0656  5.18761e+20
38.1829  5.16688e+20
38.3002  5.14645e+20
38.4175  5.15482e+20
38.5348  5.21223e+20
38.6521  5.32114e+20
38.7694  5.46437e+20
38.8867  5.60481e+20
39.004  5.69725e+20
39.1213  5.69634e+20
39.2386  5.5701e+20
39.3559  5.31093e+20
39.4732  4.9379e+20
39.5905  4.49236e+20
39.7078  4.03179e+20
39.8251  3.61667e+20
39.9425  3.29673e+20
40.0598  3.09996e+20
40.1771  3.03044e+20
40.2944  3.06382e+20
40.4117  3.16126e+20
40.529  3.27579e+20
40.6463  3.36594e+20
40.7636  3.40364e+20
40.8809  3.38047e+20
40.9982  3.30744e+20
41.1155  3.20701e+20
41.2328  3.1069e+20
41.3501  3.02747e+20
41.4674  2.9798e+20
41.5847  2.95687e+20
41.702  2.94185e+20
41.8193  2.90788e+20
41.9366  2.83187e+20
42.0539  2.6991e+20
42.1712  2.51188e+20
42.2885  2.28633e+20
42.4059  2.05315e+20
42.5232  1.84801e+20
42.6405  1.70398e+20
42.7578  1.64096e+20
42.8751  1.66086e+20
42.9924  1.74739e+20
43.1097  1.87015e+20
43.227  1.98978e+20
43.3443  2.07048e+20
43.4616  2.08853e+20
43.5789  2.03533e+20
43.6962  1.92394e+20
43.8135  1.78226e+20
43.9308  1.64585e+20
44.0481  1.549e+20
44.1654  1.51624e+20
44.2827  1.55423e+20
44.4  1.65146e+20
44.5173  1.78217e+20
44.6347  1.91163e+20
44.752  2.0082e+20
44.8693  2.05079e+20
44.9866  2.03581e+20
45.1039  1.97818e+20
45.2212  1.90774e+20
45.3385  1.86089e+20
45.4558  1.86932e+20
45.5731  1.95148e+20
45.6904  2.10568e+20
45.8077  2.30901e+20
45.925  2.52228e+20
46.0423  2.69989e+20
46.1596  2.80163e+20
46.2769  2.80278e+20
46.3942  2.70351e+20
46.5115  2.52967e+20
46.6288  2.32582e+20
46.7461  2.14661e+20
46.8634  2.04351e+20
46.9808  2.05181e+20
47.0981  2.18052e+20
47.2154  2.41284e+20
47.3327  2.70831e+20
47.45  3.01402e+20
47.5673  3.2766e+20
47.6846  3.4569e+20
47.8019  3.53706e+20
47.9192  3.52235e+20
48.0365  3.44063e+20
48.1538  3.32897e+20
48.2711  3.22312e+20
48.3884  3.14864e+20
48.5057  3.11328e+20
48.623  3.1041e+20
48.7403  3.09665e+20
48.8576  3.06266e+20
48.9749  2.97901e+20
49.0922  2.8402e+20
49.2095  2.65866e+20
49.3269  2.46514e+20
49.4442  2.29677e+20
49.5615  2.18864e+20
49.6788  2.16244e+20
49.7961  2.2174e+20
49.9134  2.32969e+20
50.0307  2.45814e+20
50.148  2.55431e+20
50.2653  2.57747e+20
50.3826  2.50494e+20
50.4999  2.34174e+20
50.6172  2.11785e+20
50.7345  1.88354e+20
50.8518  1.69475e+20
