#S 1 spectral density
#N 2
#UFWHM 22.5226
#L  abscissas [um]  spectral density
-58.5938  4.64335e+20
-58.4764  4.67204e+20
-58.3591  4.75503e+20
-58.2418  4.91287e+20
-58.1245  5.15784e+20
-58.0072  5.49074e+20
-57.8899  5.89325e+20
-57.7726  6.33491e+20
-57.6553  6.76905e+20
-57.538  7.14633e+20
-57.4207  7.4209e+20
-57.3034  7.55832e+20
-57.1861  7.54194e+20
-57.0688  7.37823e+20
-56.9515  7.09045e+20
-56.8342  6.71623e+20
-56.7169  6.30114e+20
-56.5996  5.88905e+20
-56.4823  5.51126e+20
-56.365  5.1877e+20
-56.2477  4.92278e+20
-56.1303  4.71018e+20
-56.013  4.53785e+20
-55.8957  4.3944e+20
-55.7784  4.27662e+20
-55.6611  4.19033e+20
-55.5438  4.15119e+20
-55.4265  4.17966e+20
-55.3092  4.29389e+20
-55.1919  4.50615e+20
-55.0746  4.81116e+20
-54.9573  5.18917e+20
-54.84  5.60467e+20
-54.7227  6.01611e+20
-54.6054  6.37878e+20
-54.4881  6.65722e+20
-54.3708  6.83403e+20
-54.2535  6.90629e+20
-54.1362  6.89066e+20
-54.0189  6.81275e+20
-53.9016  6.70226e+20
-53.7842  6.5801e+20
-53.6669  6.4591e+20
-53.5496  6.33572e+20
-53.4323  6.1932e+20
-53.315  6.01453e+20
-53.1977  5.7852e+20
-53.0804  5.50338e+20
-52.9631  5.18497e+20
-52.8458  4.86251e+20
-52.7285  4.58045e+20
-52.6112  4.38341e+20
-52.4939  4.30624e+20
-52.3766  4.36684e+20
-52.2593  4.55725e+20
-52.142  4.84321e+20
-52.0247  5.17591e+20
-51.9074  5.49965e+20
-51.7901  5.76414e+20
-51.6728  5.93642e+20
-51.5555  6.00624e+20
-51.4381  5.98664e+20
-51.3208  5.90732e+20
-51.2035  5.80253e+20
-51.0862  5.70258e+20
-50.9689  5.62524e+20
-50.8516  5.56804e+20
-50.7343  5.5109e+20
-50.617  5.42579e+20
-50.4997  5.28405e+20
-50.3824  5.06839e+20
-50.2651  4.78003e+20
-50.1478  4.44295e+20
-50.0305  4.09501e+20
-49.9132  3.78492e+20
-49.7959  3.55718e+20
-49.6786  3.44236e+20
-49.5613  3.44914e+20
-49.444  3.56611e+20
-49.3267  3.76105e+20
-49.2094  3.99431e+20
-49.092  4.22768e+20
-48.9747  4.4361e+20
-48.8574  4.61005e+20
-48.7401  4.75784e+20
-48.6228  4.89985e+20
-48.5055  5.0579e+20
-48.3882  5.24681e+20
-48.2709  5.46525e+20
-48.1536  5.69232e+20
-48.0363  5.89306e+20
-47.919  6.02246e+20
-47.8017  6.03934e+20
-47.6844  5.9187e+20
-47.5671  5.656e+20
-47.4498  5.27334e+20
-47.3325  4.81549e+20
-47.2152  4.34072e+20
-47.0979  3.90758e+20
-46.9806  3.56481e+20
-46.8633  3.34085e+20
-46.7459  3.24105e+20
-46.6286  3.24852e+20
-46.5113  3.33169e+20
-46.394  3.45353e+20
-46.2767  3.5831e+20
-46.1594  3.70147e+20
-46.0421  3.8038e+20
-45.9248  3.90104e+20
-45.8075  4.01013e+20
-45.6902  4.14711e+20
-45.5729  4.32149e+20
-45.4556  4.52793e+20
-45.3383  4.74863e+20
-45.221  4.95543e+20
-45.1037  5.1157e+20
-44.9864  5.20356e+20
-44.8691  5.20591e+20
-44.7518  5.12711e+20
-44.6345  4.98833e+20
-44.5172  4.82425e+20
-44.3998  4.67521e+20
-44.2825  4.57904e+20
-44.1652  4.56046e+20
-44.0479  4.6267e+20
-43.9306  4.76902e+20
-43.8133  4.96171e+20
-43.696  5.17204e+20
-43.5787  5.36782e+20
-43.4614  5.52297e+20
-43.3441  5.62704e+20
-43.2268  5.68399e+20
-43.1095  5.71043e+20
-42.9922  5.73177e+20
-42.8749  5.7718e+20
-42.7576  5.84577e+20
-42.6403  5.95874e+20
-42.523  6.09971e+20
-42.4057  6.24629e+20
-42.2884  6.36822e+20
-42.171  6.43742e+20
-42.0537  6.43234e+20
-41.9364  6.34635e+20
-41.8191  6.18435e+20
-41.7018  5.96668e+20
-41.5845  5.72271e+20
-41.4672  5.48241e+20
-41.3499  5.27119e+20
-41.2326  5.10725e+20
-41.1153  4.9966e+20
-40.998  4.93758e+20
-40.8807  4.92376e+20
-40.7634  4.95048e+20
-40.6461  5.01827e+20
-40.5288  5.13562e+20
-40.4115  5.31849e+20
-40.2942  5.58517e+20
-40.1769  5.94903e+20
-40.0596  6.41298e+20
-39.9423  6.96034e+20
-39.825  7.55936e+20
-39.7076  8.15993e+20
-39.5903  8.70685e+20
-39.473  9.14303e+20
-39.3557  9.42412e+20
-39.2384  9.5273e+20
-39.1211  9.45287e+20
-39.0038  9.22597e+20
-38.8865  8.88907e+20
-38.7692  8.49377e+20
-38.6519  8.08936e+20
-38.5346  7.71316e+20
-38.4173  7.38587e+20
-38.3  7.11381e+20
-38.1827  6.88718e+20
-38.0654  6.69313e+20
-37.9481  6.52053e+20
-37.8308  6.3664e+20
-37.7135  6.24161e+20
-37.5962  6.16327e+20
-37.4789  6.15458e+20
-37.3615  6.2357e+20
-37.2442  6.41475e+20
-37.1269  6.68398e+20
-37.0096  7.01953e+20
-36.8923  7.38553e+20
-36.775  7.74182e+20
-36.6577  8.05146e+20
-36.5404  8.29473e+20
-36.4231  8.46284e+20
-36.3058  8.56936e+20
-36.1885  8.63828e+20
-36.0712  8.69677e+20
-35.9539  8.76531e+20
-35.8366  8.85165e+20
-35.7193  8.94481e+20
-35.602  9.01873e+20
-35.4847  9.03873e+20
-35.3674  8.9727e+20
-35.2501  8.79947e+20
-35.1328  8.51923e+20
-35.0154  8.15634e+20
-34.8981  7.75701e+20
-34.7808  7.37709e+20
-34.6635  7.07443e+20
-34.5462  6.8948e+20
-34.4289  6.85934e+20
-34.3116  6.96531e+20
-34.1943  7.18608e+20
-34.077  7.47563e+20
-33.9597  7.78512e+20
-33.8424  8.07061e+20
-33.7251  8.30551e+20
-33.6078  8.48062e+20
-33.4905  8.60542e+20
-33.3732  8.70267e+20
-33.2559  8.79399e+20
-33.1386  8.89304e+20
-33.0213  9.00247e+20
-32.904  9.10433e+20
-32.7867  9.16856e+20
-32.6693  9.16364e+20
-32.552  9.06174e+20
-32.4347  8.84947e+20
-32.3174  8.53566e+20
-32.2001  8.15074e+20
-32.0828  7.74205e+20
-31.9655  7.36292e+20
-31.8482  7.06621e+20
-31.7309  6.88623e+20
-31.6136  6.84014e+20
-31.4963  6.9204e+20
-31.379  7.10361e+20
-31.2617  7.35445e+20
-31.1444  7.63706e+20
-31.0271  7.92193e+20
-30.9098  8.19325e+20
-30.7925  8.44786e+20
-30.6752  8.69029e+20
-30.5579  8.9279e+20
-30.4406  9.1645e+20
-30.3232  9.39302e+20
-30.2059  9.59551e+20
-30.0886  9.7425e+20
-29.9713  9.80394e+20
-29.854  9.75904e+20
-29.7367  9.59804e+20
-29.6194  9.33389e+20
-29.5021  8.99956e+20
-29.3848  8.64449e+20
-29.2675  8.32599e+20
-29.1502  8.09314e+20
-29.0329  7.98198e+20
-28.9156  8.00278e+20
-28.7983  8.14109e+20
-28.681  8.35961e+20
-28.5637  8.61033e+20
-28.4464  8.83709e+20
-28.3291  9.00346e+20
-28.2118  9.08572e+20
-28.0944  9.08713e+20
-27.9771  9.03644e+20
-27.8598  8.97367e+20
-27.7425  8.94787e+20
-27.6252  9.0021e+20
-27.5079  9.16366e+20
-27.3906  9.44329e+20
-27.2733  9.83003e+20
-27.156  1.03008e+21
-27.0387  1.08215e+21
-26.9214  1.13622e+21
-26.8041  1.18983e+21
-26.6868  1.24156e+21
-26.5695  1.29104e+21
-26.4522  1.33846e+21
-26.3349  1.38406e+21
-26.2176  1.42741e+21
-26.1003  1.46752e+21
-25.983  1.50251e+21
-25.8657  1.5297e+21
-25.7483  1.5474e+21
-25.631  1.55463e+21
-25.5137  1.55245e+21
-25.3964  1.54337e+21
-25.2791  1.53193e+21
-25.1618  1.52368e+21
-25.0445  1.5238e+21
-24.9272  1.53638e+21
-24.8099  1.56354e+21
-24.6926  1.60449e+21
-24.5753  1.65565e+21
-24.458  1.71154e+21
-24.3407  1.7657e+21
-24.2234  1.81185e+21
-24.1061  1.8451e+21
-23.9888  1.86354e+21
-23.8715  1.86738e+21
-23.7542  1.85967e+21
-23.6369  1.84592e+21
-23.5196  1.83211e+21
-23.4023  1.82448e+21
-23.2849  1.82902e+21
-23.1676  1.84999e+21
-23.0503  1.89127e+21
-22.933  1.95449e+21
-22.8157  2.04218e+21
-22.6984  2.15534e+21
-22.5811  2.29524e+21
-22.4638  2.46218e+21
-22.3465  2.65516e+21
-22.2292  2.87189e+21
-22.1119  3.10736e+21
-21.9946  3.354e+21
-21.8773  3.60221e+21
-21.76  3.84127e+21
-21.6427  4.05966e+21
-21.5254  4.24813e+21
-21.4081  4.39973e+21
-21.2908  4.51219e+21
-21.1735  4.5869e+21
-21.0561  4.63003e+21
-20.9388  4.651e+21
-20.8215  4.66086e+21
-20.7042  4.6713e+21
-20.5869  4.69235e+21
-20.4696  4.73244e+21
-20.3523  4.79667e+21
-20.235  4.88771e+21
-20.1177  5.00591e+21
-20.0004  5.14977e+21
-19.8831  5.31692e+21
-19.7658  5.50399e+21
-19.6485  5.70808e+21
-19.5312  5.92461e+21
-19.4139  6.14929e+21
-19.2966  6.37677e+21
-19.1793  6.60093e+21
-19.062  6.8156e+21
-18.9447  7.01595e+21
-18.8274  7.19845e+21
-18.71  7.36238e+21
-18.5927  7.51069e+21
-18.4754  7.64927e+21
-18.3581  7.78741e+21
-18.2408  7.93562e+21
-18.1235  8.10521e+21
-18.0062  8.30518e+21
-17.8889  8.54246e+21
-17.7716  8.82042e+21
-17.6543  9.13882e+21
-17.537  9.49428e+21
-17.4197  9.88212e+21
-17.3024  1.02957e+22
-17.1851  1.0731e+22
-17.0678  1.11835e+22
-16.9505  1.16504e+22
-16.8332  1.21312e+22
-16.7159  1.26251e+22
-16.5986  1.31312e+22
-16.4813  1.36474e+22
-16.364  1.41716e+22
-16.2466  1.47004e+22
-16.1293  1.52306e+22
-16.012  1.57598e+22
-15.8947  1.62874e+22
-15.7774  1.68154e+22
-15.6601  1.73477e+22
-15.5428  1.789e+22
-15.4255  1.84481e+22
-15.3082  1.9028e+22
-15.1909  1.96329e+22
-15.0736  2.02634e+22
-14.9563  2.09177e+22
-14.839  2.15916e+22
-14.7217  2.22786e+22
-14.6044  2.29736e+22
-14.4871  2.36712e+22
-14.3698  2.43681e+22
-14.2525  2.50634e+22
-14.1352  2.57578e+22
-14.0178  2.64527e+22
-13.9005  2.71501e+22
-13.7832  2.78505e+22
-13.6659  2.85532e+22
-13.5486  2.92561e+22
-13.4313  2.99557e+22
-13.314  3.06487e+22
-13.1967  3.13325e+22
-13.0794  3.20054e+22
-12.9621  3.26685e+22
-12.8448  3.33243e+22
-12.7275  3.39769e+22
-12.6102  3.46304e+22
-12.4929  3.52884e+22
-12.3756  3.59532e+22
-12.2583  3.66256e+22
-12.141  3.73044e+22
-12.0237  3.79874e+22
-11.9064  3.86728e+22
-11.7891  3.93584e+22
-11.6718  4.00444e+22
-11.5544  4.07316e+22
-11.4371  4.14221e+22
-11.3198  4.21181e+22
-11.2025  4.28214e+22
-11.0852  4.35316e+22
-10.9679  4.42468e+22
-10.8506  4.49624e+22
-10.7333  4.56723e+22
-10.616  4.63703e+22
-10.4987  4.70497e+22
-10.3814  4.77067e+22
-10.2641  4.83409e+22
-10.1468  4.89536e+22
-10.0295  4.95509e+22
-9.91217  5.01401e+22
-9.79487  5.07291e+22
-9.67756  5.1326e+22
-9.56026  5.19379e+22
-9.44295  5.25685e+22
-9.32565  5.32197e+22
-9.20834  5.38909e+22
-9.09104  5.45799e+22
-8.97373  5.52831e+22
-8.85643  5.59965e+22
-8.73913  5.67161e+22
-8.62182  5.74375e+22
-8.50452  5.81562e+22
-8.38721  5.88671e+22
-8.26991  5.95652e+22
-8.1526  6.02444e+22
-8.03529  6.08998e+22
-7.91799  6.15262e+22
-7.80069  6.21219e+22
-7.68338  6.26864e+22
-7.56608  6.32233e+22
-7.44877  6.37397e+22
-7.33146  6.42443e+22
-7.21416  6.47478e+22
-7.09685  6.52605e+22
-6.97955  6.57909e+22
-6.86224  6.63447e+22
-6.74494  6.69224e+22
-6.62763  6.75212e+22
-6.51033  6.81346e+22
-6.39302  6.87535e+22
-6.27572  6.93682e+22
-6.15842  6.99693e+22
-6.04111  7.0549e+22
-5.92381  7.11031e+22
-5.8065  7.16291e+22
-5.68919  7.21272e+22
-5.57189  7.25997e+22
-5.45458  7.3049e+22
-5.33728  7.34791e+22
-5.21997  7.38926e+22
-5.10267  7.42932e+22
-4.98536  7.46836e+22
-4.86806  7.50681e+22
-4.75075  7.54512e+22
-4.63345  7.58375e+22
-4.51614  7.62319e+22
-4.39884  7.66389e+22
-4.28154  7.70593e+22
-4.16423  7.74939e+22
-4.04692  7.79382e+22
-3.92962  7.83858e+22
-3.81231  7.88272e+22
-3.69501  7.92526e+22
-3.5777  7.96523e+22
-3.4604  8.00187e+22
-3.34309  8.03475e+22
-3.22579  8.06388e+22
-3.10849  8.08956e+22
-2.99118  8.1124e+22
-2.87387  8.13328e+22
-2.75657  8.15301e+22
-2.63926  8.17229e+22
-2.52196  8.19169e+22
-2.40465  8.21144e+22
-2.28735  8.23169e+22
-2.17005  8.2523e+22
-2.05274  8.27309e+22
-1.93544  8.29388e+22
-1.81813  8.31447e+22
-1.70083  8.33471e+22
-1.58352  8.3544e+22
-1.46622  8.37329e+22
-1.34891  8.39105e+22
-1.2316  8.40729e+22
-1.1143  8.4215e+22
-0.996995  8.43329e+22
-0.87969  8.44228e+22
-0.762385  8.44843e+22
-0.64508  8.45187e+22
-0.527775  8.45309e+22
-0.41047  8.4528e+22
-0.293165  8.4518e+22
-0.17586  8.4509e+22
-0.058555  8.45066e+22
0.05875  8.45145e+22
0.176055  8.45313e+22
0.29336  8.45535e+22
0.410665  8.45737e+22
0.52797  8.45841e+22
0.645275  8.45766e+22
0.76258  8.45453e+22
0.879885  8.4486e+22
0.99719  8.43984e+22
1.1145  8.4284e+22
1.2318  8.41464e+22
1.3491  8.39902e+22
1.46641  8.38199e+22
1.58371  8.36387e+22
1.70102  8.34496e+22
1.81832  8.32551e+22
1.93563  8.30567e+22
2.05294  8.28561e+22
2.17024  8.2656e+22
2.28754  8.24584e+22
2.40485  8.22653e+22
2.52216  8.20776e+22
2.63946  8.18935e+22
2.75677  8.17099e+22
2.87407  8.15206e+22
2.99137  8.13174e+22
3.10868  8.10917e+22
3.22599  8.08358e+22
3.34329  8.05438e+22
3.4606  8.02132e+22
3.5779  7.98457e+22
3.69521  7.94466e+22
3.81251  7.90243e+22
3.92982  7.85886e+22
4.04712  7.815e+22
4.16443  7.77162e+22
4.28173  7.72934e+22
4.39903  7.68845e+22
4.51634  7.64889e+22
4.63364  7.61042e+22
4.75095  7.57264e+22
4.86825  7.53506e+22
4.98556  7.4973e+22
5.10286  7.4589e+22
5.22017  7.41954e+22
5.33748  7.37887e+22
5.45478  7.33657e+22
5.57209  7.29223e+22
5.68939  7.2455e+22
5.8067  7.19606e+22
5.924  7.14373e+22
6.0413  7.0885e+22
6.15861  7.03067e+22
6.27591  6.97081e+22
6.39322  6.90975e+22
6.51052  6.84849e+22
6.62783  6.78799e+22
6.74514  6.72915e+22
6.86244  6.67249e+22
6.97975  6.61826e+22
7.09705  6.56613e+22
7.21436  6.51549e+22
7.33166  6.46544e+22
7.44897  6.41492e+22
7.56627  6.36291e+22
7.68358  6.3086e+22
7.80088  6.25145e+22
7.91819  6.19125e+22
8.03549  6.12804e+22
8.1528  6.06216e+22
8.2701  5.9941e+22
8.38741  5.92442e+22
8.50471  5.85359e+22
8.62202  5.7822e+22
8.73932  5.71067e+22
8.85662  5.63943e+22
8.97393  5.56896e+22
9.09123  5.49966e+22
9.20854  5.43188e+22
9.32584  5.36597e+22
9.44315  5.30206e+22
9.56045  5.24013e+22
9.67776  5.17987e+22
9.79506  5.12073e+22
9.91237  5.06196e+22
10.0297  5.00273e+22
10.147  4.94223e+22
10.2643  4.87979e+22
10.3816  4.81507e+22
10.4989  4.74795e+22
10.6162  4.67868e+22
10.7335  4.60783e+22
10.8508  4.53609e+22
10.9681  4.46403e+22
11.0854  4.39232e+22
11.2027  4.32135e+22
11.32  4.25122e+22
11.4373  4.18188e+22
11.5546  4.1132e+22
11.6719  4.04488e+22
11.7893  3.97677e+22
11.9066  3.90876e+22
12.0239  3.84094e+22
12.1412  3.77344e+22
12.2585  3.70649e+22
12.3758  3.64017e+22
12.4931  3.5745e+22
12.6104  3.50932e+22
12.7277  3.44439e+22
12.845  3.37923e+22
12.9623  3.31346e+22
13.0796  3.24675e+22
13.1969  3.17892e+22
13.3142  3.11003e+22
13.4315  3.04023e+22
13.5488  2.9699e+22
13.6661  2.89937e+22
13.7834  2.829e+22
13.9007  2.75892e+22
14.018  2.6891e+22
14.1354  2.6195e+22
14.2527  2.54988e+22
14.37  2.48006e+22
14.4873  2.41008e+22
14.6046  2.34003e+22
14.7219  2.27032e+22
14.8392  2.20145e+22
14.9565  2.13401e+22
15.0738  2.06857e+22
15.1911  2.00542e+22
15.3084  1.94474e+22
15.4257  1.88635e+22
15.543  1.82979e+22
15.6603  1.77452e+22
15.7776  1.72e+22
15.8949  1.66569e+22
16.0122  1.61129e+22
16.1295  1.55672e+22
16.2468  1.50215e+22
16.3641  1.44785e+22
16.4815  1.39413e+22
16.5988  1.3413e+22
16.7161  1.28958e+22
16.8334  1.23916e+22
16.9507  1.19002e+22
17.068  1.14229e+22
17.1853  1.09608e+22
17.3026  1.05174e+22
17.4199  1.00969e+22
17.5372  9.70484e+21
17.6545  9.34702e+21
17.7718  9.02784e+21
17.8891  8.74983e+21
18.0064  8.51192e+21
18.1237  8.3094e+21
18.241  8.13457e+21
18.3583  7.97748e+21
18.4756  7.82711e+21
18.5929  7.67302e+21
18.7102  7.50776e+21
18.8275  7.32608e+21
18.9449  7.12696e+21
19.0622  6.91137e+21
19.1795  6.68446e+21
19.2968  6.45101e+21
19.4141  6.21722e+21
19.5314  5.98851e+21
19.6487  5.77004e+21
19.766  5.56631e+21
19.8833  5.38087e+21
20.0006  5.21732e+21
20.1179  5.07887e+21
20.2352  4.9677e+21
20.3525  4.88492e+21
20.4698  4.82993e+21
20.5871  4.79889e+21
20.7044  4.78522e+21
20.8217  4.78021e+21
20.939  4.77194e+21
21.0563  4.74906e+21
21.1736  4.69994e+21
21.291  4.61605e+21
21.4083  4.49281e+21
21.5256  4.32914e+21
21.6429  4.12952e+21
21.7602  3.90146e+21
21.8775  3.65523e+21
21.9948  3.40203e+21
22.1121  3.15249e+21
22.2294  2.91569e+21
22.3467  2.69833e+21
22.464  2.5047e+21
22.5813  2.3373e+21
22.6986  2.19673e+21
22.8159  2.08273e+21
22.9332  1.99492e+21
23.0505  1.93205e+21
23.1678  1.89256e+21
23.2851  1.87378e+21
23.4024  1.87171e+21
23.5198  1.88095e+21
23.6371  1.89547e+21
23.7544  1.90775e+21
23.8717  1.91182e+21
23.989  1.90263e+21
24.1063  1.87766e+21
24.2236  1.83723e+21
24.3409  1.78489e+21
24.4582  1.72602e+21
24.5755  1.66726e+21
24.6928  1.61525e+21
24.8101  1.57496e+21
24.9274  1.54908e+21
25.0447  1.53752e+21
25.162  1.53763e+21
25.2793  1.5448e+21
25.3966  1.55364e+21
25.5139  1.55921e+21
25.6312  1.55778e+21
25.7485  1.54719e+21
25.8658  1.52735e+21
25.9832  1.49945e+21
26.1005  1.46565e+21
26.2178  1.42775e+21
26.3351  1.38709e+21
26.4524  1.34436e+21
26.5697  1.29923e+21
26.687  1.25136e+21
26.8043  1.20073e+21
26.9216  1.14823e+21
27.0389  1.09554e+21
27.1562  1.04564e+21
27.2735  1.00188e+21
27.3908  9.67281e+20
27.5081  9.43751e+20
27.6254  9.31667e+20
27.7427  9.29211e+20
27.86  9.32528e+20
27.9773  9.37299e+20
28.0946  9.385e+20
28.212  9.32546e+20
28.3293  9.17761e+20
28.4466  8.94711e+20
28.5639  8.66713e+20
28.6812  8.38322e+20
28.7985  8.14957e+20
28.9158  8.01291e+20
29.0331  8.00541e+20
29.1504  8.13128e+20
29.2677  8.3727e+20
29.385  8.68964e+20
29.5023  9.02789e+20
29.6196  9.33461e+20
29.7369  9.56732e+20
29.8542  9.70029e+20
29.9715  9.72715e+20
30.0888  9.65961e+20
30.2061  9.52322e+20
30.3234  9.34185e+20
30.4407  9.14031e+20
30.558  8.92837e+20
30.6754  8.70763e+20
30.7927  8.47337e+20
30.91  8.21681e+20
31.0273  7.93603e+20
31.1446  7.64077e+20
31.2619  7.3545e+20
31.3792  7.11073e+20
31.4965  6.94636e+20
31.6138  6.89466e+20
31.7311  6.97457e+20
31.8484  7.18444e+20
31.9657  7.50289e+20
32.083  7.88528e+20
32.2003  8.28153e+20
32.3176  8.63885e+20
32.4349  8.91659e+20
32.5522  9.09265e+20
32.6695  9.16442e+20
32.7868  9.15328e+20
32.9042  9.08605e+20
33.0215  8.99649e+20
33.1388  8.90528e+20
33.2561  8.82585e+20
33.3734  8.74719e+20
33.4907  8.652e+20
33.608  8.51677e+20
33.7253  8.32277e+20
33.8426  8.06658e+20
33.9599  7.7637e+20
34.0772  7.44871e+20
34.1945  7.16777e+20
34.3118  6.9732e+20
34.4291  6.90389e+20
34.5464  6.98069e+20
34.6637  7.19698e+20
34.781  7.52282e+20
34.8983  7.91011e+20
35.0156  8.29652e+20
35.1329  8.63206e+20
35.2503  8.87575e+20
35.3676  9.01303e+20
35.4849  9.05266e+20
35.6022  9.01675e+20
35.7195  8.94153e+20
35.8368  8.85804e+20
35.9541  8.78711e+20
36.0714  8.73225e+20
36.1887  8.6795e+20
36.306  8.60554e+20
36.4233  8.48166e+20
36.5406  8.28799e+20
36.6579  8.01869e+20
36.7752  7.686e+20
36.8925  7.31796e+20
37.0098  6.95385e+20
37.1271  6.63247e+20
37.2444  6.38704e+20
37.3617  6.23516e+20
37.479  6.17842e+20
37.5964  6.20304e+20
37.7137  6.2886e+20
37.831  6.41261e+20
37.9483  6.56182e+20
38.0656  6.73212e+20
38.1829  6.93168e+20
38.3002  7.17478e+20
38.4175  7.47636e+20
38.5348  7.83887e+20
38.6521  8.25203e+20
38.7694  8.68595e+20
38.8867  9.09436e+20
39.004  9.42489e+20
39.1213  9.62576e+20
39.2386  9.65703e+20
39.3559  9.50268e+20
39.4732  9.17084e+20
39.5905  8.69439e+20
39.7078  8.12201e+20
39.8251  7.51281e+20
39.9425  6.92043e+20
40.0598  6.38871e+20
40.1771  5.94335e+20
40.2944  5.59022e+20
40.4117  5.32227e+20
40.529  5.12472e+20
40.6463  4.98266e+20
40.7636  4.88563e+20
40.8809  4.83193e+20
40.9982  4.82827e+20
41.1155  4.88355e+20
41.2328  5.00551e+20
41.3501  5.19296e+20
41.4674  5.4335e+20
41.5847  5.70367e+20
41.702  5.97175e+20
41.8193  6.20269e+20
41.9366  6.36832e+20
42.0539  6.45183e+20
42.1712  6.4522e+20
42.2885  6.38312e+20
42.4059  6.27006e+20
42.5232  6.14303e+20
42.6405  6.03083e+20
42.7578  5.95038e+20
42.8751  5.90473e+20
42.9924  5.88363e+20
43.1097  5.86716e+20
43.227  5.82737e+20
43.3443  5.74423e+20
43.4616  5.6054e+20
43.5789  5.41401e+20
43.6962  5.18937e+20
43.8135  4.96189e+20
43.9308  4.76533e+20
44.0481  4.63046e+20
44.1654  4.57744e+20
44.2827  4.60885e+20
44.4  4.70812e+20
44.5173  4.84702e+20
44.6347  4.98679e+20
44.752  5.09114e+20
44.8693  5.13067e+20
44.9866  5.09311e+20
45.1039  4.98148e+20
45.2212  4.81412e+20
45.3385  4.61942e+20
45.4558  4.42499e+20
45.5731  4.25324e+20
45.6904  4.11484e+20
45.8077  4.00611e+20
45.925  3.91454e+20
46.0423  3.82102e+20
46.1596  3.712e+20
46.2769  3.58321e+20
46.3942  3.44587e+20
46.5115  3.32493e+20
46.6288  3.2567e+20
46.7461  3.27599e+20
46.8634  3.41302e+20
46.9808  3.67534e+20
47.0981  4.05184e+20
47.2154  4.50468e+20
47.3327  4.98346e+20
47.45  5.42724e+20
47.5673  5.78162e+20
47.6846  6.01001e+20
47.8019  6.09733e+20
47.9192  6.05273e+20
48.0365  5.90849e+20
48.1538  5.70445e+20
48.2711  5.48134e+20
48.3884  5.27049e+20
48.5057  5.08652e+20
48.623  4.92437e+20
48.7403  4.76826e+20
48.8576  4.59742e+20
48.9749  4.39648e+20
49.0922  4.16293e+20
49.2095  3.91217e+20
49.3269  3.67519e+20
49.4442  3.49091e+20
49.5615  3.39774e+20
49.6788  3.41939e+20
49.7961  3.5634e+20
49.9134  3.81193e+20
50.0307  4.13069e+20
50.148  4.47341e+20
50.2653  4.79483e+20
50.3826  5.06146e+20
50.4999  5.25812e+20
50.6172  5.39027e+20
50.7345  5.48014e+20
50.8518  5.55671e+20
