#S 1 spectral density
#N 2
#UFWHM 30.2647
#L  abscissas [um]  spectral density
-58.5938  2.90444e+20
-58.4764  2.7741e+20
-58.3591  2.63255e+20
-58.2418  2.51512e+20
-58.1245  2.4531e+20
-58.0072  2.46645e+20
-57.8899  2.55573e+20
-57.7726  2.70415e+20
-57.6553  2.87841e+20
-57.538  3.03728e+20
-57.4207  3.14088e+20
-57.3034  3.16123e+20
-57.1861  3.08842e+20
-57.0688  2.93472e+20
-56.9515  2.73103e+20
-56.8342  2.52008e+20
-56.7169  2.34786e+20
-56.5996  2.25005e+20
-56.4823  2.24701e+20
-56.365  2.33539e+20
-56.2477  2.49207e+20
-56.1303  2.68017e+20
-56.013  2.85597e+20
-55.8957  2.98165e+20
-55.7784  3.03501e+20
-55.6611  3.01265e+20
-55.5438  2.93089e+20
-55.4265  2.82058e+20
-55.3092  2.71671e+20
-55.1919  2.64984e+20
-55.0746  2.63577e+20
-54.9573  2.67222e+20
-54.84  2.74014e+20
-54.7227  2.80717e+20
-54.6054  2.84032e+20
-54.4881  2.8141e+20
-54.3708  2.71834e+20
-54.2535  2.5642e+20
-54.1362  2.37918e+20
-54.0189  2.2007e+20
-53.9016  2.06656e+20
-53.7842  2.00269e+20
-53.6669  2.01709e+20
-53.5496  2.09631e+20
-53.4323  2.20915e+20
-53.315  2.31635e+20
-53.1977  2.38137e+20
-53.0804  2.38207e+20
-52.9631  2.31617e+20
-52.8458  2.20216e+20
-52.7285  2.07718e+20
-52.6112  1.98177e+20
-52.4939  1.95083e+20
-52.3766  2.00134e+20
-52.2593  2.12663e+20
-52.142  2.2954e+20
-52.0247  2.46245e+20
-51.9074  2.57791e+20
-51.7901  2.60269e+20
-51.6728  2.52097e+20
-51.5555  2.34357e+20
-51.4381  2.10782e+20
-51.3208  1.86847e+20
-51.2035  1.68168e+20
-51.0862  1.5941e+20
-50.9689  1.62703e+20
-50.8516  1.77318e+20
-50.7343  1.99696e+20
-50.617  2.24738e+20
-50.4997  2.46779e+20
-50.3824  2.61366e+20
-50.2651  2.66265e+20
-50.1478  2.62006e+20
-50.0305  2.51525e+20
-49.9132  2.39314e+20
-49.7959  2.30079e+20
-49.6786  2.27404e+20
-49.5613  2.32833e+20
-49.444  2.45653e+20
-49.3267  2.63071e+20
-49.2094  2.81354e+20
-49.092  2.96854e+20
-48.9747  3.07215e+20
-48.8574  3.11972e+20
-48.7401  3.12451e+20
-48.6228  3.11466e+20
-48.5055  3.12012e+20
-48.3882  3.16325e+20
-48.2709  3.24981e+20
-48.1536  3.36407e+20
-48.0363  3.47429e+20
-47.919  3.53944e+20
-47.8017  3.52155e+20
-47.6844  3.39939e+20
-47.5671  3.17449e+20
-47.4498  2.87269e+20
-47.3325  2.54302e+20
-47.2152  2.24144e+20
-47.0979  2.02143e+20
-46.9806  1.91718e+20
-46.8633  1.9386e+20
-46.7459  2.06679e+20
-46.6286  2.25867e+20
-46.5113  2.45883e+20
-46.394  2.61309e+20
-46.2767  2.68143e+20
-46.1594  2.64704e+20
-46.0421  2.51922e+20
-45.9248  2.32923e+20
-45.8075  2.12091e+20
-45.6902  1.93817e+20
-45.5729  1.81414e+20
-45.4556  1.76312e+20
-45.3383  1.7767e+20
-45.221  1.82992e+20
-45.1037  1.88811e+20
-44.9864  1.91698e+20
-44.8691  1.89542e+20
-44.7518  1.81885e+20
-44.6345  1.70145e+20
-44.5172  1.57301e+20
-44.3998  1.46913e+20
-44.2825  1.42245e+20
-44.1652  1.45222e+20
-44.0479  1.55905e+20
-43.9306  1.72509e+20
-43.8133  1.91673e+20
-43.696  2.09418e+20
-43.5787  2.22239e+20
-43.4614  2.2773e+20
-43.3441  2.2553e+20
-43.2268  2.1712e+20
-43.1095  2.05669e+20
-42.9922  1.95142e+20
-42.8749  1.89193e+20
-42.7576  1.90512e+20
-42.6403  2.0006e+20
-42.523  2.16832e+20
-42.4057  2.38388e+20
-42.2884  2.61448e+20
-42.171  2.82685e+20
-42.0537  2.99768e+20
-41.9364  3.11648e+20
-41.8191  3.18884e+20
-41.7018  3.23203e+20
-41.5845  3.26891e+20
-41.4672  3.32021e+20
-41.3499  3.3962e+20
-41.2326  3.49566e+20
-41.1153  3.60079e+20
-40.998  3.68923e+20
-40.8807  3.7364e+20
-40.7634  3.72678e+20
-40.6461  3.66017e+20
-40.5288  3.55624e+20
-40.4115  3.44974e+20
-40.2942  3.38541e+20
-40.1769  3.40858e+20
-40.0596  3.55008e+20
-39.9423  3.81899e+20
-39.825  4.20064e+20
-39.7076  4.65602e+20
-39.5903  5.12861e+20
-39.473  5.55785e+20
-39.3557  5.89123e+20
-39.2384  6.09699e+20
-39.1211  6.16713e+20
-39.0038  6.12008e+20
-38.8865  5.99439e+20
-38.7692  5.83468e+20
-38.6519  5.68488e+20
-38.5346  5.57419e+20
-38.4173  5.51232e+20
-38.3  5.48961e+20
-38.1827  5.48403e+20
-38.0654  5.46712e+20
-37.9481  5.41914e+20
-37.8308  5.32929e+20
-37.7135  5.20844e+20
-37.5962  5.07561e+20
-37.4789  4.96088e+20
-37.3615  4.88967e+20
-37.2442  4.87412e+20
-37.1269  4.90674e+20
-37.0096  4.96301e+20
-36.8923  5.00443e+20
-36.775  4.98908e+20
-36.6577  4.88463e+20
-36.5404  4.68036e+20
-36.4231  4.38854e+20
-36.3058  4.04875e+20
-36.1885  3.71645e+20
-36.0712  3.45236e+20
-35.9539  3.30695e+20
-35.8366  3.30759e+20
-35.7193  3.45247e+20
-35.602  3.70968e+20
-35.4847  4.0254e+20
-35.3674  4.33651e+20
-35.2501  4.58344e+20
-35.1328  4.72741e+20
-35.0154  4.75293e+20
-34.8981  4.67256e+20
-34.7808  4.51852e+20
-34.6635  4.33079e+20
-34.5462  4.14878e+20
-34.4289  3.99542e+20
-34.3116  3.87696e+20
-34.1943  3.78273e+20
-34.077  3.6916e+20
-33.9597  3.58409e+20
-33.8424  3.45261e+20
-33.7251  3.30947e+20
-33.6078  3.18763e+20
-33.4905  3.13373e+20
-33.3732  3.20117e+20
-33.2559  3.43234e+20
-33.1386  3.84534e+20
-33.0213  4.43028e+20
-32.904  5.14457e+20
-32.7867  5.91832e+20
-32.6693  6.67444e+20
-32.552  7.3343e+20
-32.4347  7.84483e+20
-32.3174  8.17919e+20
-32.2001  8.34529e+20
-32.0828  8.38215e+20
-31.9655  8.34855e+20
-31.8482  8.30562e+20
-31.7309  8.30514e+20
-31.6136  8.38035e+20
-31.4963  8.53887e+20
-31.379  8.7673e+20
-31.2617  9.03408e+20
-31.1444  9.30801e+20
-31.0271  9.55899e+20
-30.9098  9.76912e+20
-30.7925  9.93718e+20
-30.6752  1.00706e+21
-30.5579  1.01804e+21
-30.4406  1.02777e+21
-30.3232  1.03631e+21
-30.2059  1.04312e+21
-30.0886  1.04636e+21
-29.9713  1.04477e+21
-29.854  1.03791e+21
-29.7367  1.02701e+21
-29.6194  1.01544e+21
-29.5021  1.00885e+21
-29.3848  1.01386e+21
-29.2675  1.03723e+21
-29.1502  1.08418e+21
-29.0329  1.15735e+21
-28.9156  1.25509e+21
-28.7983  1.37271e+21
-28.681  1.50178e+21
-28.5637  1.63226e+21
-28.4464  1.75341e+21
-28.3291  1.85671e+21
-28.2118  1.93562e+21
-28.0944  1.98759e+21
-27.9771  2.01364e+21
-27.8598  2.0175e+21
-27.7425  2.0047e+21
-27.6252  1.98104e+21
-27.5079  1.9524e+21
-27.3906  1.923e+21
-27.2733  1.89575e+21
-27.156  1.87302e+21
-27.0387  1.85626e+21
-26.9214  1.84763e+21
-26.8041  1.84976e+21
-26.6868  1.86571e+21
-26.5695  1.89902e+21
-26.4522  1.95211e+21
-26.3349  2.02618e+21
-26.2176  2.11999e+21
-26.1003  2.22977e+21
-25.983  2.34949e+21
-25.8657  2.47139e+21
-25.7483  2.58776e+21
-25.631  2.69228e+21
-25.5137  2.78063e+21
-25.3964  2.85226e+21
-25.2791  2.90949e+21
-25.1618  2.95792e+21
-25.0445  3.00435e+21
-24.9272  3.05639e+21
-24.8099  3.12036e+21
-24.6926  3.20088e+21
-24.5753  3.29984e+21
-24.458  3.41723e+21
-24.3407  3.55163e+21
-24.2234  3.70108e+21
-24.1061  3.86351e+21
-23.9888  4.03848e+21
-23.8715  4.22632e+21
-23.7542  4.42843e+21
-23.6369  4.64678e+21
-23.5196  4.88272e+21
-23.4023  5.13694e+21
-23.2849  5.40968e+21
-23.1676  5.69937e+21
-23.0503  6.00567e+21
-22.933  6.32861e+21
-22.8157  6.67035e+21
-22.6984  7.03461e+21
-22.5811  7.4282e+21
-22.4638  7.8585e+21
-22.3465  8.33341e+21
-22.2292  8.85882e+21
-22.1119  9.43793e+21
-21.9946  1.00688e+22
-21.8773  1.07458e+22
-21.76  1.14583e+22
-21.6427  1.21925e+22
-21.5254  1.29341e+22
-21.4081  1.36692e+22
-21.2908  1.43872e+22
-21.1735  1.50804e+22
-21.0561  1.57469e+22
-20.9388  1.63879e+22
-20.8215  1.70089e+22
-20.7042  1.76165e+22
-20.5869  1.82181e+22
-20.4696  1.88215e+22
-20.3523  1.94328e+22
-20.235  2.00571e+22
-20.1177  2.06985e+22
-20.0004  2.13613e+22
-19.8831  2.20479e+22
-19.7658  2.27606e+22
-19.6485  2.35013e+22
-19.5312  2.42684e+22
-19.4139  2.5059e+22
-19.2966  2.5867e+22
-19.1793  2.66828e+22
-19.062  2.74946e+22
-18.9447  2.82904e+22
-18.8274  2.90587e+22
-18.71  2.97896e+22
-18.5927  3.04781e+22
-18.4754  3.1123e+22
-18.3581  3.17272e+22
-18.2408  3.2297e+22
-18.1235  3.28403e+22
-18.0062  3.3365e+22
-17.8889  3.38768e+22
-17.7716  3.43793e+22
-17.6543  3.48729e+22
-17.537  3.53558e+22
-17.4197  3.58251e+22
-17.3024  3.62785e+22
-17.1851  3.67146e+22
-17.0678  3.71345e+22
-16.9505  3.75416e+22
-16.8332  3.79414e+22
-16.7159  3.83389e+22
-16.5986  3.87392e+22
-16.4813  3.91454e+22
-16.364  3.95589e+22
-16.2466  3.9979e+22
-16.1293  4.04035e+22
-16.012  4.0831e+22
-15.8947  4.12604e+22
-15.7774  4.16931e+22
-15.6601  4.21323e+22
-15.5428  4.25825e+22
-15.4255  4.30486e+22
-15.3082  4.35349e+22
-15.1909  4.40426e+22
-15.0736  4.45704e+22
-14.9563  4.51133e+22
-14.839  4.56636e+22
-14.7217  4.62127e+22
-14.6044  4.67515e+22
-14.4871  4.7273e+22
-14.3698  4.77724e+22
-14.2525  4.82497e+22
-14.1352  4.87062e+22
-14.0178  4.91466e+22
-13.9005  4.95764e+22
-13.7832  5.00013e+22
-13.6659  5.04256e+22
-13.5486  5.08532e+22
-13.4313  5.1287e+22
-13.314  5.17293e+22
-13.1967  5.21831e+22
-13.0794  5.26518e+22
-12.9621  5.31406e+22
-12.8448  5.36538e+22
-12.7275  5.41962e+22
-12.6102  5.47696e+22
-12.4929  5.53742e+22
-12.3756  5.60051e+22
-12.2583  5.66549e+22
-12.141  5.73128e+22
-12.0237  5.79668e+22
-11.9064  5.86051e+22
-11.7891  5.92181e+22
-11.6718  5.98e+22
-11.5544  6.03488e+22
-11.4371  6.08661e+22
-11.3198  6.13575e+22
-11.2025  6.18295e+22
-11.0852  6.22891e+22
-10.9679  6.27416e+22
-10.8506  6.31904e+22
-10.7333  6.36362e+22
-10.616  6.40787e+22
-10.4987  6.45157e+22
-10.3814  6.49451e+22
-10.2641  6.53665e+22
-10.1468  6.57796e+22
-10.0295  6.61865e+22
-9.91217  6.65895e+22
-9.79487  6.6991e+22
-9.67756  6.73927e+22
-9.56026  6.77955e+22
-9.44295  6.81987e+22
-9.32565  6.86005e+22
-9.20834  6.89991e+22
-9.09104  6.93932e+22
-8.97373  6.97826e+22
-8.85643  7.0169e+22
-8.73913  7.05549e+22
-8.62182  7.09444e+22
-8.50452  7.13409e+22
-8.38721  7.17463e+22
-8.26991  7.21606e+22
-8.1526  7.25809e+22
-8.03529  7.3002e+22
-7.91799  7.3417e+22
-7.80069  7.38184e+22
-7.68338  7.41998e+22
-7.56608  7.45565e+22
-7.44877  7.48873e+22
-7.33146  7.51933e+22
-7.21416  7.54786e+22
-7.09685  7.5748e+22
-6.97955  7.60074e+22
-6.86224  7.62613e+22
-6.74494  7.65127e+22
-6.62763  7.67625e+22
-6.51033  7.70103e+22
-6.39302  7.7255e+22
-6.27572  7.74963e+22
-6.15842  7.77343e+22
-6.04111  7.79713e+22
-5.92381  7.82112e+22
-5.8065  7.84587e+22
-5.68919  7.87185e+22
-5.57189  7.8994e+22
-5.45458  7.92864e+22
-5.33728  7.95946e+22
-5.21997  7.99143e+22
-5.10267  8.02401e+22
-4.98536  8.05653e+22
-4.86806  8.08846e+22
-4.75075  8.11938e+22
-4.63345  8.14915e+22
-4.51614  8.17782e+22
-4.39884  8.20569e+22
-4.28154  8.23298e+22
-4.16423  8.25997e+22
-4.04692  8.28673e+22
-3.92962  8.31314e+22
-3.81231  8.33884e+22
-3.69501  8.36343e+22
-3.5777  8.38648e+22
-3.4604  8.40766e+22
-3.34309  8.42689e+22
-3.22579  8.44432e+22
-3.10849  8.46037e+22
-2.99118  8.47548e+22
-2.87387  8.4903e+22
-2.75657  8.50524e+22
-2.63926  8.52056e+22
-2.52196  8.53628e+22
-2.40465  8.55224e+22
-2.28735  8.56813e+22
-2.17005  8.58366e+22
-2.05274  8.59857e+22
-1.93544  8.61287e+22
-1.81813  8.6267e+22
-1.70083  8.64038e+22
-1.58352  8.65425e+22
-1.46622  8.6686e+22
-1.34891  8.68349e+22
-1.2316  8.69879e+22
-1.1143  8.71405e+22
-0.996995  8.7287e+22
-0.87969  8.74209e+22
-0.762385  8.75366e+22
-0.64508  8.76301e+22
-0.527775  8.77005e+22
-0.41047  8.77493e+22
-0.293165  8.778e+22
-0.17586  8.77967e+22
-0.058555  8.78029e+22
0.05875  8.78007e+22
0.176055  8.77891e+22
0.29336  8.77657e+22
0.410665  8.77262e+22
0.52797  8.7667e+22
0.645275  8.75846e+22
0.76258  8.74789e+22
0.879885  8.73521e+22
0.99719  8.72088e+22
1.1145  8.70552e+22
1.2318  8.68982e+22
1.3491  8.67429e+22
1.46641  8.65927e+22
1.58371  8.64481e+22
1.70102  8.63074e+22
1.81832  8.61672e+22
1.93563  8.60239e+22
2.05294  8.58748e+22
2.17024  8.57188e+22
2.28754  8.55571e+22
2.40485  8.53925e+22
2.52216  8.52283e+22
2.63946  8.50672e+22
2.75677  8.49106e+22
2.87407  8.47576e+22
2.99137  8.46047e+22
3.10868  8.4447e+22
3.22599  8.42789e+22
3.34329  8.40956e+22
3.4606  8.38937e+22
3.5779  8.36728e+22
3.69521  8.34346e+22
3.81251  8.31828e+22
3.92982  8.29216e+22
4.04712  8.2655e+22
4.16443  8.23851e+22
4.28173  8.21123e+22
4.39903  8.1835e+22
4.51634  8.15503e+22
4.63364  8.12552e+22
4.75095  8.0948e+22
4.86825  8.06288e+22
4.98556  8.03008e+22
5.10286  7.99686e+22
5.22017  7.96385e+22
5.33748  7.93171e+22
5.45478  7.90097e+22
5.57209  7.8719e+22
5.68939  7.84456e+22
5.8067  7.81871e+22
5.924  7.79391e+22
6.0413  7.76971e+22
6.15861  7.74564e+22
6.27591  7.72137e+22
6.39322  7.69675e+22
6.51052  7.67182e+22
6.62783  7.64667e+22
6.74514  7.6214e+22
6.86244  7.59601e+22
6.97975  7.57033e+22
7.09705  7.54394e+22
7.21436  7.51638e+22
7.33166  7.48704e+22
7.44897  7.45544e+22
7.56627  7.42129e+22
7.68358  7.38454e+22
7.80088  7.34549e+22
7.91819  7.30468e+22
8.03549  7.2628e+22
8.1528  7.2206e+22
8.2701  7.17868e+22
8.38741  7.1375e+22
8.50471  7.09718e+22
8.62202  7.0577e+22
8.73932  7.01873e+22
8.85662  6.97993e+22
8.97393  6.94099e+22
9.09123  6.90168e+22
9.20854  6.8619e+22
9.32584  6.82172e+22
9.44315  6.78133e+22
9.56045  6.74088e+22
9.67776  6.70051e+22
9.79506  6.66019e+22
9.91237  6.61985e+22
10.0297  6.57923e+22
10.147  6.53811e+22
10.2643  6.49629e+22
10.3816  6.4537e+22
10.4989  6.41033e+22
10.6162  6.3664e+22
10.7335  6.32205e+22
10.8508  6.27746e+22
10.9681  6.23261e+22
11.0854  6.18728e+22
11.2027  6.14105e+22
11.32  6.0932e+22
11.4373  6.0431e+22
11.5546  5.99006e+22
11.6719  5.93372e+22
11.7893  5.87401e+22
11.9066  5.8113e+22
12.0239  5.74639e+22
12.1412  5.68033e+22
12.2585  5.61436e+22
12.3758  5.54969e+22
12.4931  5.48727e+22
12.6104  5.42777e+22
12.7277  5.37149e+22
12.845  5.31833e+22
12.9623  5.26799e+22
13.0796  5.21999e+22
13.1969  5.17385e+22
13.3142  5.12908e+22
13.4315  5.08534e+22
13.5488  5.04234e+22
13.6661  4.99982e+22
13.7834  4.95745e+22
13.9007  4.91483e+22
14.018  4.87145e+22
14.1354  4.82679e+22
14.2527  4.78035e+22
14.37  4.73177e+22
14.4873  4.68102e+22
14.6046  4.62831e+22
14.7219  4.5742e+22
14.8392  4.51947e+22
14.9565  4.46501e+22
15.0738  4.41166e+22
15.1911  4.36004e+22
15.3084  4.31047e+22
15.4257  4.26295e+22
15.543  4.21719e+22
15.6603  4.17266e+22
15.7776  4.12891e+22
15.8949  4.08548e+22
16.0122  4.04215e+22
16.1295  3.9989e+22
16.2468  3.9559e+22
16.3641  3.91339e+22
16.4815  3.87154e+22
16.5988  3.83041e+22
16.7161  3.78987e+22
16.8334  3.74954e+22
16.9507  3.70891e+22
17.068  3.6674e+22
17.1853  3.62458e+22
17.3026  3.58018e+22
17.4199  3.53413e+22
17.5372  3.48655e+22
17.6545  3.43773e+22
17.7718  3.38788e+22
17.8891  3.33706e+22
18.0064  3.2851e+22
18.1237  3.23154e+22
18.241  3.17571e+22
18.3583  3.11682e+22
18.4756  3.05417e+22
18.5929  2.98722e+22
18.7102  2.91592e+22
18.8275  2.84054e+22
18.9449  2.76185e+22
19.0622  2.6809e+22
19.1795  2.59895e+22
19.2968  2.51723e+22
19.4141  2.43677e+22
19.5314  2.35842e+22
19.6487  2.28262e+22
19.766  2.20965e+22
19.8833  2.1394e+22
20.0006  2.07175e+22
20.1179  2.0064e+22
20.2352  1.94303e+22
20.3525  1.88125e+22
20.4698  1.82067e+22
20.5871  1.76071e+22
20.7044  1.70067e+22
20.8217  1.63989e+22
20.939  1.5776e+22
21.0563  1.51318e+22
21.1736  1.44624e+22
21.291  1.37678e+22
21.4083  1.30524e+22
21.5256  1.23243e+22
21.6429  1.15962e+22
21.7602  1.08822e+22
21.8775  1.01963e+22
21.9948  9.55069e+21
22.1121  8.95447e+21
22.2294  8.41099e+21
22.3467  7.91964e+21
22.464  7.47582e+21
22.5813  7.07231e+21
22.6986  6.70141e+21
22.8159  6.35532e+21
22.9332  6.02908e+21
23.0505  5.71965e+21
23.1678  5.42603e+21
23.2851  5.14906e+21
23.4024  4.88961e+21
23.5198  4.64908e+21
23.6371  4.42714e+21
23.7544  4.22255e+21
23.8717  4.03391e+21
23.989  3.8594e+21
24.1063  3.69782e+21
24.2236  3.54891e+21
24.3409  3.41413e+21
24.4582  3.29507e+21
24.5755  3.19324e+21
24.6928  3.10986e+21
24.8101  3.04349e+21
24.9274  2.9909e+21
25.0447  2.94637e+21
25.162  2.90308e+21
25.2793  2.85345e+21
25.3966  2.79102e+21
25.5139  2.71186e+21
25.6312  2.61497e+21
25.7485  2.50308e+21
25.8658  2.38172e+21
25.9832  2.25815e+21
26.1005  2.14082e+21
26.2178  2.03678e+21
26.3351  1.95118e+21
26.4524  1.88683e+21
26.5697  1.8436e+21
26.687  1.81975e+21
26.8043  1.81175e+21
26.9216  1.81624e+21
27.0389  1.83011e+21
27.1562  1.85081e+21
27.2735  1.87648e+21
27.3908  1.90505e+21
27.5081  1.93424e+21
27.6254  1.96048e+21
27.7427  1.97903e+21
27.86  1.98434e+21
27.9773  1.97056e+21
28.0946  1.93322e+21
28.212  1.86977e+21
28.3293  1.78104e+21
28.4466  1.67119e+21
28.5639  1.54801e+21
28.6812  1.42068e+21
28.7985  1.29957e+21
28.9158  1.19387e+21
29.0331  1.11022e+21
29.1504  1.05195e+21
29.2677  1.01841e+21
29.385  1.00568e+21
29.5023  1.00789e+21
29.6196  1.0181e+21
29.7369  1.03024e+21
29.8542  1.03963e+21
29.9715  1.0441e+21
30.0888  1.04314e+21
30.2061  1.038e+21
30.3234  1.03023e+21
30.4407  1.02123e+21
30.558  1.01132e+21
30.6754  1.00005e+21
30.7927  9.86417e+20
30.91  9.68945e+20
31.0273  9.47437e+20
31.1446  9.22488e+20
31.2619  8.9643e+20
31.3792  8.72078e+20
31.4965  8.52766e+20
31.6138  8.40914e+20
31.7311  8.36932e+20
31.8484  8.39024e+20
31.9657  8.43194e+20
32.083  8.4372e+20
32.2003  8.34365e+20
32.3176  8.10429e+20
32.4349  7.6901e+20
32.5522  7.10617e+20
32.6695  6.39141e+20
32.7868  5.61137e+20
32.9042  4.84387e+20
33.0215  4.16739e+20
33.1388  3.63946e+20
33.2561  3.29222e+20
33.3734  3.12492e+20
33.4907  3.10756e+20
33.608  3.19183e+20
33.7253  3.3268e+20
33.8426  3.46787e+20
33.9599  3.59013e+20
34.0772  3.68938e+20
34.1945  3.77731e+20
34.3118  3.87594e+20
34.4291  4.00339e+20
34.5464  4.16537e+20
34.6637  4.34919e+20
34.781  4.52462e+20
34.8983  4.65228e+20
35.0156  4.69283e+20
35.1329  4.6221e+20
35.2503  4.43689e+20
35.3676  4.16229e+20
35.4849  3.84707e+20
35.6022  3.55256e+20
35.7195  3.34013e+20
35.8368  3.25757e+20
35.9541  3.3245e+20
36.0714  3.53074e+20
36.1887  3.83731e+20
36.306  4.18763e+20
36.4233  4.52015e+20
36.5406  4.78326e+20
36.6579  4.94718e+20
36.7752  5.00689e+20
36.8925  4.98585e+20
37.0098  4.92196e+20
37.1271  4.85911e+20
37.2444  4.83268e+20
37.3617  4.86351e+20
37.479  4.95002e+20
37.5964  5.07592e+20
37.7137  5.21119e+20
37.831  5.32913e+20
37.9483  5.41216e+20
38.0656  5.45615e+20
38.1829  5.47528e+20
38.3002  5.4939e+20
38.4175  5.5379e+20
38.5348  5.62565e+20
38.6521  5.7581e+20
38.7694  5.91724e+20
38.8867  6.06584e+20
39.004  6.15917e+20
39.1213  6.15297e+20
39.2386  6.01646e+20
39.3559  5.74375e+20
39.4732  5.35557e+20
39.5905  4.89491e+20
39.7078  4.4206e+20
39.8251  3.99418e+20
39.9425  3.66614e+20
40.0598  3.46473e+20
40.1771  3.39377e+20
40.2944  3.4284e+20
40.4117  3.52872e+20
40.529  3.64675e+20
40.6463  3.73959e+20
40.7636  3.77809e+20
40.8809  3.75282e+20
40.9982  3.67422e+20
41.1155  3.56451e+20
41.2328  3.45191e+20
41.3501  3.35738e+20
41.4674  3.29325e+20
41.5847  3.25392e+20
41.702  3.22401e+20
41.8193  3.17795e+20
41.9366  3.0936e+20
42.0539  2.9568e+20
42.1712  2.76985e+20
42.2885  2.54827e+20
42.4059  2.32147e+20
42.5232  2.12351e+20
42.6405  1.98572e+20
42.7578  1.92583e+20
42.8751  1.94393e+20
42.9924  2.02217e+20
43.1097  2.12907e+20
43.227  2.22474e+20
43.3443  2.27353e+20
43.4616  2.25273e+20
43.5789  2.1551e+20
43.6962  1.99575e+20
43.8135  1.805e+20
43.9308  1.62094e+20
44.0481  1.48038e+20
44.1654  1.40994e+20
44.2827  1.41807e+20
44.4  1.49415e+20
44.5173  1.61288e+20
44.6347  1.73885e+20
44.752  1.83927e+20
44.8693  1.89124e+20
44.9866  1.88887e+20
45.1039  1.84474e+20
45.2212  1.7864e+20
45.3385  1.74833e+20
45.4558  1.76084e+20
45.5731  1.84167e+20
45.6904  1.98927e+20
45.8077  2.1815e+20
45.925  2.38052e+20
46.0423  2.54269e+20
46.1596  2.62966e+20
46.2769  2.61862e+20
46.3942  2.51152e+20
46.5115  2.33523e+20
46.6288  2.13484e+20
46.7461  1.96503e+20
46.8634  1.87657e+20
46.9808  1.90345e+20
47.0981  2.05346e+20
47.2154  2.30794e+20
47.3327  2.62503e+20
47.45  2.95036e+20
47.5673  3.22965e+20
47.6846  3.42321e+20
47.8019  3.51308e+20
47.9192  3.50497e+20
48.0365  3.4276e+20
48.1538  3.31894e+20
48.2711  3.21607e+20
48.3884  3.14572e+20
48.5057  3.11655e+20
48.623  3.11637e+20
48.7403  3.12098e+20
48.8576  3.10211e+20
48.9749  3.03588e+20
49.0922  2.91583e+20
49.2095  2.75303e+20
49.3269  2.57674e+20
49.4442  2.42259e+20
49.5615  2.32437e+20
49.6788  2.30273e+20
49.7961  2.35638e+20
49.9134  2.46142e+20
50.0307  2.57715e+20
50.148  2.65613e+20
50.2653  2.65894e+20
50.3826  2.56444e+20
50.4999  2.37921e+20
50.6172  2.1347e+20
50.7345  1.88241e+20
50.8518  1.679e+20
