#S 1 spectral density
#N 2
#UFWHM 5.51334
#L  abscissas [um]  spectral density
-58.5938  1.18054e+21
-58.4764  1.15004e+21
-58.3591  1.11403e+21
-58.2418  1.08268e+21
-58.1245  1.06137e+21
-58.0072  1.05104e+21
-57.8899  1.04965e+21
-57.7726  1.05483e+21
-57.6553  1.06582e+21
-57.538  1.08464e+21
-57.4207  1.11615e+21
-57.3034  1.16495e+21
-57.1861  1.23325e+21
-57.0688  1.3181e+21
-56.9515  1.41127e+21
-56.8342  1.50012e+21
-56.7169  1.57107e+21
-56.5996  1.61381e+21
-56.4823  1.62473e+21
-56.365  1.60935e+21
-56.2477  1.58102e+21
-56.1303  1.55769e+21
-56.013  1.55704e+21
-55.8957  1.59046e+21
-55.7784  1.65894e+21
-55.6611  1.75218e+21
-55.5438  1.85144e+21
-55.4265  1.93323e+21
-55.3092  1.97726e+21
-55.1919  1.97149e+21
-55.0746  1.91711e+21
-54.9573  1.8269e+21
-54.84  1.72306e+21
-54.7227  1.63006e+21
-54.6054  1.56826e+21
-54.4881  1.5478e+21
-54.3708  1.56608e+21
-54.2535  1.60975e+21
-54.1362  1.65783e+21
-54.0189  1.68887e+21
-53.9016  1.68713e+21
-53.7842  1.64604e+21
-53.6669  1.56967e+21
-53.5496  1.47042e+21
-53.4323  1.36508e+21
-53.315  1.26929e+21
-53.1977  1.19421e+21
-53.0804  1.14462e+21
-52.9631  1.11907e+21
-52.8458  1.11234e+21
-52.7285  1.11903e+21
-52.6112  1.13459e+21
-52.4939  1.15701e+21
-52.3766  1.1852e+21
-52.2593  1.21763e+21
-52.142  1.25087e+21
-52.0247  1.27824e+21
-51.9074  1.29244e+21
-51.7901  1.28733e+21
-51.6728  1.26191e+21
-51.5555  1.22268e+21
-51.4381  1.1829e+21
-51.3208  1.16168e+21
-51.2035  1.17739e+21
-51.0862  1.24268e+21
-50.9689  1.35932e+21
-50.8516  1.51604e+21
-50.7343  1.68949e+21
-50.617  1.85072e+21
-50.4997  1.97195e+21
-50.3824  2.0346e+21
-50.2651  2.03535e+21
-50.1478  1.98657e+21
-50.0305  1.91377e+21
-49.9132  1.84835e+21
-49.7959  1.81815e+21
-49.6786  1.83972e+21
-49.5613  1.91331e+21
-49.444  2.02264e+21
-49.3267  2.13992e+21
-49.2094  2.2336e+21
-49.092  2.27727e+21
-48.9747  2.25709e+21
-48.8574  2.17528e+21
-48.7401  2.04912e+21
-48.6228  1.90527e+21
-48.5055  1.77246e+21
-48.3882  1.67339e+21
-48.2709  1.61858e+21
-48.1536  1.60511e+21
-48.0363  1.61854e+21
-47.919  1.63769e+21
-47.8017  1.64172e+21
-47.6844  1.61661e+21
-47.5671  1.55828e+21
-47.4498  1.47347e+21
-47.3325  1.37686e+21
-47.2152  1.28601e+21
-47.0979  1.21672e+21
-46.9806  1.17795e+21
-46.8633  1.17035e+21
-46.7459  1.18636e+21
-46.6286  1.21426e+21
-46.5113  1.2412e+21
-46.394  1.2574e+21
-46.2767  1.25901e+21
-46.1594  1.24772e+21
-46.0421  1.22914e+21
-45.9248  1.21067e+21
-45.8075  1.19754e+21
-45.6902  1.19121e+21
-45.5729  1.18932e+21
-45.4556  1.18673e+21
-45.3383  1.1787e+21
-45.221  1.16362e+21
-45.1037  1.14478e+21
-44.9864  1.13017e+21
-44.8691  1.13055e+21
-44.7518  1.15552e+21
-44.6345  1.20964e+21
-44.5172  1.28902e+21
-44.3998  1.38155e+21
-44.2825  1.46832e+21
-44.1652  1.52918e+21
-44.0479  1.54837e+21
-43.9306  1.52022e+21
-43.8133  1.45145e+21
-43.696  1.36094e+21
-43.5787  1.27505e+21
-43.4614  1.22043e+21
-43.3441  1.21635e+21
-43.2268  1.26837e+21
-43.1095  1.36581e+21
-42.9922  1.48437e+21
-42.8749  1.59175e+21
-42.7576  1.65728e+21
-42.6403  1.65974e+21
-42.523  1.59407e+21
-42.4057  1.47279e+21
-42.2884  1.32259e+21
-42.171  1.17646e+21
-42.0537  1.06507e+21
-41.9364  1.00806e+21
-41.8191  1.00885e+21
-41.7018  1.05467e+21
-41.5845  1.12095e+21
-41.4672  1.17839e+21
-41.3499  1.20169e+21
-41.2326  1.17677e+21
-41.1153  1.10267e+21
-40.998  9.91884e+20
-40.8807  8.65028e+20
-40.7634  7.44732e+20
-40.6461  6.49298e+20
-40.5288  5.88659e+20
-40.4115  5.63259e+20
-40.2942  5.65655e+20
-40.1769  5.84787e+20
-40.0596  6.09699e+20
-39.9423  6.33198e+20
-39.825  6.52388e+20
-39.7076  6.68712e+20
-39.5903  6.8461e+20
-39.473  7.0229e+20
-39.3557  7.21265e+20
-39.2384  7.39123e+20
-39.1211  7.52644e+20
-39.0038  7.59737e+20
-38.8865  7.6238e+20
-38.7692  7.66357e+20
-38.6519  7.80389e+20
-38.5346  8.13953e+20
-38.4173  8.73135e+20
-38.3  9.58174e+20
-38.1827  1.06198e+21
-38.0654  1.17092e+21
-37.9481  1.26813e+21
-37.8308  1.33815e+21
-37.7135  1.37097e+21
-37.5962  1.36586e+21
-37.4789  1.33143e+21
-37.3615  1.28387e+21
-37.2442  1.2432e+21
-37.1269  1.22687e+21
-37.0096  1.24582e+21
-36.8923  1.30126e+21
-36.775  1.38375e+21
-36.6577  1.47625e+21
-36.5404  1.55862e+21
-36.4231  1.61278e+21
-36.3058  1.62753e+21
-36.1885  1.60131e+21
-36.0712  1.54263e+21
-35.9539  1.46741e+21
-35.8366  1.39461e+21
-35.7193  1.34167e+21
-35.602  1.32001e+21
-35.4847  1.33228e+21
-35.3674  1.3722e+21
-35.2501  1.42709e+21
-35.1328  1.48107e+21
-35.0154  1.51979e+21
-34.8981  1.53343e+21
-34.7808  1.51946e+21
-34.6635  1.48207e+21
-34.5462  1.43064e+21
-34.4289  1.3771e+21
-34.3116  1.33134e+21
-34.1943  1.30046e+21
-34.077  1.28623e+21
-33.9597  1.28608e+21
-33.8424  1.29461e+21
-33.7251  1.30612e+21
-33.6078  1.31611e+21
-33.4905  1.32298e+21
-33.3732  1.32728e+21
-33.2559  1.33095e+21
-33.1386  1.33578e+21
-33.0213  1.34238e+21
-32.904  1.34966e+21
-32.7867  1.35589e+21
-32.6693  1.3602e+21
-32.552  1.36427e+21
-32.4347  1.37364e+21
-32.3174  1.39587e+21
-32.2001  1.43985e+21
-32.0828  1.51184e+21
-31.9655  1.61262e+21
-31.8482  1.73562e+21
-31.7309  1.86704e+21
-31.6136  1.98854e+21
-31.4963  2.0816e+21
-31.379  2.13324e+21
-31.2617  2.1399e+21
-31.1444  2.10964e+21
-31.0271  2.06022e+21
-30.9098  2.01472e+21
-30.7925  1.99471e+21
-30.6752  2.01366e+21
-30.5579  2.07228e+21
-30.4406  2.15805e+21
-30.3232  2.24808e+21
-30.2059  2.31434e+21
-30.0886  2.33356e+21
-29.9713  2.29249e+21
-29.854  2.19251e+21
-29.7367  2.04999e+21
-29.6194  1.89018e+21
-29.5021  1.74252e+21
-29.3848  1.62979e+21
-29.2675  1.56434e+21
-29.1502  1.54369e+21
-29.0329  1.55338e+21
-28.9156  1.57055e+21
-28.7983  1.57236e+21
-28.681  1.54259e+21
-28.5637  1.47576e+21
-28.4464  1.37927e+21
-28.3291  1.27014e+21
-28.2118  1.1698e+21
-28.0944  1.09805e+21
-27.9771  1.06721e+21
-27.8598  1.07941e+21
-27.7425  1.12673e+21
-27.6252  1.19368e+21
-27.5079  1.26259e+21
-27.3906  1.31796e+21
-27.2733  1.35055e+21
-27.156  1.35929e+21
-27.0387  1.34971e+21
-26.9214  1.33168e+21
-26.8041  1.31583e+21
-26.6868  1.31029e+21
-26.5695  1.31876e+21
-26.4522  1.34028e+21
-26.3349  1.37027e+21
-26.2176  1.40308e+21
-26.1003  1.43396e+21
-25.983  1.4608e+21
-25.8657  1.4842e+21
-25.7483  1.50665e+21
-25.631  1.53091e+21
-25.5137  1.55762e+21
-25.3964  1.58487e+21
-25.2791  1.60739e+21
-25.1618  1.61862e+21
-25.0445  1.61281e+21
-24.9272  1.58717e+21
-24.8099  1.54466e+21
-24.6926  1.49313e+21
-24.5753  1.44562e+21
-24.458  1.41626e+21
-24.3407  1.41713e+21
-24.2234  1.45364e+21
-24.1061  1.52291e+21
-23.9888  1.61354e+21
-23.8715  1.70649e+21
-23.7542  1.78173e+21
-23.6369  1.82178e+21
-23.5196  1.8168e+21
-23.4023  1.76863e+21
-23.2849  1.6898e+21
-23.1676  1.60098e+21
-23.0503  1.52625e+21
-22.933  1.48504e+21
-22.8157  1.48854e+21
-22.6984  1.53439e+21
-22.5811  1.60878e+21
-22.4638  1.68915e+21
-22.3465  1.74987e+21
-22.2292  1.76986e+21
-22.1119  1.73741e+21
-21.9946  1.65395e+21
-21.8773  1.5331e+21
-21.76  1.39693e+21
-21.6427  1.27014e+21
-21.5254  1.17471e+21
-21.4081  1.12373e+21
-21.2908  1.1197e+21
-21.1735  1.15549e+21
-21.0561  1.21668e+21
-20.9388  1.28662e+21
-20.8215  1.35046e+21
-20.7042  1.39829e+21
-20.5869  1.42733e+21
-20.4696  1.44039e+21
-20.3523  1.44478e+21
-20.235  1.45003e+21
-20.1177  1.46525e+21
-20.0004  1.49806e+21
-19.8831  1.55378e+21
-19.7658  1.63554e+21
-19.6485  1.7436e+21
-19.5312  1.87516e+21
-19.4139  2.02437e+21
-19.2966  2.18195e+21
-19.1793  2.33476e+21
-19.062  2.46847e+21
-18.9447  2.56977e+21
-18.8274  2.62784e+21
-18.71  2.63918e+21
-18.5927  2.60794e+21
-18.4754  2.54574e+21
-18.3581  2.47033e+21
-18.2408  2.39928e+21
-18.1235  2.34769e+21
-18.0062  2.32189e+21
-17.8889  2.31832e+21
-17.7716  2.32389e+21
-17.6543  2.31895e+21
-17.537  2.28277e+21
-17.4197  2.19989e+21
-17.3024  2.06452e+21
-17.1851  1.88262e+21
-17.0678  1.67212e+21
-16.9505  1.45798e+21
-16.8332  1.26711e+21
-16.7159  1.12167e+21
-16.5986  1.03429e+21
-16.4813  1.00539e+21
-16.364  1.02366e+21
-16.2466  1.06975e+21
-16.1293  1.1211e+21
-16.012  1.15784e+21
-15.8947  1.16799e+21
-15.7774  1.1491e+21
-15.6601  1.10899e+21
-15.5428  1.06291e+21
-15.4255  1.02872e+21
-15.3082  1.023e+21
-15.1909  1.05616e+21
-15.0736  1.13059e+21
-14.9563  1.23993e+21
-14.839  1.3709e+21
-14.7217  1.50689e+21
-14.6044  1.6305e+21
-14.4871  1.72824e+21
-14.3698  1.79179e+21
-14.2525  1.8194e+21
-14.1352  1.81377e+21
-14.0178  1.78217e+21
-13.9005  1.73259e+21
-13.7832  1.67292e+21
-13.6659  1.60975e+21
-13.5486  1.54709e+21
-13.4313  1.48828e+21
-13.314  1.43547e+21
-13.1967  1.3905e+21
-13.0794  1.3549e+21
-12.9621  1.32833e+21
-12.8448  1.30839e+21
-12.7275  1.29042e+21
-12.6102  1.26716e+21
-12.4929  1.2305e+21
-12.3756  1.17375e+21
-12.2583  1.09493e+21
-12.141  9.97817e+20
-12.0237  8.93277e+20
-11.9064  7.97617e+20
-11.7891  7.29159e+20
-11.6718  7.03189e+20
-11.5544  7.2771e+20
-11.4371  8.0024e+20
-11.3198  9.07015e+20
-11.2025  1.02615e+21
-11.0852  1.13266e+21
-10.9679  1.20558e+21
-10.8506  1.23359e+21
-10.7333  1.2187e+21
-10.616  1.17693e+21
-10.4987  1.1329e+21
-10.3814  1.11421e+21
-10.2641  1.14352e+21
-10.1468  1.23075e+21
-10.0295  1.371e+21
-9.91217  1.54466e+21
-9.79487  1.72209e+21
-9.67756  1.87214e+21
-9.56026  1.97001e+21
-9.44295  2.00303e+21
-9.32565  1.97499e+21
-9.20834  1.90399e+21
-9.09104  1.81839e+21
-8.97373  1.74898e+21
-8.85643  1.7214e+21
-8.73913  1.75152e+21
-8.62182  1.84192e+21
-8.50452  1.98337e+21
-8.38721  2.15832e+21
-8.26991  2.34631e+21
-8.1526  2.52974e+21
-8.03529  2.69735e+21
-7.91799  2.84545e+21
-7.80069  2.97828e+21
-7.68338  3.10427e+21
-7.56608  3.23383e+21
-7.44877  3.37589e+21
-7.33146  3.5355e+21
-7.21416  3.71314e+21
-7.09685  3.90496e+21
-6.97955  4.10374e+21
-6.86224  4.29963e+21
-6.74494  4.48305e+21
-6.62763  4.64426e+21
-6.51033  4.7763e+21
-6.39302  4.87348e+21
-6.27572  4.93583e+21
-6.15842  4.96629e+21
-6.04111  4.97296e+21
-5.92381  4.96861e+21
-5.8065  4.96823e+21
-5.68919  4.98805e+21
-5.57189  5.04326e+21
-5.45458  5.14332e+21
-5.33728  5.29173e+21
-5.21997  5.48449e+21
-5.10267  5.71042e+21
-4.98536  5.955e+21
-4.86806  6.20393e+21
-4.75075  6.44678e+21
-4.63345  6.6824e+21
-4.51614  6.92062e+21
-4.39884  7.18263e+21
-4.28154  7.49894e+21
-4.16423  7.90437e+21
-4.04692  8.43208e+21
-3.92962  9.10665e+21
-3.81231  9.94047e+21
-3.69501  1.09299e+22
-3.5777  1.20579e+22
-3.4604  1.32956e+22
-3.34309  1.46101e+22
-3.22579  1.59702e+22
-3.10849  1.73547e+22
-2.99118  1.87512e+22
-2.87387  2.01622e+22
-2.75657  2.15964e+22
-2.63926  2.30662e+22
-2.52196  2.45807e+22
-2.40465  2.61378e+22
-2.28735  2.7724e+22
-2.17005  2.93129e+22
-2.05274  3.0869e+22
-1.93544  3.23527e+22
-1.81813  3.37308e+22
-1.70083  3.49775e+22
-1.58352  3.60802e+22
-1.46622  3.70398e+22
-1.34891  3.78676e+22
-1.2316  3.85816e+22
-1.1143  3.91985e+22
-0.996995  3.97344e+22
-0.87969  4.01993e+22
-0.762385  4.05979e+22
-0.64508  4.09329e+22
-0.527775  4.12046e+22
-0.41047  4.14154e+22
-0.293165  4.15683e+22
-0.17586  4.16681e+22
-0.058555  4.1719e+22
0.05875  4.1724e+22
0.176055  4.16818e+22
0.29336  4.15904e+22
0.410665  4.14443e+22
0.52797  4.12394e+22
0.645275  4.09725e+22
0.76258  4.0643e+22
0.879885  4.02497e+22
0.99719  3.97917e+22
1.1145  3.92634e+22
1.2318  3.86541e+22
1.3491  3.79485e+22
1.46641  3.71277e+22
1.58371  3.61728e+22
1.70102  3.50729e+22
1.81832  3.38278e+22
1.93563  3.24486e+22
2.05294  3.09638e+22
2.17024  2.94073e+22
2.28754  2.7819e+22
2.40485  2.62347e+22
2.52216  2.46807e+22
2.63946  2.31702e+22
2.75677  2.17025e+22
2.87407  2.027e+22
2.99137  1.88579e+22
3.10868  1.74571e+22
3.22599  1.60671e+22
3.34329  1.47001e+22
3.4606  1.33783e+22
3.5779  1.21343e+22
3.69521  1.1002e+22
3.81251  1.00094e+22
3.92982  9.1747e+21
4.04712  8.49961e+21
4.16443  7.97098e+21
4.28173  7.5629e+21
4.39903  7.24148e+21
4.51634  6.97174e+21
4.63364  6.72338e+21
4.75095  6.47654e+21
4.86825  6.22227e+21
4.98556  5.96325e+21
5.10286  5.71141e+21
5.22017  5.48148e+21
5.33748  5.28811e+21
5.45478  5.14184e+21
5.57209  5.04565e+21
5.68939  4.99487e+21
5.8067  4.97796e+21
5.924  4.97965e+21
6.0413  4.9831e+21
6.15861  4.97266e+21
6.27591  4.93727e+21
6.39322  4.86918e+21
6.51052  4.76635e+21
6.62783  4.63075e+21
6.74514  4.46763e+21
6.86244  4.28464e+21
6.97975  4.09094e+21
7.09705  3.89573e+21
7.21436  3.70769e+21
7.33166  3.53364e+21
7.44897  3.37645e+21
7.56627  3.23588e+21
7.68358  3.10654e+21
7.80088  2.98014e+21
7.91819  2.84664e+21
8.03549  2.69812e+21
8.1528  2.53116e+21
8.2701  2.34915e+21
8.38741  2.16353e+21
8.50471  1.99153e+21
8.62202  1.85304e+21
8.73932  1.76458e+21
8.85662  1.73494e+21
8.97393  1.76154e+21
9.09123  1.82866e+21
9.20854  1.91052e+21
9.32584  1.97721e+21
9.44315  2.00175e+21
9.56045  1.9662e+21
9.67776  1.8674e+21
9.79506  1.71801e+21
9.91237  1.54262e+21
10.0297  1.37186e+21
10.147  1.23421e+21
10.2643  1.14871e+21
10.3816  1.11971e+21
10.4989  1.13695e+21
10.6162  1.17838e+21
10.7335  1.21683e+21
10.8508  1.22843e+21
10.9681  1.19814e+21
11.0854  1.12419e+21
11.2027  1.01807e+21
11.32  9.00622e+20
11.4373  7.96121e+20
11.5546  7.25687e+20
11.6719  7.02475e+20
11.7893  7.28775e+20
11.9066  7.96611e+20
12.0239  8.90794e+20
12.1412  9.93748e+20
12.2585  1.08977e+21
12.3758  1.16813e+21
12.4931  1.22544e+21
12.6104  1.26341e+21
12.7277  1.28849e+21
12.845  1.30841e+21
12.9623  1.32981e+21
13.0796  1.35746e+21
13.1969  1.39383e+21
13.3142  1.43909e+21
13.4315  1.49212e+21
13.5488  1.55173e+21
13.6661  1.61534e+21
13.7834  1.6799e+21
13.9007  1.74057e+21
14.018  1.79052e+21
14.1354  1.82183e+21
14.2527  1.82573e+21
14.37  1.79604e+21
14.4873  1.72992e+21
14.6046  1.62978e+21
14.7219  1.50497e+21
14.8392  1.36958e+21
14.9565  1.24066e+21
15.0738  1.13493e+21
15.1911  1.06474e+21
15.3084  1.03551e+21
15.4257  1.04386e+21
15.543  1.07839e+21
15.6603  1.12245e+21
15.7776  1.15792e+21
15.8949  1.17061e+21
16.0122  1.15384e+21
16.1295  1.11115e+21
16.2468  1.05594e+21
16.3641  1.00868e+21
16.4815  9.9177e+20
16.5988  1.02419e+21
16.7161  1.11634e+21
16.8334  1.26653e+21
16.9507  1.46097e+21
17.068  1.67646e+21
17.1853  1.88627e+21
17.3026  2.06537e+21
17.4199  2.19717e+21
17.5372  2.27638e+21
17.6545  2.3101e+21
17.7718  2.31453e+21
17.8891  2.31055e+21
18.0064  2.31742e+21
18.1237  2.34716e+21
18.241  2.4032e+21
18.3583  2.47753e+21
18.4756  2.55497e+21
18.5929  2.61717e+21
18.7102  2.64705e+21
18.8275  2.63326e+21
18.9449  2.57261e+21
19.0622  2.46938e+21
19.1795  2.33469e+21
19.2968  2.18219e+21
19.4141  2.02641e+21
19.5314  1.87965e+21
19.6487  1.7509e+21
19.766  1.64546e+21
19.8833  1.56525e+21
20.0006  1.50976e+21
20.1179  1.47579e+21
20.2352  1.45828e+21
20.3525  1.4497e+21
20.4698  1.44145e+21
20.5871  1.4248e+21
20.7044  1.39278e+21
20.8217  1.34293e+21
20.939  1.27863e+21
21.0563  1.20958e+21
21.1736  1.15042e+21
21.291  1.11744e+21
21.4083  1.12469e+21
21.5256  1.17853e+21
21.6429  1.27592e+21
21.7602  1.40302e+21
21.8775  1.53845e+21
21.9948  1.65733e+21
22.1121  1.73807e+21
22.2294  1.76771e+21
22.3467  1.74583e+21
22.464  1.68413e+21
22.5813  1.60434e+21
22.6986  1.53153e+21
22.8159  1.48826e+21
22.9332  1.48801e+21
23.0505  1.53208e+21
23.1678  1.60887e+21
23.2851  1.69851e+21
23.4024  1.77728e+21
23.5198  1.82435e+21
23.6371  1.82765e+21
23.7544  1.78588e+21
23.8717  1.70903e+21
23.989  1.6149e+21
24.1063  1.52408e+21
24.2236  1.45497e+21
24.3409  1.41896e+21
24.4582  1.41881e+21
24.5755  1.44862e+21
24.6928  1.49637e+21
24.8101  1.54774e+21
24.9274  1.59014e+21
25.0447  1.61506e+21
25.162  1.62019e+21
25.2793  1.60825e+21
25.3966  1.58489e+21
25.5139  1.55709e+21
25.6312  1.52985e+21
25.7485  1.5052e+21
25.8658  1.48244e+21
25.9832  1.45895e+21
26.1005  1.4324e+21
26.2178  1.40202e+21
26.3351  1.36988e+21
26.4524  1.34079e+21
26.5697  1.31982e+21
26.687  1.31189e+21
26.8043  1.31731e+21
26.9216  1.3326e+21
27.0389  1.34974e+21
27.1562  1.35805e+21
27.2735  1.34803e+21
27.3908  1.31428e+21
27.5081  1.25844e+21
27.6254  1.19004e+21
27.7427  1.12419e+21
27.86  1.07863e+21
27.9773  1.06831e+21
28.0946  1.10087e+21
28.212  1.1736e+21
28.3293  1.27397e+21
28.4466  1.38224e+21
28.5639  1.47702e+21
28.6812  1.54173e+21
28.7985  1.56984e+21
28.9158  1.56703e+21
29.0331  1.54984e+21
29.1504  1.54124e+21
29.2677  1.56335e+21
29.385  1.63057e+21
29.5023  1.74459e+21
29.6196  1.89272e+21
29.7369  2.05148e+21
29.8542  2.19246e+21
29.9715  2.28986e+21
30.0888  2.32859e+21
30.2061  2.30778e+21
30.3234  2.24097e+21
30.4407  2.15192e+21
30.558  2.06805e+21
30.6754  2.01186e+21
30.7927  1.99552e+21
30.91  2.01726e+21
31.0273  2.06342e+21
31.1446  2.1121e+21
31.2619  2.14032e+21
31.3792  2.13104e+21
31.4965  2.07676e+21
31.6138  1.98146e+21
31.7311  1.85882e+21
31.8484  1.72721e+21
31.9657  1.60502e+21
32.083  1.50592e+21
32.2003  1.43596e+21
32.3176  1.39418e+21
32.4349  1.37375e+21
32.5522  1.36588e+21
32.6695  1.36245e+21
32.7868  1.35843e+21
32.9042  1.35182e+21
33.0215  1.3435e+21
33.1388  1.33558e+21
33.2561  1.32901e+21
33.3734  1.3234e+21
33.4907  1.31734e+21
33.608  1.30928e+21
33.7253  1.29901e+21
33.8426  1.28809e+21
33.9599  1.28136e+21
34.0772  1.28406e+21
34.1945  1.30144e+21
34.3118  1.33517e+21
34.4291  1.3828e+21
34.5464  1.43721e+21
34.6637  1.48761e+21
34.781  1.52267e+21
34.8983  1.53334e+21
35.0156  1.5159e+21
35.1329  1.47388e+21
35.2503  1.41797e+21
35.3676  1.36255e+21
35.4849  1.32385e+21
35.6022  1.31407e+21
35.7195  1.33874e+21
35.8368  1.39431e+21
35.9541  1.46879e+21
36.0714  1.54425e+21
36.1887  1.6016e+21
36.306  1.62513e+21
36.4233  1.60741e+21
36.5406  1.55086e+21
36.6579  1.46712e+21
36.7752  1.37499e+21
36.8925  1.29467e+21
37.0098  1.24265e+21
37.1271  1.22745e+21
37.2444  1.24712e+21
37.3617  1.2899e+21
37.479  1.33781e+21
37.5964  1.37098e+21
37.7137  1.37342e+21
37.831  1.33767e+21
37.9483  1.26532e+21
38.0656  1.16686e+21
38.1829  1.05845e+21
38.3002  9.5677e+20
38.4175  8.74865e+20
38.5348  8.19139e+20
38.6521  7.88375e+20
38.7694  7.75774e+20
38.8867  7.71825e+20
39.004  7.67632e+20
39.1213  7.57811e+20
39.2386  7.41549e+20
39.3559  7.21208e+20
39.4732  7.00627e+20
39.5905  6.82608e+20
39.7078  6.67262e+20
39.8251  6.52207e+20
39.9425  6.34187e+20
40.0598  6.11817e+20
40.1771  5.87297e+20
40.2944  5.67988e+20
40.4117  5.65081e+20
40.529  5.89774e+20
40.6463  6.49705e+20
40.7636  7.44607e+20
40.8809  8.64588e+20
40.9982  9.91161e+20
41.1155  1.10144e+21
41.2328  1.17489e+21
41.3501  1.19906e+21
41.4674  1.17489e+21
41.5847  1.11701e+21
41.702  1.05088e+21
41.8193  1.00584e+21
41.9366  1.0066e+21
42.0539  1.06571e+21
42.1712  1.17913e+21
42.2885  1.32694e+21
42.4059  1.47819e+21
42.5232  1.5994e+21
42.6405  1.66422e+21
42.7578  1.66017e+21
42.8751  1.59287e+21
42.9924  1.48388e+21
43.1097  1.36473e+21
43.227  1.2677e+21
43.3443  1.21705e+21
43.4616  1.22314e+21
43.5789  1.28026e+21
43.6962  1.36851e+21
43.8135  1.46086e+21
43.9308  1.53075e+21
44.0481  1.55909e+21
44.1654  1.53913e+21
44.2827  1.4768e+21
44.4  1.38819e+21
44.5173  1.29367e+21
44.6347  1.21204e+21
44.752  1.1562e+21
44.8693  1.1299e+21
44.9866  1.12873e+21
45.1039  1.14355e+21
45.2212  1.16323e+21
45.3385  1.17981e+21
45.4558  1.18969e+21
45.5731  1.19396e+21
45.6904  1.19741e+21
45.8077  1.20433e+21
45.925  1.21712e+21
46.0423  1.23443e+21
46.1596  1.25087e+21
46.2769  1.26005e+21
46.3942  1.25643e+21
46.5115  1.23899e+21
46.6288  1.21194e+21
46.7461  1.18519e+21
46.8634  1.17105e+21
46.9808  1.18091e+21
47.0981  1.22155e+21
47.2154  1.29165e+21
47.3327  1.38202e+21
47.45  1.47711e+21
47.5673  1.55978e+21
47.6846  1.61577e+21
47.8019  1.63955e+21
47.9192  1.63575e+21
48.0365  1.61867e+21
48.1538  1.60891e+21
48.2711  1.62686e+21
48.3884  1.68581e+21
48.5057  1.78759e+21
48.623  1.92065e+21
48.7403  2.06213e+21
48.8576  2.1839e+21
48.9749  2.25997e+21
49.0922  2.27488e+21
49.2095  2.22768e+21
49.3269  2.13296e+21
49.4442  2.01779e+21
49.5615  1.91309e+21
49.6788  1.8456e+21
49.7961  1.82997e+21
49.9134  1.86445e+21
50.0307  1.93121e+21
50.148  2.0019e+21
50.2653  2.04578e+21
50.3826  2.03896e+21
50.4999  1.96982e+21
50.6172  1.84382e+21
50.7345  1.68068e+21
