#S 1 spectral density
#N 2
#UFWHM 24.8687
#L  abscissas [um]  spectral density
-58.5938  2.8115e+20
-58.4764  2.65812e+20
-58.3591  2.49315e+20
-58.2418  2.35296e+20
-58.1245  2.27042e+20
-58.0072  2.2671e+20
-57.8899  2.34722e+20
-57.7726  2.49491e+20
-57.6553  2.6791e+20
-57.538  2.8576e+20
-57.4207  2.99096e+20
-57.3034  3.0489e+20
-57.1861  3.01782e+20
-57.0688  2.9046e+20
-56.9515  2.73785e+20
-56.8342  2.55203e+20
-56.7169  2.38982e+20
-56.5996  2.28196e+20
-56.4823  2.24592e+20
-56.365  2.27774e+20
-56.2477  2.35639e+20
-56.1303  2.44873e+20
-56.013  2.51934e+20
-55.8957  2.5399e+20
-55.7784  2.4992e+20
-55.6611  2.40582e+20
-55.5438  2.28759e+20
-55.4265  2.18282e+20
-55.3092  2.1343e+20
-55.1919  2.17488e+20
-55.0746  2.31689e+20
-54.9573  2.55351e+20
-54.84  2.8545e+20
-54.7227  3.17772e+20
-54.6054  3.47466e+20
-54.4881  3.70687e+20
-54.3708  3.8526e+20
-54.2535  3.91176e+20
-54.1362  3.90545e+20
-54.0189  3.86664e+20
-53.9016  3.8322e+20
-53.7842  3.82968e+20
-53.6669  3.87174e+20
-53.5496  3.95021e+20
-53.4323  4.03953e+20
-53.315  4.10753e+20
-53.1977  4.12145e+20
-53.0804  4.06309e+20
-52.9631  3.93242e+20
-52.8458  3.74862e+20
-52.7285  3.54893e+20
-52.6112  3.37213e+20
-52.4939  3.25261e+20
-52.3766  3.20716e+20
-52.2593  3.22935e+20
-52.142  3.29048e+20
-52.0247  3.34921e+20
-51.9074  3.36103e+20
-51.7901  3.29272e+20
-51.6728  3.1361e+20
-51.5555  2.90754e+20
-51.4381  2.651e+20
-51.3208  2.4243e+20
-51.2035  2.28491e+20
-51.0862  2.27788e+20
-50.9689  2.42082e+20
-50.8516  2.69928e+20
-50.7343  3.07006e+20
-50.617  3.47051e+20
-50.4997  3.83494e+20
-50.3824  4.10778e+20
-50.2651  4.25792e+20
-50.1478  4.28356e+20
-50.0305  4.20959e+20
-49.9132  4.07894e+20
-49.7959  3.93868e+20
-49.6786  3.82656e+20
-49.5613  3.76277e+20
-49.444  3.74506e+20
-49.3267  3.75174e+20
-49.2094  3.75181e+20
-49.092  3.71533e+20
-48.9747  3.62485e+20
-48.8574  3.48244e+20
-48.7401  3.30718e+20
-48.6228  3.13315e+20
-48.5055  2.99651e+20
-48.3882  2.92446e+20
-48.2709  2.92867e+20
-48.1536  2.99551e+20
-48.0363  3.09715e+20
-47.919  3.19265e+20
-47.8017  3.24351e+20
-47.6844  3.22433e+20
-47.5671  3.13302e+20
-47.4498  2.98752e+20
-47.3325  2.83028e+20
-47.2152  2.70834e+20
-47.0979  2.66752e+20
-46.9806  2.73439e+20
-46.8633  2.91325e+20
-46.7459  3.18002e+20
-46.6286  3.49046e+20
-46.5113  3.78913e+20
-46.394  4.02323e+20
-46.2767  4.15622e+20
-46.1594  4.17581e+20
-46.0421  4.09389e+20
-45.9248  3.94687e+20
-45.8075  3.77983e+20
-45.6902  3.63593e+20
-45.5729  3.54777e+20
-45.4556  3.52472e+20
-45.3383  3.55539e+20
-45.221  3.60837e+20
-45.1037  3.64604e+20
-44.9864  3.6324e+20
-44.8691  3.54796e+20
-44.7518  3.39238e+20
-44.6345  3.18727e+20
-44.5172  2.97253e+20
-44.3998  2.79508e+20
-44.2825  2.6999e+20
-44.1652  2.71526e+20
-44.0479  2.84975e+20
-43.9306  3.08858e+20
-43.8133  3.39653e+20
-43.696  3.72835e+20
-43.5787  4.03843e+20
-43.4614  4.28996e+20
-43.3441  4.46433e+20
-43.2268  4.5609e+20
-43.1095  4.59671e+20
-42.9922  4.60139e+20
-42.8749  4.60201e+20
-42.7576  4.62202e+20
-42.6403  4.67161e+20
-42.523  4.74503e+20
-42.4057  4.82423e+20
-42.2884  4.88705e+20
-42.171  4.90951e+20
-42.0537  4.87927e+20
-41.9364  4.79378e+20
-41.8191  4.66475e+20
-41.7018  4.5133e+20
-41.5845  4.36371e+20
-41.4672  4.23419e+20
-41.3499  4.13272e+20
-41.2326  4.05355e+20
-41.1153  3.9759e+20
-40.998  3.87406e+20
-40.8807  3.72404e+20
-40.7634  3.51143e+20
-40.6461  3.24153e+20
-40.5288  2.93925e+20
-40.4115  2.64768e+20
-40.2942  2.42015e+20
-40.1769  2.30769e+20
-40.0596  2.34781e+20
-39.9423  2.55312e+20
-39.825  2.90917e+20
-39.7076  3.37413e+20
-39.5903  3.88803e+20
-39.473  4.38352e+20
-39.3557  4.80078e+20
-39.2384  5.10061e+20
-39.1211  5.26787e+20
-39.0038  5.31534e+20
-38.8865  5.27876e+20
-38.7692  5.19925e+20
-38.6519  5.12106e+20
-38.5346  5.07283e+20
-38.4173  5.06621e+20
-38.3  5.09182e+20
-38.1827  5.12763e+20
-38.0654  5.14575e+20
-37.9481  5.1254e+20
-37.8308  5.05528e+20
-37.7135  4.94515e+20
-37.5962  4.81581e+20
-37.4789  4.6979e+20
-37.3615  4.62041e+20
-37.2442  4.60066e+20
-37.1269  4.63903e+20
-37.0096  4.71671e+20
-36.8923  4.80298e+20
-36.775  4.86275e+20
-36.6577  4.86729e+20
-36.5404  4.80804e+20
-36.4231  4.69592e+20
-36.3058  4.56467e+20
-36.1885  4.46242e+20
-36.0712  4.43903e+20
-35.9539  4.53346e+20
-35.8366  4.76038e+20
-35.7193  5.10768e+20
-35.602  5.53505e+20
-35.4847  5.98422e+20
-35.3674  6.39015e+20
-35.2501  6.69811e+20
-35.1328  6.87507e+20
-35.0154  6.91479e+20
-34.8981  6.84221e+20
-34.7808  6.69764e+20
-34.6635  6.53162e+20
-34.5462  6.38696e+20
-34.4289  6.28713e+20
-34.3116  6.23391e+20
-34.1943  6.20664e+20
-34.077  6.17211e+20
-33.9597  6.09388e+20
-33.8424  5.94938e+20
-33.7251  5.73645e+20
-33.6078  5.47859e+20
-33.4905  5.21708e+20
-33.3732  5.00697e+20
-33.2559  4.90001e+20
-33.1386  4.92718e+20
-33.0213  5.09904e+20
-32.904  5.39297e+20
-32.7867  5.7633e+20
-32.6693  6.15217e+20
-32.552  6.49942e+20
-32.4347  6.76076e+20
-32.3174  6.91663e+20
-32.2001  6.97163e+20
-32.0828  6.95685e+20
-31.9655  6.91639e+20
-31.8482  6.89624e+20
-31.7309  6.92837e+20
-31.6136  7.02897e+20
-31.4963  7.18903e+20
-31.379  7.38369e+20
-31.2617  7.57559e+20
-31.1444  7.7302e+20
-31.0271  7.82224e+20
-30.9098  7.84152e+20
-30.7925  7.79693e+20
-30.6752  7.70741e+20
-30.5579  7.59505e+20
-30.4406  7.48036e+20
-30.3232  7.37046e+20
-30.2059  7.25979e+20
-30.0886  7.1302e+20
-29.9713  6.96113e+20
-29.854  6.74026e+20
-29.7367  6.46837e+20
-29.6194  6.16829e+20
-29.5021  5.88578e+20
-29.3848  5.67876e+20
-29.2675  5.61119e+20
-29.1502  5.7341e+20
-29.0329  6.07784e+20
-28.9156  6.6375e+20
-28.7983  7.37548e+20
-28.681  8.22752e+20
-28.5637  9.11096e+20
-28.4464  9.94074e+20
-28.3291  1.06489e+21
-28.2118  1.11919e+21
-28.0944  1.15549e+21
-27.9771  1.1761e+21
-27.8598  1.18456e+21
-27.7425  1.18636e+21
-27.6252  1.18578e+21
-27.5079  1.18672e+21
-27.3906  1.19064e+21
-27.2733  1.19746e+21
-27.156  1.20561e+21
-27.0387  1.21291e+21
-26.9214  1.21797e+21
-26.8041  1.22015e+21
-26.6868  1.22024e+21
-26.5695  1.22003e+21
-26.4522  1.22195e+21
-26.3349  1.22778e+21
-26.2176  1.23859e+21
-26.1003  1.2538e+21
-25.983  1.27152e+21
-25.8657  1.28894e+21
-25.7483  1.30345e+21
-25.631  1.31349e+21
-25.5137  1.31964e+21
-25.3964  1.32418e+21
-25.2791  1.33179e+21
-25.1618  1.34839e+21
-25.0445  1.37962e+21
-24.9272  1.42992e+21
-24.8099  1.50134e+21
-24.6926  1.59282e+21
-24.5753  1.69979e+21
-24.458  1.8156e+21
-24.3407  1.93218e+21
-24.2234  2.04145e+21
-24.1061  2.13697e+21
-23.9888  2.21455e+21
-23.8715  2.27292e+21
-23.7542  2.31262e+21
-23.6369  2.33724e+21
-23.5196  2.34992e+21
-23.4023  2.35472e+21
-23.2849  2.35478e+21
-23.1676  2.35256e+21
-23.0503  2.35026e+21
-22.933  2.35035e+21
-22.8157  2.35638e+21
-22.6984  2.37293e+21
-22.5811  2.40625e+21
-22.4638  2.46316e+21
-22.3465  2.54993e+21
-22.2292  2.67132e+21
-22.1119  2.82903e+21
-21.9946  3.02068e+21
-21.8773  3.24027e+21
-21.76  3.47808e+21
-21.6427  3.72211e+21
-21.5254  3.96005e+21
-21.4081  4.18131e+21
-21.2908  4.37825e+21
-21.1735  4.54657e+21
-21.0561  4.68727e+21
-20.9388  4.80441e+21
-20.8215  4.90455e+21
-20.7042  4.99585e+21
-20.5869  5.0858e+21
-20.4696  5.18129e+21
-20.3523  5.28744e+21
-20.235  5.40811e+21
-20.1177  5.5463e+21
-20.0004  5.70481e+21
-19.8831  5.88633e+21
-19.7658  6.09342e+21
-19.6485  6.3294e+21
-19.5312  6.59609e+21
-19.4139  6.89322e+21
-19.2966  7.21963e+21
-19.1793  7.57058e+21
-19.062  7.94005e+21
-18.9447  8.32098e+21
-18.8274  8.70745e+21
-18.71  9.09426e+21
-18.5927  9.48079e+21
-18.4754  9.86833e+21
-18.3581  1.02631e+22
-18.2408  1.0672e+22
-18.1235  1.11045e+22
-18.0062  1.15671e+22
-17.8889  1.20656e+22
-17.7716  1.26014e+22
-17.6543  1.31731e+22
-17.537  1.37765e+22
-17.4197  1.44066e+22
-17.3024  1.50572e+22
-17.1851  1.57251e+22
-17.0678  1.64081e+22
-16.9505  1.71061e+22
-16.8332  1.78215e+22
-16.7159  1.85555e+22
-16.5986  1.93097e+22
-16.4813  2.00831e+22
-16.364  2.08729e+22
-16.2466  2.16741e+22
-16.1293  2.24805e+22
-16.012  2.3286e+22
-15.8947  2.40862e+22
-15.7774  2.48788e+22
-15.6601  2.5664e+22
-15.5428  2.64445e+22
-15.4255  2.72239e+22
-15.3082  2.80063e+22
-15.1909  2.87929e+22
-15.0736  2.95843e+22
-14.9563  3.03781e+22
-14.839  3.11697e+22
-14.7217  3.1954e+22
-14.6044  3.27262e+22
-14.4871  3.34834e+22
-14.3698  3.42242e+22
-14.2525  3.49516e+22
-14.1352  3.56686e+22
-14.0178  3.63807e+22
-13.9005  3.70917e+22
-13.7832  3.78046e+22
-13.6659  3.85186e+22
-13.5486  3.92319e+22
-13.4313  3.99392e+22
-13.314  4.06349e+22
-13.1967  4.13133e+22
-13.0794  4.19706e+22
-12.9621  4.26049e+22
-12.8448  4.32164e+22
-12.7275  4.38075e+22
-12.6102  4.43815e+22
-12.4929  4.49424e+22
-12.3756  4.54922e+22
-12.2583  4.60336e+22
-12.141  4.65674e+22
-12.0237  4.70951e+22
-11.9064  4.76185e+22
-11.7891  4.8141e+22
-11.6718  4.86686e+22
-11.5544  4.92086e+22
-11.4371  4.97692e+22
-11.3198  5.03584e+22
-11.2025  5.09825e+22
-11.0852  5.1644e+22
-10.9679  5.23411e+22
-10.8506  5.30676e+22
-10.7333  5.38134e+22
-10.616  5.45665e+22
-10.4987  5.53138e+22
-10.3814  5.60434e+22
-10.2641  5.67473e+22
-10.1468  5.74201e+22
-10.0295  5.80617e+22
-9.91217  5.86749e+22
-9.79487  5.92647e+22
-9.67756  5.98377e+22
-9.56026  6.04011e+22
-9.44295  6.09601e+22
-9.32565  6.15194e+22
-9.20834  6.20826e+22
-9.09104  6.26522e+22
-8.97373  6.32301e+22
-8.85643  6.38182e+22
-8.73913  6.44185e+22
-8.62182  6.5032e+22
-8.50452  6.56586e+22
-8.38721  6.62961e+22
-8.26991  6.69409e+22
-8.1526  6.75867e+22
-8.03529  6.82264e+22
-7.91799  6.88516e+22
-7.80069  6.94555e+22
-7.68338  7.00328e+22
-7.56608  7.05817e+22
-7.44877  7.1104e+22
-7.33146  7.16041e+22
-7.21416  7.20894e+22
-7.09685  7.25676e+22
-6.97955  7.30461e+22
-6.86224  7.35301e+22
-6.74494  7.40214e+22
-6.62763  7.4519e+22
-6.51033  7.50193e+22
-6.39302  7.55168e+22
-6.27572  7.60064e+22
-6.15842  7.64834e+22
-6.04111  7.69453e+22
-5.92381  7.7392e+22
-5.8065  7.7825e+22
-5.68919  7.82473e+22
-5.57189  7.86618e+22
-5.45458  7.90708e+22
-5.33728  7.94753e+22
-5.21997  7.98748e+22
-5.10267  8.0268e+22
-4.98536  8.06533e+22
-4.86806  8.10304e+22
-4.75075  8.13998e+22
-4.63345  8.17648e+22
-4.51614  8.21286e+22
-4.39884  8.24966e+22
-4.28154  8.28716e+22
-4.16423  8.32562e+22
-4.04692  8.36488e+22
-3.92962  8.40456e+22
-3.81231  8.44395e+22
-3.69501  8.4822e+22
-3.5777  8.51846e+22
-3.4604  8.55204e+22
-3.34309  8.58249e+22
-3.22579  8.60979e+22
-3.10849  8.63418e+22
-2.99118  8.65618e+22
-2.87387  8.67647e+22
-2.75657  8.69572e+22
-2.63926  8.71441e+22
-2.52196  8.73288e+22
-2.40465  8.75121e+22
-2.28735  8.76936e+22
-2.17005  8.78716e+22
-2.05274  8.80445e+22
-1.93544  8.82116e+22
-1.81813  8.83733e+22
-1.70083  8.85304e+22
-1.58352  8.86838e+22
-1.46622  8.88337e+22
-1.34891  8.89783e+22
-1.2316  8.91147e+22
-1.1143  8.92377e+22
-0.996995  8.93423e+22
-0.87969  8.94236e+22
-0.762385  8.94789e+22
-0.64508  8.9509e+22
-0.527775  8.95167e+22
-0.41047  8.9509e+22
-0.293165  8.94937e+22
-0.17586  8.94787e+22
-0.058555  8.94703e+22
0.05875  8.94717e+22
0.176055  8.94815e+22
0.29336  8.94959e+22
0.410665  8.95069e+22
0.52797  8.95067e+22
0.645275  8.94875e+22
0.76258  8.9444e+22
0.879885  8.93738e+22
0.99719  8.92781e+22
1.1145  8.91606e+22
1.2318  8.90266e+22
1.3491  8.88815e+22
1.46641  8.873e+22
1.58371  8.85744e+22
1.70102  8.84155e+22
1.81832  8.82532e+22
1.93563  8.8086e+22
2.05294  8.79131e+22
2.17024  8.77346e+22
2.28754  8.75517e+22
2.40485  8.73657e+22
2.52216  8.71781e+22
2.63946  8.69889e+22
2.75677  8.67966e+22
2.87407  8.6597e+22
2.99137  8.63843e+22
3.10868  8.61519e+22
3.22599  8.58934e+22
3.34329  8.56044e+22
3.4606  8.52835e+22
3.5779  8.49329e+22
3.69521  8.45582e+22
3.81251  8.41672e+22
3.92982  8.37688e+22
4.04712  8.33709e+22
4.16443  8.29793e+22
4.28173  8.25969e+22
4.39903  8.22238e+22
4.51634  8.18565e+22
4.63364  8.1491e+22
4.75095  8.11226e+22
4.86825  8.07477e+22
4.98556  8.03646e+22
5.10286  7.9973e+22
5.22017  7.95741e+22
5.33748  7.91694e+22
5.45478  7.87603e+22
5.57209  7.83464e+22
5.68939  7.79265e+22
5.8067  7.74978e+22
5.924  7.70572e+22
6.0413  7.66023e+22
6.15861  7.61321e+22
6.27591  7.56477e+22
6.39322  7.51525e+22
6.51052  7.46517e+22
6.62783  7.41506e+22
6.74514  7.36541e+22
6.86244  7.31649e+22
6.97975  7.26827e+22
7.09705  7.22038e+22
7.21436  7.17221e+22
7.33166  7.123e+22
7.44897  7.07191e+22
7.56627  7.01839e+22
7.68358  6.96203e+22
7.80088  6.90285e+22
7.91819  6.8412e+22
8.03549  6.7777e+22
8.1528  6.71309e+22
8.2701  6.64818e+22
8.38741  6.58369e+22
8.50471  6.52011e+22
8.62202  6.45778e+22
8.73932  6.39677e+22
8.85662  6.33704e+22
8.97393  6.27852e+22
9.09123  6.22098e+22
9.20854  6.16425e+22
9.32584  6.10809e+22
9.44315  6.05222e+22
9.56045  5.99623e+22
9.67776  5.93961e+22
9.79506  5.88169e+22
9.91237  5.82184e+22
10.0297  5.7594e+22
10.147  5.69391e+22
10.2643  5.62526e+22
10.3816  5.55373e+22
10.4989  5.47991e+22
10.6162  5.40487e+22
10.7335  5.3298e+22
10.8508  5.25603e+22
10.9681  5.18467e+22
11.0854  5.11655e+22
11.2027  5.05219e+22
11.32  4.99143e+22
11.4373  4.93393e+22
11.5546  4.87897e+22
11.6719  4.82571e+22
11.7893  4.77332e+22
11.9066  4.72111e+22
12.0239  4.66861e+22
12.1412  4.61552e+22
12.2585  4.56167e+22
12.3758  4.50699e+22
12.4931  4.45129e+22
12.6104  4.39439e+22
12.7277  4.33596e+22
12.845  4.27567e+22
12.9623  4.21325e+22
13.0796  4.14857e+22
13.1969  4.08166e+22
13.3142  4.01284e+22
13.4315  3.94257e+22
13.5488  3.87139e+22
13.6661  3.79987e+22
13.7834  3.72842e+22
13.9007  3.65712e+22
14.018  3.58588e+22
14.1354  3.51436e+22
14.2527  3.44209e+22
14.37  3.36858e+22
14.4873  3.29357e+22
14.6046  3.21686e+22
14.7219  3.13869e+22
14.8392  3.05949e+22
14.9565  2.97974e+22
15.0738  2.9e+22
15.1911  2.82065e+22
15.3084  2.74188e+22
15.4257  2.66364e+22
15.543  2.58567e+22
15.6603  2.50751e+22
15.7776  2.42892e+22
15.8949  2.34966e+22
16.0122  2.26979e+22
16.1295  2.18961e+22
16.2468  2.10961e+22
16.3641  2.03043e+22
16.4815  1.95256e+22
16.5988  1.87644e+22
16.7161  1.80235e+22
16.8334  1.73018e+22
16.9507  1.65987e+22
17.068  1.59116e+22
17.1853  1.52397e+22
17.3026  1.45837e+22
17.4199  1.39469e+22
17.5372  1.33335e+22
17.6545  1.27492e+22
17.7718  1.21992e+22
17.8891  1.16867e+22
18.0064  1.12118e+22
18.1237  1.07707e+22
18.241  1.03575e+22
18.3583  9.96395e+21
18.4756  9.58102e+21
18.5929  9.20192e+21
18.7102  8.8221e+21
18.8275  8.44108e+21
18.9449  8.06159e+21
19.0622  7.68867e+21
19.1795  7.32994e+21
19.2968  6.99231e+21
19.4141  6.68114e+21
19.5314  6.39948e+21
19.6487  6.14921e+21
19.766  5.9291e+21
19.8833  5.73643e+21
20.0006  5.56875e+21
20.1179  5.42282e+21
20.2352  5.29581e+21
20.3525  5.185e+21
20.4698  5.08726e+21
20.5871  4.99798e+21
20.7044  4.911e+21
20.8217  4.81946e+21
20.939  4.71518e+21
21.0563  4.59062e+21
21.1736  4.44002e+21
21.291  4.26045e+21
21.4083  4.05336e+21
21.5256  3.82427e+21
21.6429  3.58255e+21
21.7602  3.34004e+21
21.8775  3.1091e+21
21.9948  2.90091e+21
22.1121  2.72398e+21
22.2294  2.58281e+21
22.3467  2.47769e+21
22.464  2.40539e+21
22.5813  2.36039e+21
22.6986  2.33573e+21
22.8159  2.32468e+21
22.9332  2.32186e+21
23.0505  2.32316e+21
23.1678  2.32579e+21
23.2851  2.3276e+21
23.4024  2.32644e+21
23.5198  2.31943e+21
23.6371  2.30348e+21
23.7544  2.27421e+21
23.8717  2.22871e+21
23.989  2.16412e+21
24.1063  2.08064e+21
24.2236  1.98065e+21
24.3409  1.86948e+21
24.4582  1.75433e+21
24.5755  1.64326e+21
24.6928  1.54407e+21
24.8101  1.4626e+21
24.9274  1.40156e+21
25.0447  1.36081e+21
25.162  1.3372e+21
25.2793  1.32543e+21
25.3966  1.31962e+21
25.5139  1.31444e+21
25.6312  1.30614e+21
25.7485  1.29327e+21
25.8658  1.27633e+21
25.9832  1.25744e+21
26.1005  1.23994e+21
26.2178  1.2259e+21
26.3351  1.21683e+21
26.4524  1.21268e+21
26.5697  1.21199e+21
26.687  1.21259e+21
26.8043  1.21224e+21
26.9216  1.20956e+21
27.0389  1.20434e+21
27.1562  1.19746e+21
27.2735  1.19083e+21
27.3908  1.18608e+21
27.5081  1.18409e+21
27.6254  1.18449e+21
27.7427  1.18457e+21
27.86  1.18012e+21
27.9773  1.16631e+21
28.0946  1.13841e+21
28.212  1.09345e+21
28.3293  1.03098e+21
28.4466  9.53636e+20
28.5639  8.67173e+20
28.6812  7.79282e+20
28.7985  6.98272e+20
28.9158  6.31745e+20
29.0331  5.85183e+20
29.1504  5.60721e+20
29.2677  5.57252e+20
29.385  5.70796e+20
29.5023  5.95429e+20
29.6196  6.25061e+20
29.7369  6.54264e+20
29.8542  6.79475e+20
29.9715  6.99341e+20
30.0888  7.14305e+20
30.2061  7.26347e+20
30.3234  7.37209e+20
30.4407  7.48385e+20
30.558  7.59879e+20
30.6754  7.70553e+20
30.7927  7.78323e+20
30.91  7.80806e+20
31.0273  7.76554e+20
31.1446  7.65504e+20
31.2619  7.49186e+20
31.3792  7.30478e+20
31.4965  7.12954e+20
31.6138  6.99957e+20
31.7311  6.93104e+20
31.8484  6.9243e+20
31.9657  6.95575e+20
32.083  6.9861e+20
32.2003  6.97005e+20
32.3176  6.86973e+20
32.4349  6.66463e+20
32.5522  6.35802e+20
32.6695  5.98297e+20
32.7868  5.59084e+20
32.9042  5.24114e+20
33.0215  4.99087e+20
33.1388  4.87488e+20
33.2561  4.90474e+20
33.3734  5.06078e+20
33.4907  5.30041e+20
33.608  5.56938e+20
33.7253  5.81762e+20
33.8426  6.00724e+20
33.9599  6.12433e+20
34.0772  6.18084e+20
34.1945  6.20521e+20
34.3118  6.23438e+20
34.4291  6.29912e+20
34.5464  6.41302e+20
34.6637  6.5672e+20
34.781  6.72968e+20
34.8983  6.85405e+20
35.0156  6.89138e+20
35.1329  6.80589e+20
35.2503  6.58347e+20
35.3676  6.23861e+20
35.4849  5.81616e+20
35.6022  5.37354e+20
35.7195  4.9749e+20
35.8368  4.67398e+20
35.9541  4.50084e+20
36.0714  4.45682e+20
36.1887  4.51634e+20
36.306  4.63464e+20
36.4233  4.76162e+20
36.5406  4.85216e+20
36.6579  4.88147e+20
36.7752  4.84507e+20
36.8925  4.76337e+20
37.0098  4.66873e+20
37.1271  4.59667e+20
37.2444  4.57479e+20
37.3617  4.61546e+20
37.479  4.71027e+20
37.5964  4.83726e+20
37.7137  4.96386e+20
37.831  5.06195e+20
37.9483  5.11435e+20
38.0656  5.11916e+20
38.1829  5.09131e+20
38.3002  5.05814e+20
38.4175  5.04526e+20
38.5348  5.07137e+20
38.6521  5.1378e+20
38.7694  5.22576e+20
38.8867  5.29661e+20
39.004  5.30697e+20
39.1213  5.21402e+20
39.2386  4.99037e+20
39.3559  4.63517e+20
39.4732  4.17429e+20
39.5905  3.65896e+20
39.7078  3.15333e+20
39.8251  2.72581e+20
39.9425  2.43011e+20
40.0598  2.29733e+20
40.1771  2.32992e+20
40.2944  2.50047e+20
40.4117  2.76322e+20
40.529  3.06379e+20
40.6463  3.35159e+20
40.7636  3.59137e+20
40.8809  3.76703e+20
40.9982  3.8854e+20
41.1155  3.96673e+20
41.2328  4.04022e+20
41.3501  4.12888e+20
41.4674  4.24727e+20
41.5847  4.39383e+20
41.702  4.55516e+20
41.8193  4.70671e+20
41.9366  4.82433e+20
42.0539  4.88989e+20
42.1712  4.89878e+20
42.2885  4.85878e+20
42.4059  4.78883e+20
42.5232  4.7132e+20
42.6405  4.65535e+20
42.7578  4.62694e+20
42.8751  4.624e+20
42.9924  4.62998e+20
43.1097  4.61888e+20
43.227  4.55865e+20
43.3443  4.42613e+20
43.4616  4.2126e+20
43.5789  3.92571e+20
43.6962  3.59462e+20
43.8135  3.26253e+20
43.9308  2.97597e+20
44.0481  2.77665e+20
44.1654  2.69124e+20
44.2827  2.72431e+20
44.4  2.85685e+20
44.5173  3.05282e+20
44.6347  3.26619e+20
44.752  3.45183e+20
44.8693  3.57756e+20
44.9866  3.6311e+20
45.1039  3.62089e+20
45.2212  3.57527e+20
45.3385  3.53024e+20
45.4558  3.52013e+20
45.5731  3.56802e+20
45.6904  3.67701e+20
45.8077  3.82907e+20
45.925  3.9879e+20
46.0423  4.10891e+20
46.1596  4.15078e+20
46.2769  4.08918e+20
46.3942  3.92031e+20
46.5115  3.66552e+20
46.6288  3.36787e+20
46.7461  3.07957e+20
46.8634  2.85132e+20
46.9808  2.71864e+20
47.0981  2.69426e+20
47.2154  2.76593e+20
47.3327  2.89955e+20
47.45  3.04898e+20
47.5673  3.16864e+20
47.6846  3.22846e+20
47.8019  3.21563e+20
47.9192  3.14144e+20
48.0365  3.03862e+20
48.1538  2.94478e+20
48.2711  2.89676e+20
48.3884  2.91858e+20
48.5057  3.01354e+20
48.623  3.16376e+20
48.7403  3.33921e+20
48.8576  3.50482e+20
48.9749  3.63055e+20
49.0922  3.70211e+20
49.2095  3.72562e+20
49.3269  3.72229e+20
49.4442  3.72383e+20
49.5615  3.75688e+20
49.6788  3.83781e+20
49.7961  3.96053e+20
49.9134  4.09906e+20
50.0307  4.21144e+20
50.148  4.25092e+20
50.2653  4.18112e+20
50.3826  3.98609e+20
50.4999  3.67896e+20
50.6172  3.29992e+20
50.7345  2.90997e+20
