#S 1 spectral density
#N 2
#UFWHM 22.8745
#L  abscissas [um]  spectral density
-58.5938  2.71338e+20
-58.4764  2.62374e+20
-58.3591  2.51181e+20
-58.2418  2.41025e+20
-58.1245  2.3472e+20
-58.0072  2.34187e+20
-57.8899  2.39677e+20
-57.7726  2.49666e+20
-57.6553  2.61264e+20
-57.538  2.70727e+20
-57.4207  2.7479e+20
-57.3034  2.71267e+20
-57.1861  2.59696e+20
-57.0688  2.41798e+20
-56.9515  2.21247e+20
-56.8342  2.02253e+20
-56.7169  1.89462e+20
-56.5996  1.86085e+20
-56.4823  1.93588e+20
-56.365  2.1098e+20
-56.2477  2.35128e+20
-56.1303  2.61618e+20
-56.013  2.85563e+20
-55.8957  3.02833e+20
-55.7784  3.11165e+20
-55.6611  3.10448e+20
-55.5438  3.02899e+20
-55.4265  2.92127e+20
-55.3092  2.82621e+20
-55.1919  2.78227e+20
-55.0746  2.80952e+20
-54.9573  2.91282e+20
-54.84  3.07257e+20
-54.7227  3.2582e+20
-54.6054  3.43074e+20
-54.4881  3.55926e+20
-54.3708  3.62595e+20
-54.2535  3.6323e+20
-54.1362  3.59676e+20
-54.0189  3.54813e+20
-53.9016  3.5162e+20
-53.7842  3.52087e+20
-53.6669  3.56814e+20
-53.5496  3.64313e+20
-53.4323  3.71741e+20
-53.315  3.75761e+20
-53.1977  3.73316e+20
-53.0804  3.63031e+20
-52.9631  3.45718e+20
-52.8458  3.24062e+20
-52.7285  3.02622e+20
-52.6112  2.86062e+20
-52.4939  2.78336e+20
-52.3766  2.8131e+20
-52.2593  2.94175e+20
-52.142  3.13536e+20
-52.0247  3.34434e+20
-51.9074  3.51153e+20
-51.7901  3.59142e+20
-51.6728  3.56062e+20
-51.5555  3.42384e+20
-51.4381  3.21334e+20
-51.3208  2.97964e+20
-51.2035  2.77731e+20
-51.0862  2.6523e+20
-50.9689  2.62837e+20
-50.8516  2.70087e+20
-50.7343  2.84052e+20
-50.617  3.00025e+20
-50.4997  3.13119e+20
-50.3824  3.19408e+20
-50.2651  3.17223e+20
-50.1478  3.0755e+20
-50.0305  2.93594e+20
-49.9132  2.79865e+20
-49.7959  2.70931e+20
-49.6786  2.69992e+20
-49.5613  2.77902e+20
-49.444  2.93317e+20
-49.3267  3.12556e+20
-49.2094  3.31099e+20
-49.092  3.44706e+20
-48.9747  3.50575e+20
-48.8574  3.48278e+20
-48.7401  3.39332e+20
-48.6228  3.27326e+20
-48.5055  3.16341e+20
-48.3882  3.0982e+20
-48.2709  3.09809e+20
-48.1536  3.15928e+20
-48.0363  3.26246e+20
-47.919  3.37287e+20
-47.8017  3.45491e+20
-47.6844  3.48355e+20
-47.5671  3.45178e+20
-47.4498  3.37087e+20
-47.3325  3.27265e+20
-47.2152  3.1934e+20
-47.0979  3.16702e+20
-46.9806  3.21081e+20
-46.8633  3.32189e+20
-46.7459  3.474e+20
-46.6286  3.62506e+20
-46.5113  3.72695e+20
-46.394  3.73961e+20
-46.2767  3.64373e+20
-46.1594  3.44626e+20
-46.0421  3.1791e+20
-45.9248  2.89823e+20
-45.8075  2.66461e+20
-45.6902  2.53156e+20
-45.5729  2.53643e+20
-45.4556  2.6844e+20
-45.3383  2.95484e+20
-45.221  3.29919e+20
-45.1037  3.65747e+20
-44.9864  3.96961e+20
-44.8691  4.19083e+20
-44.7518  4.29771e+20
-44.6345  4.29346e+20
-44.5172  4.20472e+20
-44.3998  4.07279e+20
-44.2825  3.94451e+20
-44.1652  3.85592e+20
-44.0479  3.83057e+20
-43.9306  3.87208e+20
-43.8133  3.96502e+20
-43.696  4.08476e+20
-43.5787  4.20445e+20
-43.4614  4.30073e+20
-43.3441  4.36398e+20
-43.2268  4.39725e+20
-43.1095  4.41492e+20
-42.9922  4.43777e+20
-42.8749  4.48225e+20
-42.7576  4.55742e+20
-42.6403  4.65964e+20
-42.523  4.77008e+20
-42.4057  4.86281e+20
-42.2884  4.90978e+20
-42.171  4.89013e+20
-42.0537  4.79662e+20
-41.9364  4.63931e+20
-41.8191  4.44431e+20
-41.7018  4.24959e+20
-41.5845  4.09416e+20
-41.4672  4.01029e+20
-41.3499  4.01362e+20
-41.2326  4.10067e+20
-41.1153  4.24618e+20
-40.998  4.41267e+20
-40.8807  4.55659e+20
-40.7634  4.64179e+20
-40.6461  4.64695e+20
-40.5288  4.57009e+20
-40.4115  4.43094e+20
-40.2942  4.26315e+20
-40.1769  4.10565e+20
-40.0596  3.99314e+20
-39.9423  3.94143e+20
-39.825  3.95211e+20
-39.7076  4.00564e+20
-39.5903  4.06889e+20
-39.473  4.10885e+20
-39.3557  4.09687e+20
-39.2384  4.02473e+20
-39.1211  3.9035e+20
-39.0038  3.76368e+20
-38.8865  3.64906e+20
-38.7692  3.60147e+20
-38.6519  3.65459e+20
-38.5346  3.81854e+20
-38.4173  4.08049e+20
-38.3  4.40424e+20
-38.1827  4.73818e+20
-38.0654  5.02952e+20
-37.9481  5.23643e+20
-37.8308  5.33459e+20
-37.7135  5.3274e+20
-37.5962  5.23979e+20
-37.4789  5.1117e+20
-37.3615  4.989e+20
-37.2442  4.90775e+20
-37.1269  4.88812e+20
-37.0096  4.92885e+20
-36.8923  5.01166e+20
-36.775  5.10675e+20
-36.6577  5.18323e+20
-36.5404  5.2223e+20
-36.4231  5.21779e+20
-36.3058  5.18234e+20
-36.1885  5.14063e+20
-36.0712  5.11995e+20
-35.9539  5.14022e+20
-35.8366  5.20624e+20
-35.7193  5.30331e+20
-35.602  5.39924e+20
-35.4847  5.45446e+20
-35.3674  5.43073e+20
-35.2501  5.30845e+20
-35.1328  5.09203e+20
-35.0154  4.81366e+20
-34.8981  4.53167e+20
-34.7808  4.31231e+20
-34.6635  4.22163e+20
-34.5462  4.3048e+20
-34.4289  4.57453e+20
-34.3116  5.00728e+20
-34.1943  5.54971e+20
-34.077  6.12389e+20
-33.9597  6.64835e+20
-33.8424  7.0551e+20
-33.7251  7.30247e+20
-33.6078  7.38203e+20
-33.4905  7.31718e+20
-33.3732  7.15799e+20
-33.2559  6.96462e+20
-33.1386  6.78859e+20
-33.0213  6.67171e+20
-32.904  6.62695e+20
-32.7867  6.64876e+20
-32.6693  6.71449e+20
-32.552  6.7951e+20
-32.4347  6.86723e+20
-32.3174  6.92164e+20
-32.2001  6.96156e+20
-32.0828  7.00661e+20
-31.9655  7.07994e+20
-31.8482  7.20181e+20
-31.7309  7.37571e+20
-31.6136  7.59154e+20
-31.4963  7.81805e+20
-31.379  8.01773e+20
-31.2617  8.15076e+20
-31.1444  8.18868e+20
-31.0271  8.12419e+20
-30.9098  7.97271e+20
-30.7925  7.77413e+20
-30.6752  7.57881e+20
-30.5579  7.43695e+20
-30.4406  7.39242e+20
-30.3232  7.46311e+20
-30.2059  7.64276e+20
-30.0886  7.89889e+20
-29.9713  8.18373e+20
-29.854  8.44533e+20
-29.7367  8.63858e+20
-29.6194  8.73662e+20
-29.5021  8.73548e+20
-29.3848  8.65214e+20
-29.2675  8.51922e+20
-29.1502  8.37015e+20
-29.0329  8.23706e+20
-28.9156  8.13553e+20
-28.7983  8.06207e+20
-28.681  8.00379e+20
-28.5637  7.93904e+20
-28.4464  7.84852e+20
-28.3291  7.72907e+20
-28.2118  7.59475e+20
-28.0944  7.47682e+20
-27.9771  7.42565e+20
-27.8598  7.48772e+20
-27.7425  7.70513e+20
-27.6252  8.09438e+20
-27.5079  8.6472e+20
-27.3906  9.32379e+20
-27.2733  1.00621e+21
-27.156  1.07874e+21
-27.0387  1.14258e+21
-26.9214  1.19238e+21
-26.8041  1.22516e+21
-26.6868  1.24108e+21
-26.5695  1.243e+21
-26.4522  1.23604e+21
-26.3349  1.22569e+21
-26.2176  1.21717e+21
-26.1003  1.2141e+21
-25.983  1.21809e+21
-25.8657  1.22872e+21
-25.7483  1.24406e+21
-25.631  1.26178e+21
-25.5137  1.27962e+21
-25.3964  1.29613e+21
-25.2791  1.31074e+21
-25.1618  1.32419e+21
-25.0445  1.33716e+21
-24.9272  1.35019e+21
-24.8099  1.36327e+21
-24.6926  1.37524e+21
-24.5753  1.38417e+21
-24.458  1.38851e+21
-24.3407  1.38738e+21
-24.2234  1.3812e+21
-24.1061  1.37355e+21
-23.9888  1.36974e+21
-23.8715  1.37691e+21
-23.7542  1.40239e+21
-23.6369  1.45327e+21
-23.5196  1.5332e+21
-23.4023  1.64286e+21
-23.2849  1.77862e+21
-23.1676  1.9328e+21
-23.0503  2.09543e+21
-22.933  2.25487e+21
-22.8157  2.40077e+21
-22.6984  2.52464e+21
-22.5811  2.62203e+21
-22.4638  2.6921e+21
-22.3465  2.7374e+21
-22.2292  2.76342e+21
-22.1119  2.77664e+21
-21.9946  2.7839e+21
-21.8773  2.79095e+21
-21.76  2.80247e+21
-21.6427  2.8215e+21
-21.5254  2.85056e+21
-21.4081  2.89203e+21
-21.2908  2.94855e+21
-21.1735  3.02248e+21
-21.0561  3.11732e+21
-20.9388  3.23513e+21
-20.8215  3.37693e+21
-20.7042  3.54108e+21
-20.5869  3.72334e+21
-20.4696  3.91705e+21
-20.3523  4.11355e+21
-20.235  4.3039e+21
-20.1177  4.48009e+21
-20.0004  4.63694e+21
-19.8831  4.77247e+21
-19.7658  4.88815e+21
-19.6485  4.98973e+21
-19.5312  5.08447e+21
-19.4139  5.18014e+21
-19.2966  5.2845e+21
-19.1793  5.40272e+21
-19.062  5.53762e+21
-18.9447  5.69012e+21
-18.8274  5.85948e+21
-18.71  6.04354e+21
-18.5927  6.24179e+21
-18.4754  6.45334e+21
-18.3581  6.67971e+21
-18.2408  6.9223e+21
-18.1235  7.1837e+21
-18.0062  7.46459e+21
-17.8889  7.76514e+21
-17.7716  8.08362e+21
-17.6543  8.41699e+21
-17.537  8.76278e+21
-17.4197  9.11927e+21
-17.3024  9.48617e+21
-17.1851  9.86759e+21
-17.0678  1.02697e+22
-16.9505  1.07003e+22
-16.8332  1.11692e+22
-16.7159  1.16835e+22
-16.5986  1.22485e+22
-16.4813  1.28641e+22
-16.364  1.35263e+22
-16.2466  1.42264e+22
-16.1293  1.49523e+22
-16.012  1.5692e+22
-15.8947  1.64328e+22
-15.7774  1.71662e+22
-15.6601  1.78867e+22
-15.5428  1.85929e+22
-15.4255  1.92874e+22
-15.3082  1.99747e+22
-15.1909  2.06599e+22
-15.0736  2.13487e+22
-14.9563  2.20455e+22
-14.839  2.2753e+22
-14.7217  2.34741e+22
-14.6044  2.42103e+22
-14.4871  2.49636e+22
-14.3698  2.57361e+22
-14.2525  2.6531e+22
-14.1352  2.73499e+22
-14.0178  2.81943e+22
-13.9005  2.90623e+22
-13.7832  2.99499e+22
-13.6659  3.08499e+22
-13.5486  3.17532e+22
-13.4313  3.26489e+22
-13.314  3.35271e+22
-13.1967  3.43806e+22
-13.0794  3.52044e+22
-12.9621  3.59986e+22
-12.8448  3.67664e+22
-12.7275  3.75138e+22
-12.6102  3.82481e+22
-12.4929  3.89761e+22
-12.3756  3.97023e+22
-12.2583  4.0429e+22
-12.141  4.11554e+22
-12.0237  4.18784e+22
-11.9064  4.25943e+22
-11.7891  4.32984e+22
-11.6718  4.39889e+22
-11.5544  4.46649e+22
-11.4371  4.53278e+22
-11.3198  4.59802e+22
-11.2025  4.66261e+22
-11.0852  4.72686e+22
-10.9679  4.79097e+22
-10.8506  4.85504e+22
-10.7333  4.91899e+22
-10.616  4.98282e+22
-10.4987  5.04648e+22
-10.3814  5.11003e+22
-10.2641  5.1738e+22
-10.1468  5.23818e+22
-10.0295  5.30376e+22
-9.91217  5.37105e+22
-9.79487  5.44038e+22
-9.67756  5.51189e+22
-9.56026  5.5854e+22
-9.44295  5.66033e+22
-9.32565  5.73582e+22
-9.20834  5.81095e+22
-9.09104  5.88473e+22
-8.97373  5.95631e+22
-8.85643  6.02514e+22
-8.73913  6.09104e+22
-8.62182  6.15413e+22
-8.50452  6.21475e+22
-8.38721  6.27345e+22
-8.26991  6.33087e+22
-8.1526  6.38755e+22
-8.03529  6.444e+22
-7.91799  6.50057e+22
-7.80069  6.55761e+22
-7.68338  6.61533e+22
-7.56608  6.67402e+22
-7.44877  6.73402e+22
-7.33146  6.79554e+22
-7.21416  6.85885e+22
-7.09685  6.92399e+22
-6.97955  6.99082e+22
-6.86224  7.05898e+22
-6.74494  7.12771e+22
-6.62763  7.1962e+22
-6.51033  7.26347e+22
-6.39302  7.32864e+22
-6.27572  7.39105e+22
-6.15842  7.45034e+22
-6.04111  7.50654e+22
-5.92381  7.56004e+22
-5.8065  7.61143e+22
-5.68919  7.66144e+22
-5.57189  7.71074e+22
-5.45458  7.75976e+22
-5.33728  7.80868e+22
-5.21997  7.85733e+22
-5.10267  7.90534e+22
-4.98536  7.95215e+22
-4.86806  7.99731e+22
-4.75075  8.04045e+22
-4.63345  8.08149e+22
-4.51614  8.12057e+22
-4.39884  8.15809e+22
-4.28154  8.1945e+22
-4.16423  8.23036e+22
-4.04692  8.266e+22
-3.92962  8.30166e+22
-3.81231  8.33736e+22
-3.69501  8.37293e+22
-3.5777  8.40818e+22
-3.4604  8.44294e+22
-3.34309  8.4771e+22
-3.22579  8.51075e+22
-3.10849  8.54399e+22
-2.99118  8.57703e+22
-2.87387  8.61002e+22
-2.75657  8.64291e+22
-2.63926  8.67547e+22
-2.52196  8.70724e+22
-2.40465  8.7376e+22
-2.28735  8.76593e+22
-2.17005  8.79163e+22
-2.05274  8.81436e+22
-1.93544  8.83401e+22
-1.81813  8.85083e+22
-1.70083  8.86528e+22
-1.58352  8.87793e+22
-1.46622  8.88932e+22
-1.34891  8.89985e+22
-1.2316  8.90971e+22
-1.1143  8.91881e+22
-0.996995  8.92689e+22
-0.87969  8.93362e+22
-0.762385  8.93865e+22
-0.64508  8.94197e+22
-0.527775  8.94361e+22
-0.41047  8.94396e+22
-0.293165  8.94349e+22
-0.17586  8.94278e+22
-0.058555  8.94224e+22
0.05875  8.94211e+22
0.176055  8.94229e+22
0.29336  8.94256e+22
0.410665  8.94233e+22
0.52797  8.94111e+22
0.645275  8.93845e+22
0.76258  8.9341e+22
0.879885  8.92797e+22
0.99719  8.92033e+22
1.1145  8.91149e+22
1.2318  8.90174e+22
1.3491  8.89134e+22
1.46641  8.88025e+22
1.58371  8.8682e+22
1.70102  8.85467e+22
1.81832  8.83912e+22
1.93563  8.82097e+22
2.05294  8.79985e+22
2.17024  8.77563e+22
2.28754  8.74854e+22
2.40485  8.71902e+22
2.52216  8.68771e+22
2.63946  8.65524e+22
2.75677  8.62222e+22
2.87407  8.589e+22
2.99137  8.55573e+22
3.10868  8.52235e+22
3.22599  8.4887e+22
3.34329  8.45458e+22
3.4606  8.41985e+22
3.5779  8.38453e+22
3.69521  8.34876e+22
3.81251  8.31272e+22
3.92982  8.27668e+22
4.04712  8.24067e+22
4.16443  8.20462e+22
4.28173  8.16826e+22
4.39903  8.13119e+22
4.51634  8.09283e+22
4.63364  8.05274e+22
4.75095  8.01063e+22
4.86825  7.96644e+22
4.98556  7.92038e+22
5.10286  7.87286e+22
5.22017  7.82442e+22
5.33748  7.77552e+22
5.45478  7.72649e+22
5.57209  7.67731e+22
5.68939  7.62771e+22
5.8067  7.57711e+22
5.924  7.52481e+22
6.0413  7.47009e+22
6.15861  7.41244e+22
6.27591  7.35156e+22
6.39322  7.28765e+22
6.51052  7.22121e+22
6.62783  7.15299e+22
6.74514  7.08397e+22
6.86244  7.01508e+22
6.97975  6.94714e+22
7.09705  6.88071e+22
7.21436  6.81609e+22
7.33166  6.75334e+22
7.44897  6.69229e+22
7.56627  6.63272e+22
7.68358  6.57432e+22
7.80088  6.51681e+22
7.91819  6.45994e+22
8.03549  6.40345e+22
8.1528  6.34695e+22
8.2701  6.29004e+22
8.38741  6.2322e+22
8.50471  6.17279e+22
8.62202  6.11123e+22
8.73932  6.04703e+22
8.85662  5.97987e+22
8.97393  5.90985e+22
9.09123  5.83728e+22
9.20854  5.76286e+22
9.32584  5.6875e+22
9.44315  5.61221e+22
9.56045  5.53787e+22
9.67776  5.46525e+22
9.79506  5.39471e+22
9.91237  5.32635e+22
10.0297  5.25988e+22
10.147  5.19486e+22
10.2643  5.13074e+22
10.3816  5.06706e+22
10.4989  5.00339e+22
10.6162  4.93956e+22
10.7335  4.87552e+22
10.8508  4.81133e+22
10.9681  4.74703e+22
11.0854  4.68259e+22
11.2027  4.61795e+22
11.32  4.55275e+22
11.4373  4.48676e+22
11.5546  4.41962e+22
11.6719  4.35116e+22
11.7893  4.28131e+22
11.9066  4.21022e+22
12.0239  4.13822e+22
12.1412  4.06575e+22
12.2585  3.99312e+22
12.3758  3.92058e+22
12.4931  3.84802e+22
12.6104  3.77516e+22
12.7277  3.70135e+22
12.845  3.62589e+22
12.9623  3.54807e+22
13.0796  3.46739e+22
13.1969  3.38364e+22
13.3142  3.29704e+22
13.4315  3.20815e+22
13.5488  3.11788e+22
13.6661  3.02726e+22
13.7834  2.93742e+22
13.9007  2.84913e+22
14.018  2.76306e+22
14.1354  2.67952e+22
14.2527  2.59862e+22
14.37  2.52012e+22
14.4873  2.44387e+22
14.6046  2.3695e+22
14.7219  2.29683e+22
14.8392  2.22566e+22
14.9565  2.15573e+22
15.0738  2.0868e+22
15.1911  2.01848e+22
15.3084  1.95029e+22
15.4257  1.88174e+22
15.543  1.81227e+22
15.6603  1.74145e+22
15.7776  1.6693e+22
15.8949  1.59604e+22
16.0122  1.52238e+22
16.1295  1.44936e+22
16.2468  1.37823e+22
16.3641  1.31024e+22
16.4815  1.24644e+22
16.5988  1.18756e+22
16.7161  1.13382e+22
16.8334  1.08499e+22
16.9507  1.04044e+22
17.068  9.99292e+21
17.1853  9.60628e+21
17.3026  9.23687e+21
17.4199  8.87962e+21
17.5372  8.53201e+21
17.6545  8.19475e+21
17.7718  7.87049e+21
17.8891  7.56208e+21
18.0064  7.27239e+21
18.1237  7.00192e+21
18.241  6.75107e+21
18.3583  6.51812e+21
18.4756  6.30089e+21
18.5929  6.09792e+21
18.7102  5.90889e+21
18.8275  5.73403e+21
18.9449  5.57511e+21
19.0622  5.43291e+21
19.1795  5.30851e+21
19.2968  5.20012e+21
19.4141  5.10337e+21
19.5314  5.01166e+21
19.6487  4.91771e+21
19.766  4.81332e+21
19.8833  4.6914e+21
20.0006  4.54858e+21
20.1179  4.38407e+21
20.2352  4.20133e+21
20.3525  4.00747e+21
20.4698  3.81096e+21
20.5871  3.621e+21
20.7044  3.44539e+21
20.8217  3.29025e+21
20.939  3.15862e+21
21.0563  3.05083e+21
21.1736  2.96548e+21
21.291  2.89931e+21
21.4083  2.84974e+21
21.5256  2.81371e+21
21.6429  2.78904e+21
21.7602  2.77345e+21
21.8775  2.7643e+21
21.9948  2.75788e+21
22.1121  2.74908e+21
22.2294  2.73186e+21
22.3467  2.69913e+21
22.464  2.64462e+21
22.5813  2.56399e+21
22.6986  2.45591e+21
22.8159  2.32263e+21
22.9332  2.17081e+21
23.0505  2.00969e+21
23.1678  1.85072e+21
23.2851  1.70478e+21
23.4024  1.58116e+21
23.5198  1.48559e+21
23.6371  1.42029e+21
23.7544  1.38246e+21
23.8717  1.36713e+21
23.989  1.36659e+21
24.1063  1.37348e+21
24.2236  1.38111e+21
24.3409  1.38521e+21
24.4582  1.3836e+21
24.5755  1.37657e+21
24.6928  1.36548e+21
24.8101  1.35256e+21
24.9274  1.33922e+21
25.0447  1.32615e+21
25.162  1.31331e+21
25.2793  1.29984e+21
25.3966  1.28492e+21
25.5139  1.26839e+21
25.6312  1.25102e+21
25.7485  1.23468e+21
25.8658  1.22158e+21
25.9832  1.21404e+21
26.1005  1.21355e+21
26.2178  1.21931e+21
26.3351  1.22892e+21
26.4524  1.23801e+21
26.5697  1.24115e+21
26.687  1.23289e+21
26.8043  1.20914e+21
26.9216  1.16824e+21
27.0389  1.11142e+21
27.1562  1.04285e+21
27.2735  9.69072e+20
27.3908  8.97362e+20
27.5081  8.34664e+20
27.6254  7.86519e+20
27.7427  7.55475e+20
27.86  7.40928e+20
27.9773  7.40296e+20
28.0946  7.48895e+20
28.212  7.61825e+20
28.3293  7.75021e+20
28.4466  7.85816e+20
28.5639  7.9383e+20
28.6812  8.00124e+20
28.7985  8.06534e+20
28.9158  8.14936e+20
29.0331  8.26534e+20
29.1504  8.40575e+20
29.2677  8.54806e+20
29.385  8.66176e+20
29.5023  8.70883e+20
29.6196  8.66636e+20
29.7369  8.52662e+20
29.8542  8.30277e+20
29.9715  8.03027e+20
30.0888  7.75689e+20
30.2061  7.53504e+20
30.3234  7.40505e+20
30.4407  7.38776e+20
30.558  7.47987e+20
30.6754  7.65068e+20
30.7927  7.85508e+20
30.91  8.03948e+20
31.0273  8.15693e+20
31.1446  8.17942e+20
31.2619  8.10015e+20
31.3792  7.93566e+20
31.4965  7.71932e+20
31.6138  7.4929e+20
31.7311  7.29101e+20
31.8484  7.13679e+20
31.9657  7.03519e+20
32.083  6.97459e+20
32.2003  6.93337e+20
32.3176  6.88984e+20
32.4349  6.82952e+20
32.5522  6.75368e+20
32.6695  6.67734e+20
32.7868  6.62661e+20
32.9042  6.62797e+20
33.0215  6.70005e+20
33.1388  6.83976e+20
33.2561  7.02493e+20
33.3734  7.20806e+20
33.4907  7.33282e+20
33.608  7.34299e+20
33.7253  7.19782e+20
33.8426  6.88497e+20
33.9599  6.42606e+20
34.0772  5.8749e+20
34.1945  5.3065e+20
34.3118  4.80234e+20
34.4291  4.4317e+20
34.5464  4.23904e+20
34.6637  4.2331e+20
34.781  4.38704e+20
34.8983  4.64632e+20
35.0156  4.94072e+20
35.1329  5.20535e+20
35.2503  5.39002e+20
35.3676  5.47235e+20
35.4849  5.45996e+20
35.6022  5.37922e+20
35.7195  5.27143e+20
35.8368  5.17688e+20
35.9541  5.12217e+20
36.0714  5.11551e+20
36.1887  5.14549e+20
36.306  5.18827e+20
36.4233  5.21581e+20
36.5406  5.20712e+20
36.6579  5.1554e+20
36.7752  5.07044e+20
36.8925  4.97859e+20
37.0098  4.91077e+20
37.1271  4.8936e+20
37.2444  4.93882e+20
37.3617  5.04048e+20
37.479  5.17028e+20
37.5964  5.28766e+20
37.7137  5.34641e+20
37.831  5.31108e+20
37.9483  5.16556e+20
38.0656  4.91755e+20
38.1829  4.5982e+20
38.3002  4.25848e+20
38.4175  3.95239e+20
38.5348  3.72637e+20
38.6521  3.60891e+20
38.7694  3.60363e+20
38.8867  3.68631e+20
39.004  3.82026e+20
39.1213  3.95882e+20
39.2386  4.06226e+20
39.3559  4.10708e+20
39.4732  4.09158e+20
39.5905  4.03478e+20
39.7078  3.96795e+20
39.8251  3.92827e+20
39.9425  3.94385e+20
40.0598  4.02595e+20
40.1771  4.16642e+20
40.2944  4.33703e+20
40.4117  4.49933e+20
40.529  4.61466e+20
40.6463  4.65427e+20
40.7636  4.60763e+20
40.8809  4.48604e+20
40.9982  4.32076e+20
41.1155  4.15379e+20
41.2328  4.02913e+20
41.3501  3.97931e+20
41.4674  4.01992e+20
41.5847  4.14459e+20
41.702  4.32847e+20
41.8193  4.53235e+20
41.9366  4.71685e+20
42.0539  4.84697e+20
42.1712  4.90492e+20
42.2885  4.889e+20
42.4059  4.81487e+20
42.5232  4.70807e+20
42.6405  4.59941e+20
42.7578  4.51065e+20
42.8751  4.45313e+20
42.9924  4.42452e+20
43.1097  4.41086e+20
43.227  4.39132e+20
43.3443  4.34787e+20
43.4616  4.27044e+20
43.5789  4.16234e+20
43.6962  4.03947e+20
43.8135  3.92839e+20
43.9308  3.85585e+20
44.0481  3.84285e+20
44.1654  3.89643e+20
44.2827  4.00399e+20
44.4  4.1349e+20
44.5173  4.24838e+20
44.6347  4.29961e+20
44.752  4.25381e+20
44.8693  4.09496e+20
44.9866  3.83089e+20
45.1039  3.49518e+20
45.2212  3.14048e+20
45.3385  2.82662e+20
45.4558  2.6081e+20
45.5731  2.52102e+20
45.6904  2.57562e+20
45.8077  2.75331e+20
45.925  3.01071e+20
46.0423  3.28959e+20
46.1596  3.53109e+20
46.2769  3.69096e+20
46.3942  3.7458e+20
46.5115  3.69811e+20
46.6288  3.57707e+20
46.7461  3.42425e+20
46.8634  3.28579e+20
46.9808  3.198e+20
47.0981  3.1779e+20
47.2154  3.22167e+20
47.3327  3.30635e+20
47.45  3.39665e+20
47.5673  3.45775e+20
47.6846  3.46793e+20
47.8019  3.42029e+20
47.9192  3.32816e+20
48.0365  3.22214e+20
48.1538  3.13572e+20
48.2711  3.09706e+20
48.3884  3.1217e+20
48.5057  3.20356e+20
48.623  3.31671e+20
48.7403  3.42436e+20
48.8576  3.48918e+20
48.9749  3.48174e+20
49.0922  3.39246e+20
49.2095  3.23607e+20
49.3269  3.0461e+20
49.4442  2.8663e+20
49.5615  2.73883e+20
49.6788  2.69264e+20
49.7961  2.73409e+20
49.9134  2.84426e+20
50.0307  2.98653e+20
50.148  3.11369e+20
50.2653  3.18456e+20
50.3826  3.17435e+20
50.4999  3.0837e+20
50.6172  2.9378e+20
50.7345  2.78089e+20
