#S 1 spectral density
#N 2
#UFWHM 32.7281
#L  abscissas [um]  spectral density
-58.5938  1.67675e+20
-58.4764  1.56855e+20
-58.3591  1.46878e+20
-58.2418  1.40822e+20
-58.1245  1.41289e+20
-58.0072  1.49679e+20
-57.8899  1.65528e+20
-57.7726  1.86595e+20
-57.6553  2.09182e+20
-57.538  2.28842e+20
-57.4207  2.41457e+20
-57.3034  2.44116e+20
-57.1861  2.35902e+20
-57.0688  2.18202e+20
-56.9515  1.94314e+20
-56.8342  1.68741e+20
-56.7169  1.46407e+20
-56.5996  1.31221e+20
-56.4823  1.254e+20
-56.365  1.29057e+20
-56.2477  1.40073e+20
-56.1303  1.55077e+20
-56.013  1.69889e+20
-55.8957  1.81064e+20
-55.7784  1.86477e+20
-55.6611  1.86094e+20
-55.5438  1.81657e+20
-55.4265  1.76367e+20
-55.3092  1.73802e+20
-55.1919  1.77036e+20
-55.0746  1.87518e+20
-54.9573  2.04877e+20
-54.84  2.26787e+20
-54.7227  2.49843e+20
-54.6054  2.70146e+20
-54.4881  2.84586e+20
-54.3708  2.91707e+20
-54.2535  2.91904e+20
-54.1362  2.87487e+20
-54.0189  2.81645e+20
-53.9016  2.77757e+20
-53.7842  2.78063e+20
-53.6669  2.83224e+20
-53.5496  2.91858e+20
-53.4323  3.00866e+20
-53.315  3.06602e+20
-53.1977  3.05661e+20
-53.0804  2.96307e+20
-52.9631  2.78867e+20
-52.8458  2.55816e+20
-52.7285  2.31501e+20
-52.6112  2.10632e+20
-52.4939  1.97353e+20
-52.3766  1.93962e+20
-52.2593  2.00212e+20
-52.142  2.13343e+20
-52.0247  2.28971e+20
-51.9074  2.42119e+20
-51.7901  2.48615e+20
-51.6728  2.46515e+20
-51.5555  2.36373e+20
-51.4381  2.21203e+20
-51.3208  2.05836e+20
-51.2035  1.95139e+20
-51.0862  1.93149e+20
-50.9689  2.01472e+20
-50.8516  2.19035e+20
-50.7343  2.4211e+20
-50.617  2.65628e+20
-50.4997  2.84127e+20
-50.3824  2.93523e+20
-50.2651  2.92011e+20
-50.1478  2.80683e+20
-50.0305  2.62882e+20
-49.9132  2.43574e+20
-49.7959  2.27783e+20
-49.6786  2.19211e+20
-49.5613  2.19552e+20
-49.444  2.27945e+20
-49.3267  2.4146e+20
-49.2094  2.56167e+20
-49.092  2.68198e+20
-48.9747  2.75077e+20
-48.8574  2.76279e+20
-48.7401  2.73349e+20
-48.6228  2.69305e+20
-48.5055  2.67613e+20
-48.3882  2.71053e+20
-48.2709  2.80761e+20
-48.1536  2.95786e+20
-48.0363  3.1336e+20
-47.919  3.29643e+20
-47.8017  3.40849e+20
-47.6844  3.44552e+20
-47.5671  3.40256e+20
-47.4498  3.29616e+20
-47.3325  3.16363e+20
-47.2152  3.04907e+20
-47.0979  2.99219e+20
-46.9806  3.01679e+20
-46.8633  3.12367e+20
-46.7459  3.28921e+20
-46.6286  3.46985e+20
-46.5113  3.61443e+20
-46.394  3.67775e+20
-46.2767  3.63272e+20
-46.1594  3.47751e+20
-46.0421  3.23669e+20
-45.9248  2.95794e+20
-45.8075  2.69723e+20
-45.6902  2.50847e+20
-45.5729  2.42933e+20
-45.4556  2.47247e+20
-45.3383  2.62599e+20
-45.221  2.85328e+20
-45.1037  3.10527e+20
-44.9864  3.33354e+20
-44.8691  3.49957e+20
-44.7518  3.58427e+20
-44.6345  3.58875e+20
-44.5172  3.53425e+20
-44.3998  3.45249e+20
-44.2825  3.37596e+20
-44.1652  3.33107e+20
-44.0479  3.32624e+20
-43.9306  3.3559e+20
-43.8133  3.3992e+20
-43.696  3.42979e+20
-43.5787  3.42345e+20
-43.4614  3.36401e+20
-43.3441  3.25254e+20
-43.2268  3.10383e+20
-43.1095  2.94528e+20
-42.9922  2.80959e+20
-42.8749  2.72389e+20
-42.7576  2.70378e+20
-42.6403  2.74925e+20
-42.523  2.84188e+20
-42.4057  2.9517e+20
-42.2884  3.04457e+20
-42.171  3.09045e+20
-42.0537  3.07168e+20
-41.9364  2.98825e+20
-41.8191  2.85631e+20
-41.7018  2.70643e+20
-41.5845  2.57379e+20
-41.4672  2.48852e+20
-41.3499  2.46735e+20
-41.2326  2.51111e+20
-41.1153  2.60102e+20
-40.998  2.70642e+20
-40.8807  2.79346e+20
-40.7634  2.83305e+20
-40.6461  2.8095e+20
-40.5288  2.7276e+20
-40.4115  2.60877e+20
-40.2942  2.48622e+20
-40.1769  2.398e+20
-40.0596  2.37367e+20
-39.9423  2.42576e+20
-39.825  2.5483e+20
-39.7076  2.71442e+20
-39.5903  2.88502e+20
-39.473  3.01897e+20
-39.3557  3.08394e+20
-39.2384  3.06676e+20
-39.1211  2.97669e+20
-39.0038  2.84567e+20
-38.8865  2.71858e+20
-38.7692  2.64381e+20
-38.6519  2.65977e+20
-38.5346  2.7869e+20
-38.4173  3.02e+20
-38.3  3.33175e+20
-38.1827  3.67886e+20
-38.0654  4.01236e+20
-37.9481  4.2926e+20
-37.8308  4.49333e+20
-37.7135  4.61192e+20
-37.5962  4.66211e+20
-37.4789  4.67245e+20
-37.3615  4.67278e+20
-37.2442  4.68568e+20
-37.1269  4.71613e+20
-37.0096  4.75667e+20
-36.8923  4.78357e+20
-36.775  4.7705e+20
-36.6577  4.69573e+20
-36.5404  4.55528e+20
-36.4231  4.36294e+20
-36.3058  4.15354e+20
-36.1885  3.97348e+20
-36.0712  3.86861e+20
-35.9539  3.87433e+20
-35.8366  4.00034e+20
-35.7193  4.22937e+20
-35.602  4.51722e+20
-35.4847  4.80409e+20
-35.3674  5.02533e+20
-35.2501  5.12815e+20
-35.1328  5.08607e+20
-35.0154  4.90202e+20
-34.8981  4.60833e+20
-34.7808  4.25877e+20
-34.6635  3.91533e+20
-34.5462  3.63061e+20
-34.4289  3.4369e+20
-34.3116  3.34177e+20
-34.1943  3.32637e+20
-34.077  3.35147e+20
-33.9597  3.37453e+20
-33.8424  3.35796e+20
-33.7251  3.28228e+20
-33.6078  3.15131e+20
-33.4905  2.98576e+20
-33.3732  2.82068e+20
-33.2559  2.69134e+20
-33.1386  2.62083e+20
-33.0213  2.61563e+20
-32.904  2.66002e+20
-32.7867  2.72295e+20
-32.6693  2.7685e+20
-32.552  2.76472e+20
-32.4347  2.6997e+20
-32.3174  2.58405e+20
-32.2001  2.4544e+20
-32.0828  2.36378e+20
-31.9655  2.37099e+20
-31.8482  2.52594e+20
-31.7309  2.85602e+20
-31.6136  3.35886e+20
-31.4963  4.00238e+20
-31.379  4.72843e+20
-31.2617  5.46607e+20
-31.1444  6.14647e+20
-31.0271  6.71337e+20
-30.9098  7.13471e+20
-30.7925  7.40277e+20
-30.6752  7.53516e+20
-30.5579  7.56006e+20
-30.4406  7.51486e+20
-30.3232  7.42897e+20
-30.2059  7.3254e+20
-30.0886  7.21642e+20
-29.9713  7.10785e+20
-29.854  7.00811e+20
-29.7367  6.93364e+20
-29.6194  6.91198e+20
-29.5021  6.98449e+20
-29.3848  7.19685e+20
-29.2675  7.59168e+20
-29.1502  8.19767e+20
-29.0329  9.0175e+20
-28.9156  1.00231e+21
-28.7983  1.11579e+21
-28.681  1.23414e+21
-28.5637  1.34863e+21
-28.4464  1.45094e+21
-28.3291  1.53533e+21
-28.2118  1.59895e+21
-28.0944  1.64298e+21
-27.9771  1.67163e+21
-27.8598  1.69151e+21
-27.7425  1.71003e+21
-27.6252  1.73376e+21
-27.5079  1.76792e+21
-27.3906  1.81465e+21
-27.2733  1.87389e+21
-27.156  1.9437e+21
-27.0387  2.0208e+21
-26.9214  2.10233e+21
-26.8041  2.18633e+21
-26.6868  2.27197e+21
-26.5695  2.36001e+21
-26.4522  2.45209e+21
-26.3349  2.55024e+21
-26.2176  2.6558e+21
-26.1003  2.76995e+21
-25.983  2.89282e+21
-25.8657  3.02432e+21
-25.7483  3.16517e+21
-25.631  3.31735e+21
-25.5137  3.48457e+21
-25.3964  3.67249e+21
-25.2791  3.88886e+21
-25.1618  4.14131e+21
-25.0445  4.43673e+21
-24.9272  4.77978e+21
-24.8099  5.17125e+21
-24.6926  5.60811e+21
-24.5753  6.08249e+21
-24.458  6.5833e+21
-24.3407  7.09819e+21
-24.2234  7.61443e+21
-24.1061  8.12019e+21
-23.9888  8.60777e+21
-23.8715  9.07232e+21
-23.7542  9.51306e+21
-23.6369  9.93289e+21
-23.5196  1.03367e+22
-23.4023  1.07312e+22
-23.2849  1.11247e+22
-23.1676  1.15248e+22
-23.0503  1.194e+22
-22.933  1.23796e+22
-22.8157  1.28528e+22
-22.6984  1.33691e+22
-22.5811  1.39381e+22
-22.4638  1.45674e+22
-22.3465  1.52628e+22
-22.2292  1.60255e+22
-22.1119  1.68517e+22
-21.9946  1.77314e+22
-21.8773  1.86504e+22
-21.76  1.95891e+22
-21.6427  2.05257e+22
-21.5254  2.14393e+22
-21.4081  2.23107e+22
-21.2908  2.31263e+22
-21.1735  2.38775e+22
-21.0561  2.45632e+22
-20.9388  2.51872e+22
-20.8215  2.57584e+22
-20.7042  2.62883e+22
-20.5869  2.67891e+22
-20.4696  2.72731e+22
-20.3523  2.77506e+22
-20.235  2.82299e+22
-20.1177  2.87177e+22
-20.0004  2.92194e+22
-19.8831  2.97382e+22
-19.7658  3.02762e+22
-19.6485  3.08349e+22
-19.5312  3.1412e+22
-19.4139  3.20045e+22
-19.2966  3.26065e+22
-19.1793  3.32091e+22
-19.062  3.38024e+22
-18.9447  3.43766e+22
-18.8274  3.49229e+22
-18.71  3.5435e+22
-18.5927  3.59111e+22
-18.4754  3.63531e+22
-18.3581  3.67668e+22
-18.2408  3.71606e+22
-18.1235  3.75434e+22
-18.0062  3.79232e+22
-17.8889  3.83053e+22
-17.7716  3.86913e+22
-17.6543  3.90794e+22
-17.537  3.94647e+22
-17.4197  3.98413e+22
-17.3024  4.02037e+22
-17.1851  4.05477e+22
-17.0678  4.08724e+22
-16.9505  4.11798e+22
-16.8332  4.14744e+22
-16.7159  4.17619e+22
-16.5986  4.20488e+22
-16.4813  4.23398e+22
-16.364  4.26389e+22
-16.2466  4.29485e+22
-16.1293  4.32693e+22
-16.012  4.36024e+22
-15.8947  4.39493e+22
-15.7774  4.43128e+22
-15.6601  4.4697e+22
-15.5428  4.51063e+22
-15.4255  4.55447e+22
-15.3082  4.60146e+22
-15.1909  4.65149e+22
-15.0736  4.70413e+22
-14.9563  4.75856e+22
-14.839  4.81373e+22
-14.7217  4.86846e+22
-14.6044  4.92165e+22
-14.4871  4.97238e+22
-14.3698  5.02011e+22
-14.2525  5.06478e+22
-14.1352  5.10656e+22
-14.0178  5.14599e+22
-13.9005  5.18375e+22
-13.7832  5.22052e+22
-13.6659  5.25685e+22
-13.5486  5.29322e+22
-13.4313  5.33001e+22
-13.314  5.36743e+22
-13.1967  5.40576e+22
-13.0794  5.44528e+22
-12.9621  5.48636e+22
-12.8448  5.52939e+22
-12.7275  5.57468e+22
-12.6102  5.62239e+22
-12.4929  5.6725e+22
-12.3756  5.72459e+22
-12.2583  5.77801e+22
-12.141  5.83191e+22
-12.0237  5.88531e+22
-11.9064  5.93736e+22
-11.7891  5.98742e+22
-11.6718  6.03523e+22
-11.5544  6.08088e+22
-11.4371  6.12476e+22
-11.3198  6.16755e+22
-11.2025  6.20997e+22
-11.0852  6.25263e+22
-10.9679  6.29586e+22
-10.8506  6.33976e+22
-10.7333  6.38405e+22
-10.616  6.42829e+22
-10.4987  6.47188e+22
-10.3814  6.51422e+22
-10.2641  6.55497e+22
-10.1468  6.59386e+22
-10.0295  6.63095e+22
-9.91217  6.66646e+22
-9.79487  6.7007e+22
-9.67756  6.73405e+22
-9.56026  6.76683e+22
-9.44295  6.79925e+22
-9.32565  6.83149e+22
-9.20834  6.86364e+22
-9.09104  6.89581e+22
-8.97373  6.92819e+22
-8.85643  6.96103e+22
-8.73913  6.99463e+22
-8.62182  7.02927e+22
-8.50452  7.06519e+22
-8.38721  7.10236e+22
-8.26991  7.14055e+22
-8.1526  7.17926e+22
-8.03529  7.21776e+22
-7.91799  7.25519e+22
-7.80069  7.29068e+22
-7.68338  7.32355e+22
-7.56608  7.35339e+22
-7.44877  7.38013e+22
-7.33146  7.40402e+22
-7.21416  7.42564e+22
-7.09685  7.44564e+22
-6.97955  7.46475e+22
-6.86224  7.48356e+22
-6.74494  7.5024e+22
-6.62763  7.52143e+22
-6.51033  7.54055e+22
-6.39302  7.55956e+22
-6.27572  7.57829e+22
-6.15842  7.59663e+22
-6.04111  7.61464e+22
-5.92381  7.6326e+22
-5.8065  7.65087e+22
-5.68919  7.66986e+22
-5.57189  7.68993e+22
-5.45458  7.7113e+22
-5.33728  7.73396e+22
-5.21997  7.75768e+22
-5.10267  7.78213e+22
-4.98536  7.80687e+22
-4.86806  7.83157e+22
-4.75075  7.85603e+22
-4.63345  7.88024e+22
-4.51614  7.90433e+22
-4.39884  7.9286e+22
-4.28154  7.95321e+22
-4.16423  7.97832e+22
-4.04692  8.00382e+22
-3.92962  8.02938e+22
-3.81231  8.05441e+22
-3.69501  8.0783e+22
-3.5777  8.1004e+22
-3.4604  8.12027e+22
-3.34309  8.13774e+22
-3.22579  8.15292e+22
-3.10849  8.16628e+22
-2.99118  8.17839e+22
-2.87387  8.19e+22
-2.75657  8.20172e+22
-2.63926  8.21397e+22
-2.52196  8.22697e+22
-2.40465  8.24069e+22
-2.28735  8.25491e+22
-2.17005  8.26938e+22
-2.05274  8.28384e+22
-1.93544  8.29821e+22
-1.81813  8.31254e+22
-1.70083  8.32698e+22
-1.58352  8.34168e+22
-1.46622  8.35678e+22
-1.34891  8.37217e+22
-1.2316  8.38762e+22
-1.1143  8.40259e+22
-0.996995  8.4165e+22
-0.87969  8.42873e+22
-0.762385  8.4388e+22
-0.64508  8.44647e+22
-0.527775  8.45179e+22
-0.41047  8.45507e+22
-0.293165  8.45684e+22
-0.17586  8.45763e+22
-0.058555  8.45788e+22
0.05875  8.45785e+22
0.176055  8.45742e+22
0.29336  8.45628e+22
0.410665  8.4539e+22
0.52797  8.44972e+22
0.645275  8.44327e+22
0.76258  8.43436e+22
0.879885  8.42305e+22
0.99719  8.4097e+22
1.1145  8.39487e+22
1.2318  8.37924e+22
1.3491  8.36336e+22
1.46641  8.34768e+22
1.58371  8.33238e+22
1.70102  8.31747e+22
1.81832  8.3028e+22
1.93563  8.28814e+22
2.05294  8.27338e+22
2.17024  8.25852e+22
2.28754  8.2437e+22
2.40485  8.22919e+22
2.52216  8.21525e+22
2.63946  8.20203e+22
2.75677  8.18952e+22
2.87407  8.17743e+22
2.99137  8.16525e+22
3.10868  8.15232e+22
3.22599  8.13796e+22
3.34329  8.12162e+22
3.4606  8.10296e+22
3.5779  8.08198e+22
3.69521  8.05898e+22
3.81251  8.03447e+22
3.92982  8.00911e+22
4.04712  7.9835e+22
4.16443  7.95806e+22
4.28173  7.93305e+22
4.39903  7.90845e+22
4.51634  7.88405e+22
4.63364  7.8596e+22
4.75095  7.83486e+22
4.86825  7.80975e+22
4.98556  7.7844e+22
5.10286  7.75908e+22
5.22017  7.73421e+22
5.33748  7.71023e+22
5.45478  7.68745e+22
5.57209  7.66601e+22
5.68939  7.64587e+22
5.8067  7.62673e+22
5.924  7.60818e+22
6.0413  7.58985e+22
6.15861  7.57138e+22
6.27591  7.55257e+22
6.39322  7.53343e+22
6.51052  7.51414e+22
6.62783  7.49487e+22
6.74514  7.47578e+22
6.86244  7.4569e+22
6.97975  7.43797e+22
7.09705  7.41851e+22
7.21436  7.39789e+22
7.33166  7.37536e+22
7.44897  7.35026e+22
7.56627  7.32217e+22
7.68358  7.29091e+22
7.80088  7.25674e+22
7.91819  7.22021e+22
8.03549  7.18206e+22
8.1528  7.1432e+22
8.2701  7.10443e+22
8.38741  7.06642e+22
8.50471  7.02953e+22
8.62202  6.99394e+22
8.73932  6.95954e+22
8.85662  6.92608e+22
8.97393  6.89328e+22
9.09123  6.86087e+22
9.20854  6.82862e+22
9.32584  6.79637e+22
9.44315  6.76404e+22
9.56045  6.73147e+22
9.67776  6.69848e+22
9.79506  6.66476e+22
9.91237  6.63001e+22
10.0297  6.59383e+22
10.147  6.55598e+22
10.2643  6.51629e+22
10.3816  6.47488e+22
10.4989  6.43201e+22
10.6162  6.38825e+22
10.7335  6.34412e+22
10.8508  6.3002e+22
10.9681  6.25684e+22
11.0854  6.21414e+22
11.2027  6.17191e+22
11.32  6.12957e+22
11.4373  6.08649e+22
11.5546  6.04192e+22
11.6719  5.99529e+22
11.7893  5.94629e+22
11.9066  5.895e+22
12.0239  5.84184e+22
12.1412  5.78759e+22
12.2585  5.73318e+22
12.3758  5.67962e+22
12.4931  5.62767e+22
12.6104  5.57794e+22
12.7277  5.53072e+22
12.845  5.48597e+22
12.9623  5.44347e+22
13.0796  5.40286e+22
13.1969  5.36376e+22
13.3142  5.3258e+22
13.4315  5.28867e+22
13.5488  5.25209e+22
13.6661  5.21577e+22
13.7834  5.17929e+22
13.9007  5.14212e+22
14.018  5.10363e+22
14.1354  5.06315e+22
14.2527  5.02008e+22
14.37  4.97402e+22
14.4873  4.92491e+22
14.6046  4.87304e+22
14.7219  4.81912e+22
14.8392  4.76415e+22
14.9565  4.7093e+22
15.0738  4.65571e+22
15.1911  4.60432e+22
15.3084  4.5558e+22
15.4257  4.51042e+22
15.543  4.46809e+22
15.6603  4.42844e+22
15.7776  4.39106e+22
15.8949  4.35548e+22
16.0122  4.3213e+22
16.1295  4.28834e+22
16.2468  4.25648e+22
16.3641  4.22568e+22
16.4815  4.1958e+22
16.5988  4.16662e+22
16.7161  4.13778e+22
16.8334  4.10873e+22
16.9507  4.07889e+22
17.068  4.04769e+22
17.1853  4.0148e+22
17.3026  3.98014e+22
17.4199  3.94385e+22
17.5372  3.90639e+22
17.6545  3.8683e+22
17.7718  3.83011e+22
17.8891  3.79212e+22
18.0064  3.75436e+22
18.1237  3.71646e+22
18.241  3.67778e+22
18.3583  3.63744e+22
18.4756  3.59457e+22
18.5929  3.54841e+22
18.7102  3.49858e+22
18.8275  3.44503e+22
18.9449  3.38823e+22
19.0622  3.32892e+22
19.1795  3.26811e+22
19.2968  3.20683e+22
19.4141  3.14604e+22
19.5314  3.0865e+22
19.6487  3.02871e+22
19.766  2.97296e+22
19.8833  2.91922e+22
20.0006  2.86737e+22
20.1179  2.81713e+22
20.2352  2.76807e+22
20.3525  2.71961e+22
20.4698  2.67106e+22
20.5871  2.62147e+22
20.7044  2.5697e+22
20.8217  2.5146e+22
20.939  2.45493e+22
21.0563  2.38963e+22
21.1736  2.31799e+22
21.291  2.23986e+22
21.4083  2.15565e+22
21.5256  2.0664e+22
21.6429  1.97378e+22
21.7602  1.87979e+22
21.8775  1.7866e+22
21.9948  1.69628e+22
22.1121  1.61065e+22
22.2294  1.53091e+22
22.3467  1.45778e+22
22.464  1.39141e+22
22.5813  1.33145e+22
22.6986  1.27728e+22
22.8159  1.22796e+22
22.9332  1.18257e+22
23.0505  1.14018e+22
23.1678  1.0999e+22
23.2851  1.06087e+22
23.4024  1.02223e+22
23.5198  9.83276e+21
23.6371  9.43201e+21
23.7544  9.01391e+21
23.8717  8.5745e+21
23.989  8.11214e+21
24.1063  7.62903e+21
24.2236  7.13137e+21
24.3409  6.62871e+21
24.4582  6.13304e+21
24.5755  5.6566e+21
24.6928  5.21204e+21
24.8101  4.80813e+21
24.9274  4.45062e+21
25.0447  4.14038e+21
25.162  3.87517e+21
25.2793  3.64891e+21
25.3966  3.45374e+21
25.5139  3.28242e+21
25.6312  3.12802e+21
25.7485  2.98609e+21
25.8658  2.85385e+21
25.9832  2.73032e+21
26.1005  2.61584e+21
26.2178  2.5105e+21
26.3351  2.41387e+21
26.4524  2.32497e+21
26.5697  2.24188e+21
26.687  2.16278e+21
26.8043  2.086e+21
26.9216  2.01139e+21
27.0389  1.93973e+21
27.1562  1.87336e+21
27.2735  1.81504e+21
27.3908  1.76725e+21
27.5081  1.73103e+21
27.6254  1.70532e+21
27.7427  1.68664e+21
27.86  1.66938e+21
27.9773  1.64638e+21
28.0946  1.61092e+21
28.212  1.55744e+21
28.3293  1.48353e+21
28.4466  1.38977e+21
28.5639  1.2809e+21
28.6812  1.1638e+21
28.7985  1.04715e+21
28.9158  9.39334e+20
29.0331  8.47494e+20
29.1504  7.75885e+20
29.2677  7.25879e+20
29.385  6.95737e+20
29.5023  6.82035e+20
29.6196  6.80106e+20
29.7369  6.85406e+20
29.8542  6.94426e+20
29.9715  7.04948e+20
30.0888  7.15665e+20
30.2061  7.26153e+20
30.3234  7.35537e+20
30.4407  7.42374e+20
30.558  7.4399e+20
30.6754  7.37296e+20
30.7927  7.1894e+20
30.91  6.8631e+20
31.0273  6.38787e+20
31.1446  5.78005e+20
31.2619  5.08288e+20
31.3792  4.35592e+20
31.4965  3.6704e+20
31.6138  3.09203e+20
31.7311  2.66753e+20
31.8484  2.41747e+20
31.9657  2.33211e+20
32.083  2.37288e+20
32.2003  2.48574e+20
32.3176  2.6139e+20
32.4349  2.70956e+20
32.5522  2.74669e+20
32.6695  2.72439e+20
32.7868  2.66261e+20
32.9042  2.59728e+20
33.0215  2.5635e+20
33.1388  2.58762e+20
33.2561  2.67752e+20
33.3734  2.82102e+20
33.4907  2.98866e+20
33.608  3.14496e+20
33.7253  3.25931e+20
33.8426  3.31516e+20
33.9599  3.31884e+20
34.0772  3.29687e+20
34.1945  3.28851e+20
34.3118  3.33644e+20
34.4291  3.47249e+20
34.5464  3.70582e+20
34.6637  4.01965e+20
34.781  4.37128e+20
34.8983  4.7037e+20
35.0156  4.95645e+20
35.1329  5.08293e+20
35.2503  5.06101e+20
35.3676  4.89982e+20
35.4849  4.63819e+20
35.6022  4.33574e+20
35.7195  4.05696e+20
35.8368  3.85963e+20
35.9541  3.77906e+20
36.0714  3.82157e+20
36.1887  3.96578e+20
36.306  4.1718e+20
36.4233  4.38899e+20
36.5406  4.57489e+20
36.6579  4.69881e+20
36.7752  4.75367e+20
36.8925  4.75157e+20
37.0098  4.71691e+20
37.1271  4.67632e+20
37.2444  4.65034e+20
37.3617  4.64173e+20
37.479  4.63866e+20
37.5964  4.61552e+20
37.7137  4.54117e+20
37.831  4.39236e+20
37.9483  4.16225e+20
38.0656  3.86126e+20
38.1829  3.5221e+20
38.3002  3.1905e+20
38.4175  2.9143e+20
38.5348  2.73032e+20
38.6521  2.6574e+20
38.7694  2.68918e+20
38.8867  2.79503e+20
39.004  2.93093e+20
39.1213  3.04673e+20
39.2386  3.10134e+20
39.3559  3.07354e+20
39.4732  2.96491e+20
39.5905  2.79955e+20
39.7078  2.6165e+20
39.8251  2.45998e+20
39.9425  2.36496e+20
40.0598  2.35049e+20
40.1771  2.41426e+20
40.2944  2.53163e+20
40.4117  2.66707e+20
40.529  2.7813e+20
40.6463  2.844e+20
40.7636  2.83929e+20
40.8809  2.77272e+20
40.9982  2.66778e+20
41.1155  2.55849e+20
41.2328  2.48011e+20
41.3501  2.45914e+20
41.4674  2.50669e+20
41.5847  2.61338e+20
41.702  2.75558e+20
41.8193  2.89775e+20
41.9366  3.00656e+20
42.0539  3.05639e+20
42.1712  3.0387e+20
42.2885  2.96207e+20
42.4059  2.8519e+20
42.5232  2.74133e+20
42.6405  2.66537e+20
42.7578  2.64807e+20
42.8751  2.6991e+20
42.9924  2.80996e+20
43.1097  2.95942e+20
43.227  3.11527e+20
43.3443  3.24799e+20
43.4616  3.33567e+20
43.5789  3.36985e+20
43.6962  3.35888e+20
43.8135  3.32371e+20
43.9308  3.29054e+20
44.0481  3.2824e+20
44.1654  3.3143e+20
44.2827  3.38313e+20
44.4  3.47159e+20
44.5173  3.54978e+20
44.6347  3.58456e+20
44.752  3.54886e+20
44.8693  3.42991e+20
44.9866  3.23586e+20
45.1039  2.99508e+20
45.2212  2.75106e+20
45.3385  2.55331e+20
45.4558  2.44492e+20
45.5731  2.45209e+20
45.6904  2.57703e+20
45.8077  2.79585e+20
45.925  3.06533e+20
46.0423  3.32918e+20
46.1596  3.53583e+20
46.2769  3.64745e+20
46.3942  3.649e+20
46.5115  3.55273e+20
46.6288  3.39353e+20
46.7461  3.21776e+20
46.8634  3.07408e+20
46.9808  2.99837e+20
47.0981  3.00434e+20
47.2154  3.0839e+20
47.3327  3.20711e+20
47.45  3.33268e+20
47.5673  3.41824e+20
47.6846  3.4363e+20
47.8019  3.37597e+20
47.9192  3.24849e+20
48.0365  3.08398e+20
48.1538  2.91946e+20
48.2711  2.78812e+20
48.3884  2.71133e+20
48.5057  2.69181e+20
48.623  2.71101e+20
48.7403  2.74039e+20
48.8576  2.74707e+20
48.9749  2.70641e+20
49.0922  2.61062e+20
49.2095  2.47355e+20
49.3269  2.32538e+20
49.4442  2.20565e+20
49.5615  2.15e+20
49.6788  2.18142e+20
49.7961  2.29849e+20
49.9134  2.47653e+20
50.0307  2.67254e+20
50.148  2.8345e+20
50.2653  2.9175e+20
50.3826  2.8949e+20
50.4999  2.76718e+20
50.6172  2.56074e+20
50.7345  2.32388e+20
50.8518  2.1109e+20
