#S 1 spectral density
#N 2
#UFWHM 117.188
#L  abscissas [um]  spectral density
-58.5938  1.20742e+22
-58.4764  1.20347e+22
-58.3591  1.19952e+22
-58.2418  1.19617e+22
-58.1245  1.19399e+22
-58.0072  1.19342e+22
-57.8899  1.19473e+22
-57.7726  1.19795e+22
-57.6553  1.20292e+22
-57.538  1.20929e+22
-57.4207  1.21665e+22
-57.3034  1.22452e+22
-57.1861  1.2325e+22
-57.0688  1.24022e+22
-56.9515  1.24746e+22
-56.8342  1.25406e+22
-56.7169  1.25992e+22
-56.5996  1.26491e+22
-56.4823  1.26892e+22
-56.365  1.27177e+22
-56.2477  1.27328e+22
-56.1303  1.2733e+22
-56.013  1.27176e+22
-55.8957  1.26872e+22
-55.7784  1.26442e+22
-55.6611  1.25927e+22
-55.5438  1.25384e+22
-55.4265  1.24878e+22
-55.3092  1.24469e+22
-55.1919  1.24206e+22
-55.0746  1.24121e+22
-54.9573  1.24216e+22
-54.84  1.24475e+22
-54.7227  1.2486e+22
-54.6054  1.25324e+22
-54.4881  1.25819e+22
-54.3708  1.26307e+22
-54.2535  1.26756e+22
-54.1362  1.27154e+22
-54.0189  1.27497e+22
-53.9016  1.2779e+22
-53.7842  1.28039e+22
-53.6669  1.28244e+22
-53.5496  1.28399e+22
-53.4323  1.28498e+22
-53.315  1.2853e+22
-53.1977  1.28499e+22
-53.0804  1.28417e+22
-52.9631  1.28314e+22
-52.8458  1.28232e+22
-52.7285  1.28222e+22
-52.6112  1.28331e+22
-52.4939  1.28596e+22
-52.3766  1.29031e+22
-52.2593  1.29623e+22
-52.142  1.30337e+22
-52.0247  1.31116e+22
-51.9074  1.31896e+22
-51.7901  1.32614e+22
-51.6728  1.33223e+22
-51.5555  1.33697e+22
-51.4381  1.34032e+22
-51.3208  1.34242e+22
-51.2035  1.34349e+22
-51.0862  1.34379e+22
-50.9689  1.34351e+22
-50.8516  1.34271e+22
-50.7343  1.34138e+22
-50.617  1.33944e+22
-50.4997  1.33682e+22
-50.3824  1.33359e+22
-50.2651  1.32993e+22
-50.1478  1.3262e+22
-50.0305  1.32284e+22
-49.9132  1.32034e+22
-49.7959  1.31911e+22
-49.6786  1.31938e+22
-49.5613  1.32115e+22
-49.444  1.32417e+22
-49.3267  1.32801e+22
-49.2094  1.33214e+22
-49.092  1.33609e+22
-48.9747  1.33945e+22
-48.8574  1.34203e+22
-48.7401  1.34388e+22
-48.6228  1.34516e+22
-48.5055  1.34619e+22
-48.3882  1.3473e+22
-48.2709  1.34873e+22
-48.1536  1.3506e+22
-48.0363  1.35295e+22
-47.919  1.35569e+22
-47.8017  1.35875e+22
-47.6844  1.36206e+22
-47.5671  1.36567e+22
-47.4498  1.36969e+22
-47.3325  1.37427e+22
-47.2152  1.3796e+22
-47.0979  1.38572e+22
-46.9806  1.39252e+22
-46.8633  1.39973e+22
-46.7459  1.40686e+22
-46.6286  1.41331e+22
-46.5113  1.41846e+22
-46.394  1.42178e+22
-46.2767  1.42295e+22
-46.1594  1.42188e+22
-46.0421  1.41881e+22
-45.9248  1.41419e+22
-45.8075  1.40861e+22
-45.6902  1.40276e+22
-45.5729  1.3972e+22
-45.4556  1.39241e+22
-45.3383  1.38866e+22
-45.221  1.38605e+22
-45.1037  1.38456e+22
-44.9864  1.38406e+22
-44.8691  1.38446e+22
-44.7518  1.38567e+22
-44.6345  1.3877e+22
-44.5172  1.39055e+22
-44.3998  1.39426e+22
-44.2825  1.39878e+22
-44.1652  1.40397e+22
-44.0479  1.40963e+22
-43.9306  1.41535e+22
-43.8133  1.42076e+22
-43.696  1.42547e+22
-43.5787  1.42915e+22
-43.4614  1.43163e+22
-43.3441  1.43296e+22
-43.2268  1.43337e+22
-43.1095  1.43322e+22
-42.9922  1.43298e+22
-42.8749  1.43313e+22
-42.7576  1.43404e+22
-42.6403  1.43596e+22
-42.523  1.43898e+22
-42.4057  1.44302e+22
-42.2884  1.44786e+22
-42.171  1.45329e+22
-42.0537  1.459e+22
-41.9364  1.46478e+22
-41.8191  1.47044e+22
-41.7018  1.47587e+22
-41.5845  1.48093e+22
-41.4672  1.48548e+22
-41.3499  1.48934e+22
-41.2326  1.49225e+22
-41.1153  1.49391e+22
-40.998  1.49405e+22
-40.8807  1.49242e+22
-40.7634  1.48898e+22
-40.6461  1.48383e+22
-40.5288  1.47731e+22
-40.4115  1.46992e+22
-40.2942  1.4623e+22
-40.1769  1.45513e+22
-40.0596  1.44902e+22
-39.9423  1.44442e+22
-39.825  1.44156e+22
-39.7076  1.44049e+22
-39.5903  1.44104e+22
-39.473  1.44292e+22
-39.3557  1.44584e+22
-39.2384  1.44952e+22
-39.1211  1.45377e+22
-39.0038  1.45852e+22
-38.8865  1.46373e+22
-38.7692  1.46939e+22
-38.6519  1.47547e+22
-38.5346  1.48181e+22
-38.4173  1.48818e+22
-38.3  1.49422e+22
-38.1827  1.49962e+22
-38.0654  1.50405e+22
-37.9481  1.50735e+22
-37.8308  1.50951e+22
-37.7135  1.51074e+22
-37.5962  1.51139e+22
-37.4789  1.5119e+22
-37.3615  1.51268e+22
-37.2442  1.51407e+22
-37.1269  1.51621e+22
-37.0096  1.51907e+22
-36.8923  1.52244e+22
-36.775  1.52601e+22
-36.6577  1.52946e+22
-36.5404  1.53254e+22
-36.4231  1.5351e+22
-36.3058  1.53715e+22
-36.1885  1.53878e+22
-36.0712  1.54013e+22
-35.9539  1.54133e+22
-35.8366  1.54239e+22
-35.7193  1.5432e+22
-35.602  1.54354e+22
-35.4847  1.54317e+22
-35.3674  1.54183e+22
-35.2501  1.53942e+22
-35.1328  1.53601e+22
-35.0154  1.53187e+22
-34.8981  1.52744e+22
-34.7808  1.52329e+22
-34.6635  1.51996e+22
-34.5462  1.51788e+22
-34.4289  1.51728e+22
-34.3116  1.51815e+22
-34.1943  1.52025e+22
-34.077  1.52318e+22
-33.9597  1.52652e+22
-33.8424  1.52985e+22
-33.7251  1.53296e+22
-33.6078  1.53574e+22
-33.4905  1.5383e+22
-33.3732  1.54083e+22
-33.2559  1.54355e+22
-33.1386  1.54663e+22
-33.0213  1.55007e+22
-32.904  1.55377e+22
-32.7867  1.5575e+22
-32.6693  1.56094e+22
-32.552  1.56383e+22
-32.4347  1.56598e+22
-32.3174  1.5674e+22
-32.2001  1.56822e+22
-32.0828  1.56873e+22
-31.9655  1.56926e+22
-31.8482  1.5701e+22
-31.7309  1.57141e+22
-31.6136  1.57322e+22
-31.4963  1.57535e+22
-31.379  1.57752e+22
-31.2617  1.57939e+22
-31.1444  1.58066e+22
-31.0271  1.58116e+22
-30.9098  1.58082e+22
-30.7925  1.57978e+22
-30.6752  1.57829e+22
-30.5579  1.57665e+22
-30.4406  1.57511e+22
-30.3232  1.57387e+22
-30.2059  1.57295e+22
-30.0886  1.57233e+22
-29.9713  1.57185e+22
-29.854  1.57141e+22
-29.7367  1.57091e+22
-29.6194  1.57042e+22
-29.5021  1.57011e+22
-29.3848  1.57024e+22
-29.2675  1.57111e+22
-29.1502  1.57299e+22
-29.0329  1.576e+22
-28.9156  1.58008e+22
-28.7983  1.58498e+22
-28.681  1.5903e+22
-28.5637  1.59555e+22
-28.4464  1.60026e+22
-28.3291  1.60407e+22
-28.2118  1.60679e+22
-28.0944  1.60847e+22
-27.9771  1.60928e+22
-27.8598  1.60958e+22
-27.7425  1.60972e+22
-27.6252  1.61004e+22
-27.5079  1.61074e+22
-27.3906  1.61185e+22
-27.2733  1.61331e+22
-27.156  1.61494e+22
-27.0387  1.61653e+22
-26.9214  1.61793e+22
-26.8041  1.61907e+22
-26.6868  1.62003e+22
-26.5695  1.62092e+22
-26.4522  1.62192e+22
-26.3349  1.62319e+22
-26.2176  1.62476e+22
-26.1003  1.62656e+22
-25.983  1.62837e+22
-25.8657  1.62989e+22
-25.7483  1.63078e+22
-25.631  1.63075e+22
-25.5137  1.62966e+22
-25.3964  1.62754e+22
-25.2791  1.62458e+22
-25.1618  1.62116e+22
-25.0445  1.61767e+22
-24.9272  1.61455e+22
-24.8099  1.61212e+22
-24.6926  1.61058e+22
-24.5753  1.60999e+22
-24.458  1.61025e+22
-24.3407  1.61121e+22
-24.2234  1.61272e+22
-24.1061  1.61466e+22
-23.9888  1.61701e+22
-23.8715  1.61982e+22
-23.7542  1.62317e+22
-23.6369  1.62716e+22
-23.5196  1.63176e+22
-23.4023  1.63685e+22
-23.2849  1.64211e+22
-23.1676  1.64713e+22
-23.0503  1.65142e+22
-22.933  1.65454e+22
-22.8157  1.65618e+22
-22.6984  1.6562e+22
-22.5811  1.65472e+22
-22.4638  1.6521e+22
-22.3465  1.64885e+22
-22.2292  1.64553e+22
-22.1119  1.6427e+22
-21.9946  1.64079e+22
-21.8773  1.64001e+22
-21.76  1.64041e+22
-21.6427  1.64187e+22
-21.5254  1.64415e+22
-21.4081  1.64699e+22
-21.2908  1.65016e+22
-21.1735  1.65356e+22
-21.0561  1.65709e+22
-20.9388  1.66076e+22
-20.8215  1.66457e+22
-20.7042  1.66845e+22
-20.5869  1.67221e+22
-20.4696  1.67562e+22
-20.3523  1.67833e+22
-20.235  1.67999e+22
-20.1177  1.68035e+22
-20.0004  1.67933e+22
-19.8831  1.67699e+22
-19.7658  1.67366e+22
-19.6485  1.66976e+22
-19.5312  1.66588e+22
-19.4139  1.66249e+22
-19.2966  1.66003e+22
-19.1793  1.65873e+22
-19.062  1.65862e+22
-18.9447  1.65959e+22
-18.8274  1.66139e+22
-18.71  1.66378e+22
-18.5927  1.66653e+22
-18.4754  1.66952e+22
-18.3581  1.67274e+22
-18.2408  1.67621e+22
-18.1235  1.68001e+22
-18.0062  1.68407e+22
-17.8889  1.68826e+22
-17.7716  1.6923e+22
-17.6543  1.69576e+22
-17.537  1.69821e+22
-17.4197  1.69928e+22
-17.3024  1.69871e+22
-17.1851  1.69652e+22
-17.0678  1.69294e+22
-16.9505  1.68846e+22
-16.8332  1.68369e+22
-16.7159  1.67925e+22
-16.5986  1.67571e+22
-16.4813  1.67345e+22
-16.364  1.67256e+22
-16.2466  1.67299e+22
-16.1293  1.67445e+22
-16.012  1.67661e+22
-15.8947  1.67912e+22
-15.7774  1.68175e+22
-15.6601  1.68439e+22
-15.5428  1.68706e+22
-15.4255  1.68982e+22
-15.3082  1.69278e+22
-15.1909  1.69594e+22
-15.0736  1.69919e+22
-14.9563  1.70229e+22
-14.839  1.70495e+22
-14.7217  1.70677e+22
-14.6044  1.70753e+22
-14.4871  1.70712e+22
-14.3698  1.7056e+22
-14.2525  1.70328e+22
-14.1352  1.70056e+22
-14.0178  1.69795e+22
-13.9005  1.69589e+22
-13.7832  1.69468e+22
-13.6659  1.69448e+22
-13.5486  1.69521e+22
-13.4313  1.69668e+22
-13.314  1.69859e+22
-13.1967  1.70065e+22
-13.0794  1.70269e+22
-12.9621  1.70462e+22
-12.8448  1.7065e+22
-12.7275  1.70847e+22
-12.6102  1.71065e+22
-12.4929  1.71313e+22
-12.3756  1.71585e+22
-12.2583  1.71865e+22
-12.141  1.72123e+22
-12.0237  1.72321e+22
-11.9064  1.72428e+22
-11.7891  1.72424e+22
-11.6718  1.72306e+22
-11.5544  1.72092e+22
-11.4371  1.71819e+22
-11.3198  1.71531e+22
-11.2025  1.71276e+22
-11.0852  1.71092e+22
-10.9679  1.71001e+22
-10.8506  1.71007e+22
-10.7333  1.71092e+22
-10.616  1.71233e+22
-10.4987  1.71397e+22
-10.3814  1.71556e+22
-10.2641  1.71693e+22
-10.1468  1.71806e+22
-10.0295  1.71901e+22
-9.91217  1.71992e+22
-9.79487  1.72098e+22
-9.67756  1.72225e+22
-9.56026  1.72372e+22
-9.44295  1.72523e+22
-9.32565  1.72656e+22
-9.20834  1.72743e+22
-9.09104  1.72758e+22
-8.97373  1.7269e+22
-8.85643  1.72539e+22
-8.73913  1.72323e+22
-8.62182  1.72072e+22
-8.50452  1.7182e+22
-8.38721  1.71601e+22
-8.26991  1.71441e+22
-8.1526  1.7135e+22
-8.03529  1.71325e+22
-7.91799  1.7135e+22
-7.80069  1.71405e+22
-7.68338  1.71467e+22
-7.56608  1.71525e+22
-7.44877  1.71578e+22
-7.33146  1.71635e+22
-7.21416  1.71713e+22
-7.09685  1.71831e+22
-6.97955  1.72001e+22
-6.86224  1.72225e+22
-6.74494  1.72489e+22
-6.62763  1.72768e+22
-6.51033  1.73025e+22
-6.39302  1.73225e+22
-6.27572  1.73342e+22
-6.15842  1.73364e+22
-6.04111  1.73296e+22
-5.92381  1.73166e+22
-5.8065  1.73009e+22
-5.68919  1.72867e+22
-5.57189  1.72775e+22
-5.45458  1.72755e+22
-5.33728  1.7281e+22
-5.21997  1.72927e+22
-5.10267  1.73078e+22
-4.98536  1.73228e+22
-4.86806  1.7335e+22
-4.75075  1.73423e+22
-4.63345  1.73443e+22
-4.51614  1.73426e+22
-4.39884  1.7339e+22
-4.28154  1.73366e+22
-4.16423  1.73373e+22
-4.04692  1.73421e+22
-3.92962  1.73506e+22
-3.81231  1.73608e+22
-3.69501  1.73697e+22
-3.5777  1.73745e+22
-3.4604  1.73727e+22
-3.34309  1.73636e+22
-3.22579  1.73478e+22
-3.10849  1.7328e+22
-2.99118  1.73071e+22
-2.87387  1.72887e+22
-2.75657  1.72755e+22
-2.63926  1.72689e+22
-2.52196  1.72685e+22
-2.40465  1.72727e+22
-2.28735  1.72788e+22
-2.17005  1.72845e+22
-2.05274  1.72877e+22
-1.93544  1.7288e+22
-1.81813  1.72863e+22
-1.70083  1.72843e+22
-1.58352  1.72848e+22
-1.46622  1.72896e+22
-1.34891  1.72995e+22
-1.2316  1.73141e+22
-1.1143  1.7331e+22
-0.996995  1.73471e+22
-0.87969  1.73591e+22
-0.762385  1.73641e+22
-0.64508  1.73612e+22
-0.527775  1.73508e+22
-0.41047  1.73356e+22
-0.293165  1.73194e+22
-0.17586  1.73061e+22
-0.058555  1.7299e+22
0.05875  1.72997e+22
0.176055  1.7308e+22
0.29336  1.73215e+22
0.410665  1.73367e+22
0.52797  1.73497e+22
0.645275  1.73572e+22
0.76258  1.73573e+22
0.879885  1.735e+22
0.99719  1.73372e+22
1.1145  1.7322e+22
1.2318  1.73076e+22
1.3491  1.72967e+22
1.46641  1.72908e+22
1.58371  1.729e+22
1.70102  1.72925e+22
1.81832  1.72959e+22
1.93563  1.72978e+22
2.05294  1.72966e+22
2.17024  1.72918e+22
2.28754  1.72846e+22
2.40485  1.72774e+22
2.52216  1.7273e+22
2.63946  1.72739e+22
2.75677  1.72814e+22
2.87407  1.72953e+22
2.99137  1.73138e+22
3.10868  1.73339e+22
3.22599  1.73521e+22
3.34329  1.73654e+22
3.4606  1.7372e+22
3.5779  1.73717e+22
3.69521  1.73661e+22
3.81251  1.73578e+22
3.92982  1.73497e+22
4.04712  1.73445e+22
4.16443  1.73434e+22
4.28173  1.73463e+22
4.39903  1.73515e+22
4.51634  1.73562e+22
4.63364  1.73579e+22
4.75095  1.73545e+22
4.86825  1.73453e+22
4.98556  1.73313e+22
5.10286  1.7315e+22
5.22017  1.72999e+22
5.33748  1.72891e+22
5.45478  1.72853e+22
5.57209  1.72893e+22
5.68939  1.72998e+22
5.8067  1.73143e+22
5.924  1.73288e+22
6.0413  1.73394e+22
6.15861  1.73426e+22
6.27591  1.73368e+22
6.39322  1.73221e+22
6.51052  1.73004e+22
6.62783  1.72748e+22
6.74514  1.72487e+22
6.86244  1.72254e+22
6.97975  1.72068e+22
7.09705  1.71937e+22
7.21436  1.7185e+22
7.33166  1.71792e+22
7.44897  1.71743e+22
7.56627  1.71688e+22
7.68358  1.71622e+22
7.80088  1.71553e+22
7.91819  1.71498e+22
8.03549  1.7148e+22
8.1528  1.71519e+22
8.2701  1.71626e+22
8.38741  1.71802e+22
8.50471  1.72028e+22
8.62202  1.72275e+22
8.73932  1.7251e+22
8.85662  1.72699e+22
8.97393  1.72817e+22
9.09123  1.72856e+22
9.20854  1.72819e+22
9.32584  1.72725e+22
9.44315  1.72598e+22
9.56045  1.72466e+22
9.67776  1.72346e+22
9.79506  1.72247e+22
9.91237  1.72164e+22
10.0297  1.72085e+22
10.147  1.71994e+22
10.2643  1.71876e+22
10.3816  1.7173e+22
10.4989  1.71565e+22
10.6162  1.71404e+22
10.7335  1.71278e+22
10.8508  1.71216e+22
10.9681  1.71242e+22
11.0854  1.71364e+22
11.2027  1.71572e+22
11.32  1.71836e+22
11.4373  1.72116e+22
11.5546  1.72363e+22
11.6719  1.72536e+22
11.7893  1.7261e+22
11.9066  1.72573e+22
12.0239  1.72435e+22
12.1412  1.72223e+22
12.2585  1.71969e+22
12.3758  1.71708e+22
12.4931  1.71462e+22
12.6104  1.71246e+22
12.7277  1.71056e+22
12.845  1.70879e+22
12.9623  1.70702e+22
13.0796  1.70512e+22
13.1969  1.70311e+22
13.3142  1.70108e+22
13.4315  1.69929e+22
13.5488  1.69803e+22
13.6661  1.69757e+22
13.7834  1.69807e+22
13.9007  1.69954e+22
14.018  1.70176e+22
14.1354  1.70438e+22
14.2527  1.70694e+22
14.37  1.70896e+22
14.4873  1.71009e+22
14.6046  1.71009e+22
14.7219  1.70896e+22
14.8392  1.70689e+22
14.9565  1.70415e+22
15.0738  1.70108e+22
15.1911  1.69797e+22
15.3084  1.69499e+22
15.4257  1.6922e+22
15.543  1.68955e+22
15.6603  1.68694e+22
15.7776  1.68432e+22
15.8949  1.6817e+22
16.0122  1.67926e+22
16.1295  1.67728e+22
16.2468  1.6761e+22
16.3641  1.67607e+22
16.4815  1.67741e+22
16.5988  1.68012e+22
16.7161  1.68398e+22
16.8334  1.68858e+22
16.9507  1.6933e+22
17.068  1.69752e+22
17.1853  1.70065e+22
17.3026  1.70233e+22
17.4199  1.70237e+22
17.5372  1.70088e+22
17.6545  1.69814e+22
17.7718  1.69458e+22
17.8891  1.6906e+22
18.0064  1.68657e+22
18.1237  1.68272e+22
18.241  1.67913e+22
18.3583  1.67579e+22
18.4756  1.67266e+22
18.5929  1.66971e+22
18.7102  1.667e+22
18.8275  1.66471e+22
18.9449  1.66307e+22
19.0622  1.66239e+22
19.1795  1.66285e+22
19.2968  1.66455e+22
19.4141  1.66736e+22
19.5314  1.671e+22
19.6487  1.67498e+22
19.766  1.67877e+22
19.8833  1.68185e+22
20.0006  1.6838e+22
20.1179  1.68439e+22
20.2352  1.68362e+22
20.3525  1.68163e+22
20.4698  1.67873e+22
20.5871  1.67525e+22
20.7044  1.67151e+22
20.8217  1.6677e+22
20.939  1.66397e+22
21.0563  1.66033e+22
21.1736  1.65681e+22
21.291  1.65341e+22
21.4083  1.65023e+22
21.5256  1.64748e+22
21.6429  1.64541e+22
21.7602  1.64428e+22
21.8775  1.64432e+22
21.9948  1.64561e+22
22.1121  1.64802e+22
22.2294  1.65124e+22
22.3467  1.65477e+22
22.464  1.65802e+22
22.5813  1.66042e+22
22.6986  1.66149e+22
22.8159  1.66096e+22
22.9332  1.65881e+22
23.0505  1.65525e+22
23.1678  1.65064e+22
23.2851  1.64547e+22
23.4024  1.64021e+22
23.5198  1.63522e+22
23.6371  1.63074e+22
23.7544  1.62688e+22
23.8717  1.62358e+22
23.989  1.62077e+22
24.1063  1.61838e+22
24.2236  1.61639e+22
24.3409  1.61491e+22
24.4582  1.61406e+22
24.5755  1.61404e+22
24.6928  1.61497e+22
24.8101  1.6169e+22
24.9274  1.61972e+22
25.0447  1.62315e+22
25.162  1.6268e+22
25.2793  1.63023e+22
25.3966  1.63302e+22
25.5139  1.63485e+22
25.6312  1.6356e+22
25.7485  1.63531e+22
25.8658  1.63418e+22
25.9832  1.63252e+22
26.1005  1.63067e+22
26.2178  1.62891e+22
26.3351  1.62739e+22
26.4524  1.62616e+22
26.5697  1.62512e+22
26.687  1.62414e+22
26.8043  1.62304e+22
26.9216  1.62176e+22
27.0389  1.62027e+22
27.1562  1.61871e+22
27.2735  1.61725e+22
27.3908  1.6161e+22
27.5081  1.61537e+22
27.6254  1.61512e+22
27.7427  1.61518e+22
27.86  1.61529e+22
27.9773  1.61509e+22
28.0946  1.6142e+22
28.212  1.6123e+22
28.3293  1.60926e+22
28.4466  1.60515e+22
28.5639  1.6002e+22
28.6812  1.59484e+22
28.7985  1.58955e+22
28.9158  1.58477e+22
29.0331  1.58087e+22
29.1504  1.57803e+22
29.2677  1.57624e+22
29.385  1.57533e+22
29.5023  1.57504e+22
29.6196  1.57512e+22
29.7369  1.57533e+22
29.8542  1.57561e+22
29.9715  1.57593e+22
30.0888  1.57641e+22
30.2061  1.5772e+22
30.3234  1.57838e+22
30.4407  1.57995e+22
30.558  1.5818e+22
30.6754  1.58369e+22
30.7927  1.58532e+22
30.91  1.58638e+22
31.0273  1.58667e+22
31.1446  1.5861e+22
31.2619  1.58475e+22
31.3792  1.58287e+22
31.4965  1.58076e+22
31.6138  1.57875e+22
31.7311  1.57709e+22
31.8484  1.57589e+22
31.9657  1.57506e+22
32.083  1.57443e+22
32.2003  1.57367e+22
32.3176  1.5725e+22
32.4349  1.57069e+22
32.5522  1.56818e+22
32.6695  1.56504e+22
32.7868  1.5615e+22
32.9042  1.55783e+22
33.0215  1.55433e+22
33.1388  1.55119e+22
33.2561  1.54844e+22
33.3734  1.54601e+22
33.4907  1.54369e+22
33.608  1.54124e+22
33.7253  1.53848e+22
33.8426  1.53538e+22
33.9599  1.53206e+22
34.0772  1.52883e+22
34.1945  1.5261e+22
34.3118  1.52432e+22
34.4291  1.52382e+22
34.5464  1.52479e+22
34.6637  1.52714e+22
34.781  1.53059e+22
34.8983  1.53466e+22
35.0156  1.53881e+22
35.1329  1.54253e+22
35.2503  1.54543e+22
35.3676  1.54734e+22
35.4849  1.54824e+22
35.6022  1.54834e+22
35.7195  1.54787e+22
35.8368  1.54711e+22
35.9541  1.5462e+22
36.0714  1.54522e+22
36.1887  1.54409e+22
36.306  1.54265e+22
36.4233  1.54074e+22
36.5406  1.5383e+22
36.6579  1.53535e+22
36.7752  1.53208e+22
36.8925  1.52875e+22
37.0098  1.52571e+22
37.1271  1.52321e+22
37.2444  1.52142e+22
37.3617  1.52029e+22
37.479  1.51963e+22
37.5964  1.51905e+22
37.7137  1.51812e+22
37.831  1.51645e+22
37.9483  1.51373e+22
38.0656  1.50986e+22
38.1829  1.50491e+22
38.3002  1.49914e+22
38.4175  1.49287e+22
38.5348  1.48645e+22
38.6521  1.48021e+22
38.7694  1.47431e+22
38.8867  1.46886e+22
39.004  1.46386e+22
39.1213  1.45932e+22
39.2386  1.45527e+22
39.3559  1.45182e+22
39.4732  1.44919e+22
39.5905  1.4477e+22
39.7078  1.44767e+22
39.8251  1.44934e+22
39.9425  1.4528e+22
40.0598  1.45797e+22
40.1771  1.46448e+22
40.2944  1.47182e+22
40.4117  1.47935e+22
40.529  1.48638e+22
40.6463  1.49233e+22
40.7636  1.49677e+22
40.8809  1.49948e+22
40.9982  1.50043e+22
41.1155  1.49977e+22
41.2328  1.49776e+22
41.3501  1.49469e+22
41.4674  1.49082e+22
41.5847  1.48638e+22
41.702  1.48147e+22
41.8193  1.47622e+22
41.9366  1.47072e+22
42.0539  1.46512e+22
42.1712  1.45962e+22
42.2885  1.45447e+22
42.4059  1.44997e+22
42.5232  1.44636e+22
42.6405  1.4438e+22
42.7578  1.44233e+22
42.8751  1.44177e+22
42.9924  1.44182e+22
43.1097  1.44204e+22
43.227  1.44197e+22
43.3443  1.44117e+22
43.4616  1.43932e+22
43.5789  1.43629e+22
43.6962  1.43212e+22
43.8135  1.42704e+22
43.9308  1.42142e+22
44.0481  1.41564e+22
44.1654  1.41005e+22
44.2827  1.40499e+22
44.4  1.40064e+22
44.5173  1.39709e+22
44.6347  1.39434e+22
44.752  1.39242e+22
44.8693  1.39129e+22
44.9866  1.39106e+22
45.1039  1.39182e+22
45.2212  1.3937e+22
45.3385  1.39679e+22
45.4558  1.40106e+22
45.5731  1.40635e+22
45.6904  1.4123e+22
45.8077  1.41837e+22
45.925  1.42392e+22
46.0423  1.42831e+22
46.1596  1.43094e+22
46.2769  1.43147e+22
46.3942  1.42976e+22
46.5115  1.42595e+22
46.6288  1.42044e+22
46.7461  1.41378e+22
46.8634  1.40658e+22
46.9808  1.39942e+22
47.0981  1.39269e+22
47.2154  1.38665e+22
47.3327  1.38135e+22
47.45  1.37673e+22
47.5673  1.37265e+22
47.6846  1.36897e+22
47.8019  1.36563e+22
47.9192  1.36264e+22
48.0365  1.36007e+22
48.1538  1.35799e+22
48.2711  1.35642e+22
48.3884  1.35531e+22
48.5057  1.35444e+22
48.623  1.35354e+22
48.7403  1.35225e+22
48.8576  1.35028e+22
48.9749  1.3475e+22
49.0922  1.34394e+22
49.2095  1.33985e+22
49.3269  1.33565e+22
49.4442  1.33187e+22
49.5615  1.32899e+22
49.6788  1.32742e+22
49.7961  1.32733e+22
49.9134  1.32866e+22
50.0307  1.33116e+22
50.148  1.33439e+22
50.2653  1.3379e+22
50.3826  1.34129e+22
50.4999  1.34426e+22
50.6172  1.34669e+22
50.7345  1.34859e+22
