#S 1 spectral density
#N 2
#UFWHM 27.2148
#L  abscissas [um]  spectral density
-58.5938  3.2602e+20
-58.4764  3.00162e+20
-58.3591  2.70612e+20
-58.2418  2.41392e+20
-58.1245  2.16383e+20
-58.0072  1.98394e+20
-57.8899  1.88593e+20
-57.7726  1.86149e+20
-57.6553  1.88687e+20
-57.538  1.92649e+20
-57.4207  1.94654e+20
-57.3034  1.91933e+20
-57.1861  1.83404e+20
-57.0688  1.69885e+20
-56.9515  1.5397e+20
-56.8342  1.39097e+20
-56.7169  1.29065e+20
-56.5996  1.26713e+20
-56.4823  1.33294e+20
-56.365  1.48075e+20
-56.2477  1.68416e+20
-56.1303  1.90522e+20
-56.013  2.10341e+20
-55.8957  2.24498e+20
-55.7784  2.31352e+20
-55.6611  2.31247e+20
-55.5438  2.26541e+20
-55.4265  2.20811e+20
-55.3092  2.18083e+20
-55.1919  2.21655e+20
-55.0746  2.32937e+20
-54.9573  2.51677e+20
-54.84  2.75243e+20
-54.7227  3.0002e+20
-54.6054  3.21847e+20
-54.4881  3.37461e+20
-54.3708  3.45314e+20
-54.2535  3.45818e+20
-54.1362  3.41494e+20
-54.0189  3.35773e+20
-53.9016  3.3247e+20
-53.7842  3.34336e+20
-53.6669  3.42501e+20
-53.5496  3.56082e+20
-53.4323  3.72361e+20
-53.315  3.88093e+20
-53.1977  4.00017e+20
-53.0804  4.06378e+20
-52.9631  4.07307e+20
-52.8458  4.04934e+20
-52.7285  4.03129e+20
-52.6112  4.05876e+20
-52.4939  4.16578e+20
-52.3766  4.36701e+20
-52.2593  4.65094e+20
-52.142  4.98271e+20
-52.0247  5.31163e+20
-51.9074  5.58252e+20
-51.7901  5.74967e+20
-51.6728  5.79403e+20
-51.5555  5.72085e+20
-51.4381  5.5658e+20
-51.3208  5.3806e+20
-51.2035  5.22137e+20
-51.0862  5.13597e+20
-50.9689  5.14863e+20
-50.8516  5.25477e+20
-50.7343  5.42331e+20
-50.617  5.60748e+20
-50.4997  5.75465e+20
-50.3824  5.82362e+20
-50.2651  5.79286e+20
-50.1478  5.66959e+20
-50.0305  5.48208e+20
-49.9132  5.27404e+20
-49.7959  5.0893e+20
-49.6786  4.9604e+20
-49.5613  4.90003e+20
-49.444  4.89873e+20
-49.3267  4.9279e+20
-49.2094  4.95078e+20
-49.092  4.93333e+20
-48.9747  4.85819e+20
-48.8574  4.7271e+20
-48.7401  4.56167e+20
-48.6228  4.39947e+20
-48.5055  4.27958e+20
-48.3882  4.23118e+20
-48.2709  4.26705e+20
-48.1536  4.37208e+20
-48.0363  4.51516e+20
-47.919  4.64911e+20
-47.8017  4.72807e+20
-47.6844  4.71864e+20
-47.5671  4.60996e+20
-47.4498  4.41356e+20
-47.3325  4.1663e+20
-47.2152  3.91282e+20
-47.0979  3.70019e+20
-46.9806  3.55991e+20
-46.8633  3.50354e+20
-46.7459  3.51833e+20
-46.6286  3.57248e+20
-46.5113  3.624e+20
-46.394  3.63329e+20
-46.2767  3.57554e+20
-46.1594  3.4471e+20
-46.0421  3.2672e+20
-45.9248  3.07392e+20
-45.8075  2.91246e+20
-45.6902  2.82308e+20
-45.5729  2.83234e+20
-45.4556  2.94326e+20
-45.3383  3.13466e+20
-45.221  3.36834e+20
-45.1037  3.59787e+20
-44.9864  3.78001e+20
-44.8691  3.88867e+20
-44.7518  3.91782e+20
-44.6345  3.8844e+20
-44.5172  3.82503e+20
-44.3998  3.78479e+20
-44.2825  3.80697e+20
-44.1652  3.92022e+20
-44.0479  4.13421e+20
-43.9306  4.43599e+20
-43.8133  4.79345e+20
-43.696  5.16446e+20
-43.5787  5.50629e+20
-43.4614  5.7852e+20
-43.3441  5.98558e+20
-43.2268  6.10826e+20
-43.1095  6.17122e+20
-42.9922  6.20554e+20
-42.8749  6.23726e+20
-42.7576  6.2906e+20
-42.6403  6.37533e+20
-42.523  6.48671e+20
-42.4057  6.60817e+20
-42.2884  6.7206e+20
-42.171  6.80294e+20
-42.0537  6.84787e+20
-41.9364  6.85763e+20
-41.8191  6.84961e+20
-41.7018  6.8498e+20
-41.5845  6.88455e+20
-41.4672  6.97443e+20
-41.3499  7.12505e+20
-41.2326  7.32662e+20
-41.1153  7.54939e+20
-40.998  7.75665e+20
-40.8807  7.90909e+20
-40.7634  7.97505e+20
-40.6461  7.94388e+20
-40.5288  7.82348e+20
-40.4115  7.642e+20
-40.2942  7.44217e+20
-40.1769  7.26926e+20
-40.0596  7.16087e+20
-39.9423  7.13511e+20
-39.825  7.18967e+20
-39.7076  7.29913e+20
-39.5903  7.42443e+20
-39.473  7.51887e+20
-39.3557  7.5447e+20
-39.2384  7.48171e+20
-39.1211  7.33048e+20
-39.0038  7.11267e+20
-38.8865  6.86893e+20
-38.7692  6.63887e+20
-38.6519  6.45988e+20
-38.5346  6.35008e+20
-38.4173  6.30852e+20
-38.3  6.31238e+20
-38.1827  6.32893e+20
-38.0654  6.32158e+20
-37.9481  6.26559e+20
-37.8308  6.14902e+20
-37.7135  5.98651e+20
-37.5962  5.80536e+20
-37.4789  5.64614e+20
-37.3615  5.54613e+20
-37.2442  5.53075e+20
-37.1269  5.60431e+20
-37.0096  5.74738e+20
-36.8923  5.92527e+20
-36.775  6.09169e+20
-36.6577  6.20435e+20
-36.5404  6.23788e+20
-36.4231  6.1852e+20
-36.3058  6.06389e+20
-36.1885  5.90803e+20
-36.0712  5.76045e+20
-35.9539  5.65715e+20
-35.8366  5.61891e+20
-35.7193  5.64673e+20
-35.602  5.72011e+20
-35.4847  5.80467e+20
-35.3674  5.86347e+20
-35.2501  5.86882e+20
-35.1328  5.81337e+20
-35.0154  5.71163e+20
-34.8981  5.60159e+20
-34.7808  5.53059e+20
-34.6635  5.54435e+20
-34.5462  5.67525e+20
-34.4289  5.92837e+20
-34.3116  6.28104e+20
-34.1943  6.68547e+20
-34.077  7.08046e+20
-33.9597  7.40535e+20
-33.8424  7.61502e+20
-33.7251  7.69195e+20
-33.6078  7.65102e+20
-33.4905  7.5319e+20
-33.3732  7.39538e+20
-33.2559  7.30415e+20
-33.1386  7.30538e+20
-33.0213  7.42691e+20
-32.904  7.66531e+20
-32.7867  7.99021e+20
-32.6693  8.35828e+20
-32.552  8.7168e+20
-32.4347  9.02579e+20
-32.3174  9.26331e+20
-32.2001  9.42755e+20
-32.0828  9.53936e+20
-31.9655  9.63123e+20
-31.8482  9.73598e+20
-31.7309  9.87535e+20
-31.6136  1.00581e+21
-31.4963  1.02738e+21
-31.379  1.04993e+21
-31.2617  1.07062e+21
-31.1444  1.08752e+21
-31.0271  1.09967e+21
-30.9098  1.10797e+21
-30.7925  1.11536e+21
-30.6752  1.12512e+21
-30.5579  1.14068e+21
-30.4406  1.16433e+21
-30.3232  1.1963e+21
-30.2059  1.23468e+21
-30.0886  1.275e+21
-29.9713  1.31226e+21
-29.854  1.34124e+21
-29.7367  1.35804e+21
-29.6194  1.36081e+21
-29.5021  1.35059e+21
-29.3848  1.33019e+21
-29.2675  1.30428e+21
-29.1502  1.2774e+21
-29.0329  1.25368e+21
-28.9156  1.23474e+21
-28.7983  1.22073e+21
-28.681  1.20973e+21
-28.5637  1.19889e+21
-28.4464  1.18507e+21
-28.3291  1.16709e+21
-28.2118  1.145e+21
-28.0944  1.12114e+21
-27.9771  1.09991e+21
-27.8598  1.08596e+21
-27.7425  1.08394e+21
-27.6252  1.09626e+21
-27.5079  1.12362e+21
-27.3906  1.16381e+21
-27.2733  1.21244e+21
-27.156  1.26417e+21
-27.0387  1.31339e+21
-26.9214  1.35622e+21
-26.8041  1.39064e+21
-26.6868  1.41727e+21
-26.5695  1.43911e+21
-26.4522  1.46021e+21
-26.3349  1.48509e+21
-26.2176  1.51762e+21
-26.1003  1.55947e+21
-25.983  1.6108e+21
-25.8657  1.66937e+21
-25.7483  1.73215e+21
-25.631  1.79575e+21
-25.5137  1.85736e+21
-25.3964  1.91595e+21
-25.2791  1.97112e+21
-25.1618  2.02469e+21
-25.0445  2.07835e+21
-24.9272  2.13393e+21
-24.8099  2.19247e+21
-24.6926  2.25399e+21
-24.5753  2.31709e+21
-24.458  2.38041e+21
-24.3407  2.44277e+21
-24.2234  2.5044e+21
-24.1061  2.56762e+21
-23.9888  2.63662e+21
-23.8715  2.71733e+21
-23.7542  2.81602e+21
-23.6369  2.93859e+21
-23.5196  3.08811e+21
-23.4023  3.26492e+21
-23.2849  3.46514e+21
-23.1676  3.6813e+21
-23.0503  3.90376e+21
-22.933  4.12131e+21
-22.8157  4.32397e+21
-22.6984  4.5032e+21
-22.5811  4.65448e+21
-22.4638  4.77653e+21
-22.3465  4.87171e+21
-22.2292  4.94478e+21
-22.1119  5.00264e+21
-21.9946  5.05185e+21
-21.8773  5.09966e+21
-21.76  5.1525e+21
-21.6427  5.21638e+21
-21.5254  5.2977e+21
-21.4081  5.40369e+21
-21.2908  5.54226e+21
-21.1735  5.72167e+21
-21.0561  5.95058e+21
-20.9388  6.23603e+21
-20.8215  6.58237e+21
-20.7042  6.98982e+21
-20.5869  7.45388e+21
-20.4696  7.96541e+21
-20.3523  8.51117e+21
-20.235  9.07537e+21
-20.1177  9.6418e+21
-20.0004  1.01961e+22
-19.8831  1.07268e+22
-19.7658  1.12264e+22
-19.6485  1.16942e+22
-19.5312  1.21319e+22
-19.4139  1.25457e+22
-19.2966  1.29451e+22
-19.1793  1.33401e+22
-19.062  1.37417e+22
-18.9447  1.41616e+22
-18.8274  1.46119e+22
-18.71  1.51035e+22
-18.5927  1.56484e+22
-18.4754  1.62566e+22
-18.3581  1.69372e+22
-18.2408  1.76953e+22
-18.1235  1.85317e+22
-18.0062  1.9441e+22
-17.8889  2.04119e+22
-17.7716  2.14264e+22
-17.6543  2.24625e+22
-17.537  2.34955e+22
-17.4197  2.45013e+22
-17.3024  2.54585e+22
-17.1851  2.63516e+22
-17.0678  2.71716e+22
-16.9505  2.79167e+22
-16.8332  2.85925e+22
-16.7159  2.92084e+22
-16.5986  2.97777e+22
-16.4813  3.0314e+22
-16.364  3.08313e+22
-16.2466  3.13415e+22
-16.1293  3.18543e+22
-16.012  3.23787e+22
-15.8947  3.29212e+22
-15.7774  3.34885e+22
-15.6601  3.40857e+22
-15.5428  3.47165e+22
-15.4255  3.53825e+22
-15.3082  3.60828e+22
-15.1909  3.68119e+22
-15.0736  3.75616e+22
-14.9563  3.83201e+22
-14.839  3.90736e+22
-14.7217  3.98088e+22
-14.6044  4.05135e+22
-14.4871  4.11793e+22
-14.3698  4.18016e+22
-14.2525  4.23818e+22
-14.1352  4.2924e+22
-14.0178  4.34362e+22
-13.9005  4.3927e+22
-13.7832  4.44053e+22
-13.6659  4.48775e+22
-13.5486  4.53492e+22
-13.4313  4.58239e+22
-13.314  4.63034e+22
-13.1967  4.67895e+22
-13.0794  4.72843e+22
-12.9621  4.77909e+22
-12.8448  4.83125e+22
-12.7275  4.88526e+22
-12.6102  4.94133e+22
-12.4929  4.99957e+22
-12.3756  5.0597e+22
-12.2583  5.12129e+22
-12.141  5.18369e+22
-12.0237  5.24612e+22
-11.9064  5.30794e+22
-11.7891  5.36862e+22
-11.6718  5.42802e+22
-11.5544  5.48627e+22
-11.4371  5.54374e+22
-11.3198  5.60109e+22
-11.2025  5.65891e+22
-11.0852  5.71772e+22
-10.9679  5.77772e+22
-10.8506  5.83887e+22
-10.7333  5.9008e+22
-10.616  5.96302e+22
-10.4987  6.02483e+22
-10.3814  6.08563e+22
-10.2641  6.14505e+22
-10.1468  6.20282e+22
-10.0295  6.25899e+22
-9.91217  6.31376e+22
-9.79487  6.36739e+22
-9.67756  6.42016e+22
-9.56026  6.47232e+22
-9.44295  6.52396e+22
-9.32565  6.57507e+22
-9.20834  6.62563e+22
-9.09104  6.67562e+22
-8.97373  6.72509e+22
-8.85643  6.77424e+22
-8.73913  6.82334e+22
-8.62182  6.87272e+22
-8.50452  6.92269e+22
-8.38721  6.97336e+22
-8.26991  7.02469e+22
-8.1526  7.07637e+22
-8.03529  7.12788e+22
-7.91799  7.17859e+22
-7.80069  7.2278e+22
-7.68338  7.27499e+22
-7.56608  7.31981e+22
-7.44877  7.36228e+22
-7.33146  7.40262e+22
-7.21416  7.44133e+22
-7.09685  7.47899e+22
-6.97955  7.5162e+22
-6.86224  7.55341e+22
-6.74494  7.59081e+22
-6.62763  7.6284e+22
-6.51033  7.666e+22
-6.39302  7.70331e+22
-6.27572  7.7401e+22
-6.15842  7.77621e+22
-6.04111  7.81167e+22
-5.92381  7.84673e+22
-5.8065  7.88174e+22
-5.68919  7.91709e+22
-5.57189  7.9531e+22
-5.45458  7.9899e+22
-5.33728  8.02747e+22
-5.21997  8.06546e+22
-5.10267  8.10348e+22
-4.98536  8.141e+22
-4.86806  8.17768e+22
-4.75075  8.21322e+22
-4.63345  8.24767e+22
-4.51614  8.28119e+22
-4.39884  8.31415e+22
-4.28154  8.34686e+22
-4.16423  8.37959e+22
-4.04692  8.41239e+22
-3.92962  8.44512e+22
-3.81231  8.4773e+22
-3.69501  8.50843e+22
-3.5777  8.53797e+22
-3.4604  8.56545e+22
-3.34309  8.59069e+22
-3.22579  8.61373e+22
-3.10849  8.6349e+22
-2.99118  8.6546e+22
-2.87387  8.67343e+22
-2.75657  8.69179e+22
-2.63926  8.70996e+22
-2.52196  8.72797e+22
-2.40465  8.74569e+22
-2.28735  8.76285e+22
-2.17005  8.77918e+22
-2.05274  8.79443e+22
-1.93544  8.80861e+22
-1.81813  8.82188e+22
-1.70083  8.83454e+22
-1.58352  8.84691e+22
-1.46622  8.8593e+22
-1.34891  8.87177e+22
-1.2316  8.88423e+22
-1.1143  8.89629e+22
-0.996995  8.90748e+22
-0.87969  8.91724e+22
-0.762385  8.92516e+22
-0.64508  8.93101e+22
-0.527775  8.93483e+22
-0.41047  8.93696e+22
-0.293165  8.93786e+22
-0.17586  8.93809e+22
-0.058555  8.93806e+22
0.05875  8.93801e+22
0.176055  8.93785e+22
0.29336  8.93728e+22
0.410665  8.93576e+22
0.52797  8.93279e+22
0.645275  8.92791e+22
0.76258  8.92091e+22
0.879885  8.91185e+22
0.99719  8.90106e+22
1.1145  8.88902e+22
1.2318  8.87632e+22
1.3491  8.8634e+22
1.46641  8.85056e+22
1.58371  8.8378e+22
1.70102  8.82497e+22
1.81832  8.81175e+22
1.93563  8.79776e+22
2.05294  8.78275e+22
2.17024  8.76662e+22
2.28754  8.74948e+22
2.40485  8.73156e+22
2.52216  8.71319e+22
2.63946  8.69458e+22
2.75677  8.67586e+22
2.87407  8.65689e+22
2.99137  8.63735e+22
3.10868  8.61673e+22
3.22599  8.59454e+22
3.34329  8.57034e+22
3.4606  8.54389e+22
3.5779  8.51529e+22
3.69521  8.48482e+22
3.81251  8.45298e+22
3.92982  8.4203e+22
4.04712  8.38732e+22
4.16443  8.35432e+22
4.28173  8.32137e+22
4.39903  8.28837e+22
4.51634  8.25495e+22
4.63364  8.22076e+22
4.75095  8.18552e+22
4.86825  8.14909e+22
4.98556  8.11164e+22
5.10286  8.07346e+22
5.22017  8.03501e+22
5.33748  7.99678e+22
5.45478  7.95921e+22
5.57209  7.92242e+22
5.68939  7.88645e+22
5.8067  7.85105e+22
5.924  7.81583e+22
6.0413  7.78042e+22
6.15861  7.7445e+22
6.27591  7.70789e+22
6.39322  7.67064e+22
6.51052  7.63297e+22
6.62783  7.59518e+22
6.74514  7.55751e+22
6.86244  7.52009e+22
6.97975  7.48286e+22
7.09705  7.44544e+22
7.21436  7.40735e+22
7.33166  7.36795e+22
7.44897  7.32666e+22
7.56627  7.28309e+22
7.68358  7.23707e+22
7.80088  7.18876e+22
7.91819  7.13862e+22
8.03549  7.08724e+22
8.1528  7.0353e+22
8.2701  6.98342e+22
8.38741  6.93206e+22
8.50471  6.88137e+22
8.62202  6.83142e+22
8.73932  6.7819e+22
8.85662  6.73255e+22
8.97393  6.68307e+22
9.09123  6.63321e+22
9.20854  6.58283e+22
9.32584  6.53189e+22
9.44315  6.48044e+22
9.56045  6.42846e+22
9.67776  6.37591e+22
9.79506  6.3226e+22
9.91237  6.26832e+22
10.0297  6.21275e+22
10.147  6.15566e+22
10.2643  6.09695e+22
10.3816  6.03675e+22
10.4989  5.97533e+22
10.6162  5.9133e+22
10.7335  5.85123e+22
10.8508  5.78976e+22
10.9681  5.72933e+22
11.0854  5.67017e+22
11.2027  5.6122e+22
11.32  5.55496e+22
11.4373  5.49793e+22
11.5546  5.44043e+22
11.6719  5.38193e+22
11.7893  5.32208e+22
11.9066  5.26088e+22
12.0239  5.19868e+22
12.1412  5.13603e+22
12.2585  5.07369e+22
12.3758  5.01244e+22
12.4931  4.95286e+22
12.6104  4.89534e+22
12.7277  4.84003e+22
12.845  4.78677e+22
12.9623  4.73532e+22
13.0796  4.68531e+22
13.1969  4.63642e+22
13.3142  4.58832e+22
13.4315  4.54083e+22
13.5488  4.49369e+22
13.6661  4.44665e+22
13.7834  4.39929e+22
13.9007  4.35096e+22
14.018  4.3009e+22
14.1354  4.24825e+22
14.2527  4.19215e+22
14.37  4.13198e+22
14.4873  4.06748e+22
14.6046  3.99874e+22
14.7219  3.9264e+22
14.8392  3.85149e+22
14.9565  3.7753e+22
15.0738  3.69924e+22
15.1911  3.62458e+22
15.3084  3.55239e+22
15.4257  3.48341e+22
15.543  3.41794e+22
15.6603  3.35592e+22
15.7776  3.29715e+22
15.8949  3.24112e+22
16.0122  3.18729e+22
16.1295  3.13497e+22
16.2468  3.08341e+22
16.3641  3.03177e+22
16.4815  2.97889e+22
16.5988  2.9236e+22
16.7161  2.86453e+22
16.8334  2.80032e+22
16.9507  2.7298e+22
17.068  2.65213e+22
17.1853  2.56706e+22
17.3026  2.47509e+22
17.4199  2.37737e+22
17.5372  2.27564e+22
17.6545  2.17223e+22
17.7718  2.06958e+22
17.8891  1.97007e+22
18.0064  1.87577e+22
18.1237  1.78816e+22
18.241  1.70818e+22
18.3583  1.63611e+22
18.4756  1.57165e+22
18.5929  1.51412e+22
18.7102  1.46257e+22
18.8275  1.41591e+22
18.9449  1.373e+22
19.0622  1.33265e+22
19.1795  1.29373e+22
19.2968  1.2551e+22
19.4141  1.21564e+22
19.5314  1.17436e+22
19.6487  1.13045e+22
19.766  1.08342e+22
19.8833  1.03315e+22
20.0006  9.80084e+21
20.1179  9.25021e+21
20.2352  8.69261e+21
20.3525  8.14347e+21
20.4698  7.61945e+21
20.5871  7.1351e+21
20.7044  6.70188e+21
20.8217  6.3274e+21
20.939  6.01389e+21
21.0563  5.75917e+21
21.1736  5.55757e+21
21.291  5.40097e+21
21.4083  5.28119e+21
21.5256  5.18948e+21
21.6429  5.11873e+21
21.7602  5.06235e+21
21.8775  5.01415e+21
21.9948  4.96817e+21
22.1121  4.91803e+21
22.2294  4.85684e+21
22.3467  4.77743e+21
22.464  4.67403e+21
22.5813  4.54259e+21
22.6986  4.38211e+21
22.8159  4.19515e+21
22.9332  3.98802e+21
23.0505  3.76998e+21
23.1678  3.55162e+21
23.2851  3.34372e+21
23.4024  3.15509e+21
23.5198  2.99148e+21
23.6371  2.85519e+21
23.7544  2.74403e+21
23.8717  2.65396e+21
23.989  2.57866e+21
24.1063  2.51196e+21
24.2236  2.44822e+21
24.3409  2.38487e+21
24.4582  2.32041e+21
24.5755  2.25543e+21
24.6928  2.19165e+21
24.8101  2.13069e+21
24.9274  2.07315e+21
25.0447  2.0187e+21
25.162  1.96611e+21
25.2793  1.91311e+21
25.3966  1.85794e+21
25.5139  1.79963e+21
25.6312  1.73875e+21
25.7485  1.67711e+21
25.8658  1.61786e+21
25.9832  1.56411e+21
26.1005  1.51893e+21
26.2178  1.48319e+21
26.3351  1.45613e+21
26.4524  1.43498e+21
26.5697  1.41553e+21
26.687  1.39334e+21
26.8043  1.3645e+21
26.9216  1.32718e+21
27.0389  1.28201e+21
27.1562  1.23174e+21
27.2735  1.18137e+21
27.3908  1.13608e+21
27.5081  1.10128e+21
27.6254  1.08036e+21
27.7427  1.07435e+21
27.86  1.08177e+21
27.9773  1.09916e+21
28.0946  1.12177e+21
28.212  1.14501e+21
28.3293  1.16554e+21
28.4466  1.18178e+21
28.5639  1.19451e+21
28.6812  1.20564e+21
28.7985  1.21812e+21
28.9158  1.23451e+21
29.0331  1.25579e+21
29.1504  1.28122e+21
29.2677  1.30795e+21
29.385  1.33165e+21
29.5023  1.34771e+21
29.6196  1.35218e+21
29.7369  1.34314e+21
29.8542  1.32069e+21
29.9715  1.28779e+21
30.0888  1.24882e+21
30.2061  1.20921e+21
30.3234  1.17363e+21
30.4407  1.14551e+21
30.558  1.12579e+21
30.6754  1.11343e+21
30.7927  1.10563e+21
30.91  1.09875e+21
31.0273  1.08949e+21
31.1446  1.07595e+21
31.2619  1.05786e+21
31.3792  1.03654e+21
31.4965  1.01451e+21
31.6138  9.94556e+20
31.7311  9.78252e+20
31.8484  9.66165e+20
31.9657  9.5671e+20
32.083  9.47296e+20
32.2003  9.34329e+20
32.3176  9.15377e+20
32.4349  8.8902e+20
32.5522  8.56001e+20
32.6695  8.1955e+20
32.7868  7.84244e+20
32.9042  7.54854e+20
33.0215  7.3568e+20
33.1388  7.28388e+20
33.2561  7.32382e+20
33.3734  7.44102e+20
33.4907  7.57845e+20
33.608  7.67396e+20
33.7253  7.6753e+20
33.8426  7.54848e+20
33.9599  7.29174e+20
34.0772  6.9349e+20
34.1945  6.52808e+20
34.3118  6.13605e+20
34.4291  5.81493e+20
34.5464  5.60569e+20
34.6637  5.5197e+20
34.781  5.54118e+20
34.8983  5.63179e+20
35.0156  5.74157e+20
35.1329  5.82718e+20
35.2503  5.85734e+20
35.3676  5.82559e+20
35.4849  5.74982e+20
35.6022  5.66011e+20
35.7195  5.59547e+20
35.8368  5.5868e+20
35.9541  5.64677e+20
36.0714  5.76777e+20
36.1887  5.92048e+20
36.306  6.06536e+20
36.4233  6.16136e+20
36.5406  6.1787e+20
36.6579  6.11058e+20
36.7752  5.96764e+20
36.8925  5.78872e+20
37.0098  5.61628e+20
37.1271  5.49529e+20
37.2444  5.45549e+20
37.3617  5.50848e+20
37.479  5.63889e+20
37.5964  5.81678e+20
37.7137  6.00017e+20
37.831  6.15224e+20
37.9483  6.24931e+20
38.0656  6.28649e+20
38.1829  6.28101e+20
38.3002  6.26587e+20
38.4175  6.27604e+20
38.5348  6.34379e+20
38.6521  6.48346e+20
38.7694  6.68784e+20
38.8867  6.92969e+20
39.004  7.1695e+20
39.1213  7.36543e+20
39.2386  7.48222e+20
39.3559  7.50753e+20
39.4732  7.44968e+20
39.5905  7.33986e+20
39.7078  7.21931e+20
39.8251  7.13391e+20
39.9425  7.11837e+20
40.0598  7.18909e+20
40.1771  7.3374e+20
40.2944  7.53303e+20
40.4117  7.73211e+20
40.529  7.88949e+20
40.6463  7.96694e+20
40.7636  7.94483e+20
40.8809  7.82581e+20
40.9982  7.63405e+20
41.1155  7.40628e+20
41.2328  7.18574e+20
41.3501  7.00502e+20
41.4674  6.88633e+20
41.5847  6.8303e+20
41.702  6.82424e+20
41.8193  6.84031e+20
41.9366  6.84992e+20
42.0539  6.8299e+20
42.1712  6.77007e+20
42.2885  6.67342e+20
42.4059  6.55469e+20
42.5232  6.43495e+20
42.6405  6.337e+20
42.7578  6.27104e+20
42.8751  6.23372e+20
42.9924  6.20867e+20
43.1097  6.17059e+20
43.227  6.08711e+20
43.3443  5.9339e+20
43.4616  5.70098e+20
43.5789  5.39258e+20
43.6962  5.03516e+20
43.8135  4.66685e+20
43.9308  4.33156e+20
44.0481  4.06652e+20
44.1654  3.89649e+20
44.2827  3.82282e+20
44.4  3.82668e+20
44.5173  3.87335e+20
44.6347  3.91783e+20
44.752  3.91908e+20
44.8693  3.85009e+20
44.9866  3.70323e+20
45.1039  3.49433e+20
45.2212  3.25759e+20
45.3385  3.03786e+20
45.4558  2.87751e+20
45.5731  2.80703e+20
45.6904  2.8369e+20
45.8077  2.95456e+20
45.925  3.1284e+20
46.0423  3.31554e+20
46.1596  3.4736e+20
46.2769  3.57351e+20
46.3942  3.60505e+20
46.5115  3.57946e+20
46.6288  3.52758e+20
46.7461  3.48974e+20
46.8634  3.50378e+20
46.9808  3.59269e+20
47.0981  3.76115e+20
47.2154  3.98893e+20
47.3327  4.23947e+20
47.45  4.46626e+20
47.5673  4.62689e+20
47.6846  4.69703e+20
47.8019  4.67053e+20
47.9192  4.56768e+20
48.0365  4.42844e+20
48.1538  4.2966e+20
48.2711  4.21487e+20
48.3884  4.2097e+20
48.5057  4.28536e+20
48.623  4.42264e+20
48.7403  4.58887e+20
48.8576  4.74661e+20
48.9749  4.86235e+20
49.0922  4.92022e+20
49.2095  4.92596e+20
49.3269  4.90287e+20
49.4442  4.88635e+20
49.5615  4.90916e+20
49.6788  4.99492e+20
49.7961  5.14449e+20
49.9134  5.33861e+20
50.0307  5.54031e+20
50.148  5.7044e+20
50.2653  5.79346e+20
50.3826  5.78601e+20
50.4999  5.68711e+20
50.6172  5.52501e+20
50.7345  5.34728e+20
50.8518  5.20561e+20
