#S 1 spectral density
#N 2
#UFWHM 30.0301
#L  abscissas [um]  spectral density
-58.5938  2.92714e+20
-58.4764  2.77579e+20
-58.3591  2.61241e+20
-58.2418  2.47349e+20
-58.1245  2.39178e+20
-58.0072  2.38839e+20
-57.8899  2.46492e+20
-57.7726  2.60521e+20
-57.6553  2.77613e+20
-57.538  2.93627e+20
-57.4207  3.04517e+20
-57.3034  3.07378e+20
-57.1861  3.01097e+20
-57.0688  2.86771e+20
-56.9515  2.67344e+20
-56.8342  2.46986e+20
-56.7169  2.30192e+20
-56.5996  2.20471e+20
-56.4823  2.19837e+20
-56.365  2.27957e+20
-56.2477  2.42566e+20
-56.1303  2.6003e+20
-56.013  2.76071e+20
-55.8957  2.86982e+20
-55.7784  2.90648e+20
-55.6611  2.86785e+20
-55.5438  2.77112e+20
-55.4265  2.64746e+20
-55.3092  2.53218e+20
-55.1919  2.45588e+20
-55.0746  2.43425e+20
-54.9573  2.46471e+20
-54.84  2.52788e+20
-54.7227  2.59089e+20
-54.6054  2.62047e+20
-54.4881  2.5908e+20
-54.3708  2.49155e+20
-54.2535  2.33397e+20
-54.1362  2.14569e+20
-54.0189  1.96456e+20
-53.9016  1.82884e+20
-53.7842  1.76513e+20
-53.6669  1.78198e+20
-53.5496  1.86635e+20
-53.4323  1.98751e+20
-53.315  2.10634e+20
-53.1977  2.18618e+20
-53.0804  2.20449e+20
-52.9631  2.15842e+20
-52.8458  2.06573e+20
-52.7285  1.96265e+20
-52.6112  1.88882e+20
-52.4939  1.87824e+20
-52.3766  1.94709e+20
-52.2593  2.08812e+20
-52.142  2.26969e+20
-52.0247  2.44654e+20
-51.9074  2.56885e+20
-51.7901  2.59804e+20
-51.6728  2.51893e+20
-51.5555  2.34309e+20
-51.4381  2.10888e+20
-51.3208  1.87189e+20
-51.2035  1.68932e+20
-51.0862  1.60843e+20
-50.9689  1.65119e+20
-50.8516  1.81042e+20
-50.7343  2.05033e+20
-50.617  2.31952e+20
-50.4997  2.56033e+20
-50.3824  2.72707e+20
-50.2651  2.79592e+20
-50.1478  2.77072e+20
-50.0305  2.67947e+20
-49.9132  2.56598e+20
-49.7959  2.47648e+20
-49.6786  2.44662e+20
-49.5613  2.49202e+20
-49.444  2.6064e+20
-49.3267  2.76296e+20
-49.2094  2.92572e+20
-49.092  3.05985e+20
-48.9747  3.14332e+20
-48.8574  3.17292e+20
-48.7401  3.16267e+20
-48.6228  3.14145e+20
-48.5055  3.13927e+20
-48.3882  3.17801e+20
-48.2709  3.26277e+20
-48.1536  3.37656e+20
-48.0363  3.48658e+20
-47.919  3.55039e+20
-47.8017  3.52891e+20
-47.6844  3.39995e+20
-47.5671  3.16458e+20
-47.4498  2.84858e+20
-47.3325  2.50146e+20
-47.2152  2.17996e+20
-47.0979  1.93889e+20
-46.9806  1.81396e+20
-46.8633  1.81662e+20
-46.7459  1.92945e+20
-46.6286  2.11059e+20
-46.5113  2.30553e+20
-46.394  2.46014e+20
-46.2767  2.53404e+20
-46.1594  2.50951e+20
-46.0421  2.39445e+20
-45.9248  2.21834e+20
-45.8075  2.02329e+20
-45.6902  1.85145e+20
-45.5729  1.73474e+20
-45.4556  1.68672e+20
-45.3383  1.69874e+20
-45.221  1.74654e+20
-45.1037  1.79677e+20
-44.9864  1.81686e+20
-44.8691  1.7879e+20
-44.7518  1.70749e+20
-44.6345  1.59196e+20
-44.5172  1.47264e+20
-44.3998  1.38628e+20
-44.2825  1.36593e+20
-44.1652  1.43023e+20
-44.0479  1.57878e+20
-43.9306  1.79184e+20
-43.8133  2.0336e+20
-43.696  2.26166e+20
-43.5787  2.43842e+20
-43.4614  2.53751e+20
-43.3441  2.55334e+20
-43.2268  2.49931e+20
-43.1095  2.40634e+20
-42.9922  2.31421e+20
-42.8749  2.25988e+20
-42.7576  2.27167e+20
-42.6403  2.36084e+20
-42.523  2.51933e+20
-42.4057  2.72481e+20
-42.2884  2.94658e+20
-42.171  3.15282e+20
-42.0537  3.32161e+20
-41.9364  3.44293e+20
-41.8191  3.52258e+20
-41.7018  3.57722e+20
-41.5845  3.62859e+20
-41.4672  3.69613e+20
-41.3499  3.78856e+20
-41.2326  3.90327e+20
-41.1153  4.02105e+20
-40.998  4.11881e+20
-40.8807  4.17144e+20
-40.7634  4.1633e+20
-40.6461  4.09498e+20
-40.5288  3.98679e+20
-40.4115  3.87457e+20
-40.2942  3.80431e+20
-40.1769  3.82244e+20
-40.0596  3.96072e+20
-39.9423  4.22873e+20
-39.825  4.61204e+20
-39.7076  5.07155e+20
-39.5903  5.5502e+20
-39.473  5.98648e+20
-39.3557  6.32674e+20
-39.2384  6.53796e+20
-39.1211  6.61078e+20
-39.0038  6.56215e+20
-38.8865  6.42989e+20
-38.7692  6.25765e+20
-38.6519  6.08935e+20
-38.5346  5.95429e+20
-38.4173  5.86317e+20
-38.3  5.80756e+20
-38.1827  5.76743e+20
-38.0654  5.71651e+20
-37.9481  5.63748e+20
-37.8308  5.5218e+20
-37.7135  5.38246e+20
-37.5962  5.23994e+20
-37.4789  5.1252e+20
-37.3615  5.06359e+20
-37.2442  5.06641e+20
-37.1269  5.12462e+20
-37.0096  5.21094e+20
-36.8923  5.28429e+20
-36.775  5.29928e+20
-36.6577  5.22061e+20
-36.5404  5.03481e+20
-36.4231  4.7519e+20
-36.3058  4.4102e+20
-36.1885  4.06473e+20
-36.0712  3.77697e+20
-35.9539  3.59873e+20
-35.8366  3.55982e+20
-35.7193  3.66135e+20
-35.602  3.87473e+20
-35.4847  4.14929e+20
-35.3674  4.42498e+20
-35.2501  4.6447e+20
-35.1328  4.77122e+20
-35.0154  4.78986e+20
-34.8981  4.71305e+20
-34.7808  4.57203e+20
-34.6635  4.40478e+20
-34.5462  4.24859e+20
-34.4289  4.12392e+20
-34.3116  4.03448e+20
-34.1943  3.96762e+20
-34.077  3.90096e+20
-33.9597  3.81442e+20
-33.8424  3.70087e+20
-33.7251  3.57378e+20
-33.6078  3.46805e+20
-33.4905  3.43249e+20
-33.3732  3.52297e+20
-33.2559  3.78392e+20
-33.1386  4.23473e+20
-33.0213  4.86592e+20
-32.904  5.63441e+20
-32.7867  6.46831e+20
-32.6693  7.28787e+20
-32.552  8.01075e+20
-32.4347  8.57992e+20
-32.3174  8.96448e+20
-32.2001  9.16853e+20
-32.0828  9.22824e+20
-31.9655  9.20072e+20
-31.8482  9.14668e+20
-31.7309  9.11874e+20
-31.6136  9.15263e+20
-31.4963  9.25946e+20
-31.379  9.43021e+20
-31.2617  9.63819e+20
-31.1444  9.85718e+20
-31.0271  1.00616e+21
-30.9098  1.0237e+21
-30.7925  1.03849e+21
-30.6752  1.05134e+21
-30.5579  1.06333e+21
-30.4406  1.07532e+21
-30.3232  1.08706e+21
-30.2059  1.09756e+21
-30.0886  1.10442e+21
-29.9713  1.10586e+21
-29.854  1.10094e+21
-29.7367  1.09044e+21
-29.6194  1.07741e+21
-29.5021  1.06733e+21
-29.3848  1.06677e+21
-29.2675  1.08266e+21
-29.1502  1.12045e+21
-29.0329  1.1832e+21
-28.9156  1.26969e+21
-28.7983  1.37574e+21
-28.681  1.49342e+21
-28.5637  1.61313e+21
-28.4464  1.72446e+21
-28.3291  1.81919e+21
-28.2118  1.89091e+21
-28.0944  1.93709e+21
-27.9771  1.95869e+21
-27.8598  1.95927e+21
-27.7425  1.94416e+21
-27.6252  1.91889e+21
-27.5079  1.88908e+21
-27.3906  1.85877e+21
-27.2733  1.83071e+21
-27.156  1.80716e+21
-27.0387  1.78962e+21
-26.9214  1.78031e+21
-26.8041  1.78201e+21
-26.6868  1.79796e+21
-26.5695  1.83191e+21
-26.4522  1.88642e+21
-26.3349  1.96278e+21
-26.2176  2.05977e+21
-26.1003  2.17342e+21
-25.983  2.29743e+21
-25.8657  2.42359e+21
-25.7483  2.5436e+21
-25.631  2.65049e+21
-25.5137  2.7392e+21
-25.3964  2.80851e+21
-25.2791  2.86006e+21
-25.1618  2.89898e+21
-25.0445  2.93177e+21
-24.9272  2.96597e+21
-24.8099  3.00812e+21
-24.6926  3.06329e+21
-24.5753  3.13406e+21
-24.458  3.22135e+21
-24.3407  3.32472e+21
-24.2234  3.44328e+21
-24.1061  3.57599e+21
-23.9888  3.72329e+21
-23.8715  3.88616e+21
-23.7542  4.06643e+21
-23.6369  4.26611e+21
-23.5196  4.4863e+21
-23.4023  4.72709e+21
-23.2849  4.98781e+21
-23.1676  5.26582e+21
-23.0503  5.55954e+21
-22.933  5.86771e+21
-22.8157  6.19133e+21
-22.6984  6.53315e+21
-22.5811  6.89927e+21
-22.4638  7.29674e+21
-22.3465  7.7335e+21
-22.2292  8.21591e+21
-22.1119  8.74802e+21
-21.9946  9.32909e+21
-21.8773  9.95482e+21
-21.76  1.06162e+22
-21.6427  1.1301e+22
-21.5254  1.19964e+22
-21.4081  1.26898e+22
-21.2908  1.33715e+22
-21.1735  1.40346e+22
-21.0561  1.46774e+22
-20.9388  1.53013e+22
-20.8215  1.59113e+22
-20.7042  1.65132e+22
-20.5869  1.71137e+22
-20.4696  1.77198e+22
-20.3523  1.83364e+22
-20.235  1.89676e+22
-20.1177  1.96169e+22
-20.0004  2.02877e+22
-19.8831  2.09824e+22
-19.7658  2.17027e+22
-19.6485  2.2451e+22
-19.5312  2.32255e+22
-19.4139  2.40239e+22
-19.2966  2.48405e+22
-19.1793  2.56663e+22
-19.062  2.649e+22
-18.9447  2.72999e+22
-18.8274  2.80849e+22
-18.71  2.88351e+22
-18.5927  2.95454e+22
-18.4754  3.02144e+22
-18.3581  3.08447e+22
-18.2408  3.14421e+22
-18.1235  3.20141e+22
-18.0062  3.25677e+22
-17.8889  3.31086e+22
-17.7716  3.36396e+22
-17.6543  3.41609e+22
-17.537  3.46706e+22
-17.4197  3.51657e+22
-17.3024  3.56436e+22
-17.1851  3.61035e+22
-17.0678  3.65463e+22
-16.9505  3.69757e+22
-16.8332  3.73973e+22
-16.7159  3.78162e+22
-16.5986  3.82377e+22
-16.4813  3.86645e+22
-16.364  3.90981e+22
-16.2466  3.95376e+22
-16.1293  3.99805e+22
-16.012  4.0425e+22
-15.8947  4.08696e+22
-15.7774  4.13156e+22
-15.6601  4.17658e+22
-15.5428  4.22246e+22
-15.4255  4.26969e+22
-15.3082  4.31871e+22
-15.1909  4.36966e+22
-15.0736  4.42245e+22
-14.9563  4.47662e+22
-14.839  4.53145e+22
-14.7217  4.58613e+22
-14.6044  4.63981e+22
-14.4871  4.69181e+22
-14.3698  4.74171e+22
-14.2525  4.78951e+22
-14.1352  4.83534e+22
-14.0178  4.8797e+22
-13.9005  4.9231e+22
-13.7832  4.96608e+22
-13.6659  5.00906e+22
-13.5486  5.05239e+22
-13.4313  5.09634e+22
-13.314  5.14114e+22
-13.1967  5.18705e+22
-13.0794  5.23443e+22
-12.9621  5.2838e+22
-12.8448  5.3356e+22
-12.7275  5.39033e+22
-12.6102  5.44821e+22
-12.4929  5.50927e+22
-12.3756  5.57302e+22
-12.2583  5.63875e+22
-12.141  5.70539e+22
-12.0237  5.77171e+22
-11.9064  5.83654e+22
-11.7891  5.89888e+22
-11.6718  5.95813e+22
-11.5544  6.01405e+22
-11.4371  6.06679e+22
-11.3198  6.11687e+22
-11.2025  6.16491e+22
-11.0852  6.21163e+22
-10.9679  6.25754e+22
-10.8506  6.30299e+22
-10.7333  6.34807e+22
-10.616  6.3928e+22
-10.4987  6.43697e+22
-10.3814  6.48042e+22
-10.2641  6.52313e+22
-10.1468  6.56511e+22
-10.0295  6.60657e+22
-9.91217  6.64777e+22
-9.79487  6.68892e+22
-9.67756  6.73018e+22
-9.56026  6.77162e+22
-9.44295  6.81312e+22
-9.32565  6.85448e+22
-9.20834  6.89548e+22
-9.09104  6.93594e+22
-8.97373  6.97583e+22
-8.85643  7.01529e+22
-8.73913  7.0546e+22
-8.62182  7.09413e+22
-8.50452  7.13425e+22
-8.38721  7.17519e+22
-8.26991  7.21696e+22
-8.1526  7.25932e+22
-8.03529  7.30177e+22
-7.91799  7.34367e+22
-7.80069  7.38426e+22
-7.68338  7.42294e+22
-7.56608  7.45925e+22
-7.44877  7.49307e+22
-7.33146  7.52448e+22
-7.21416  7.55389e+22
-7.09685  7.58176e+22
-6.97955  7.60865e+22
-6.86224  7.63499e+22
-6.74494  7.66107e+22
-6.62763  7.68694e+22
-6.51033  7.71258e+22
-6.39302  7.73787e+22
-6.27572  7.76277e+22
-6.15842  7.78732e+22
-6.04111  7.81176e+22
-5.92381  7.8365e+22
-5.8065  7.86203e+22
-5.68919  7.88881e+22
-5.57189  7.9172e+22
-5.45458  7.94733e+22
-5.33728  7.97907e+22
-5.21997  8.01197e+22
-5.10267  8.04549e+22
-4.98536  8.07891e+22
-4.86806  8.11171e+22
-4.75075  8.14341e+22
-4.63345  8.17388e+22
-4.51614  8.20316e+22
-4.39884  8.23153e+22
-4.28154  8.25922e+22
-4.16423  8.28651e+22
-4.04692  8.3135e+22
-3.92962  8.34009e+22
-3.81231  8.36595e+22
-3.69501  8.39069e+22
-3.5777  8.41392e+22
-3.4604  8.43531e+22
-3.34309  8.45481e+22
-3.22579  8.47257e+22
-3.10849  8.489e+22
-2.99118  8.50455e+22
-2.87387  8.51982e+22
-2.75657  8.53523e+22
-2.63926  8.55098e+22
-2.52196  8.56709e+22
-2.40465  8.58338e+22
-2.28735  8.5995e+22
-2.17005  8.61517e+22
-2.05274  8.63013e+22
-1.93544  8.64437e+22
-1.81813  8.65808e+22
-1.70083  8.67159e+22
-1.58352  8.68525e+22
-1.46622  8.69939e+22
-1.34891  8.71409e+22
-1.2316  8.72925e+22
-1.1143  8.74442e+22
-0.996995  8.75905e+22
-0.87969  8.77247e+22
-0.762385  8.78413e+22
-0.64508  8.7936e+22
-0.527775  8.80078e+22
-0.41047  8.80581e+22
-0.293165  8.80899e+22
-0.17586  8.81075e+22
-0.058555  8.81141e+22
0.05875  8.81117e+22
0.176055  8.80994e+22
0.29336  8.80749e+22
0.410665  8.8034e+22
0.52797  8.79732e+22
0.645275  8.78895e+22
0.76258  8.77826e+22
0.879885  8.76551e+22
0.99719  8.75117e+22
1.1145  8.73587e+22
1.2318  8.72029e+22
1.3491  8.70493e+22
1.46641  8.69011e+22
1.58371  8.67586e+22
1.70102  8.66199e+22
1.81832  8.64813e+22
1.93563  8.63388e+22
2.05294  8.61898e+22
2.17024  8.6033e+22
2.28754  8.58695e+22
2.40485  8.57021e+22
2.52216  8.55342e+22
2.63946  8.5369e+22
2.75677  8.52078e+22
2.87407  8.50501e+22
2.99137  8.48928e+22
3.10868  8.47309e+22
3.22599  8.45592e+22
3.34329  8.43729e+22
3.4606  8.41685e+22
3.5779  8.39456e+22
3.69521  8.37058e+22
3.81251  8.34525e+22
3.92982  8.31896e+22
4.04712  8.29209e+22
4.16443  8.26483e+22
4.28173  8.23719e+22
4.39903  8.20902e+22
4.51634  8.17999e+22
4.63364  8.14983e+22
4.75095  8.11837e+22
4.86825  8.08563e+22
4.98556  8.05195e+22
5.10286  8.01781e+22
5.22017  7.98388e+22
5.33748  7.95084e+22
5.45478  7.91921e+22
5.57209  7.88929e+22
5.68939  7.86114e+22
5.8067  7.83453e+22
5.924  7.80898e+22
6.0413  7.78404e+22
6.15861  7.75923e+22
6.27591  7.7342e+22
6.39322  7.70878e+22
6.51052  7.68302e+22
6.62783  7.65698e+22
6.74514  7.63079e+22
6.86244  7.60445e+22
6.97975  7.57781e+22
7.09705  7.55048e+22
7.21436  7.522e+22
7.33166  7.49181e+22
7.44897  7.45943e+22
7.56627  7.4246e+22
7.68358  7.38726e+22
7.80088  7.34771e+22
7.91819  7.30649e+22
8.03549  7.26426e+22
8.1528  7.22172e+22
8.2701  7.17948e+22
8.38741  7.13793e+22
8.50471  7.09718e+22
8.62202  7.05718e+22
8.73932  7.01757e+22
8.85662  6.978e+22
8.97393  6.93817e+22
9.09123  6.89785e+22
9.20854  6.85697e+22
9.32584  6.81563e+22
9.44315  6.77404e+22
9.56045  6.7324e+22
9.67776  6.69088e+22
9.79506  6.64949e+22
9.91237  6.60818e+22
10.0297  6.5667e+22
10.147  6.52484e+22
10.2643  6.48238e+22
10.3816  6.43922e+22
10.4989  6.39534e+22
10.6162  6.35092e+22
10.7335  6.30607e+22
10.8508  6.26093e+22
10.9681  6.21547e+22
11.0854  6.16943e+22
11.2027  6.1224e+22
11.32  6.07367e+22
11.4373  6.0226e+22
11.5546  5.96855e+22
11.6719  5.91117e+22
11.7893  5.85044e+22
11.9066  5.78673e+22
12.0239  5.72089e+22
12.1412  5.65398e+22
12.2585  5.58725e+22
12.3758  5.52191e+22
12.4931  5.4589e+22
12.6104  5.39887e+22
12.7277  5.34212e+22
12.845  5.2885e+22
12.9623  5.23772e+22
13.0796  5.18925e+22
13.1969  5.14261e+22
13.3142  5.09732e+22
13.4315  5.05303e+22
13.5488  5.00946e+22
13.6661  4.96638e+22
13.7834  4.9235e+22
13.9007  4.88042e+22
14.018  4.83666e+22
14.1354  4.79174e+22
14.2527  4.74515e+22
14.37  4.69655e+22
14.4873  4.64589e+22
14.6046  4.59335e+22
14.7219  4.53944e+22
14.8392  4.48491e+22
14.9565  4.4306e+22
15.0738  4.3773e+22
15.1911  4.32557e+22
15.3084  4.2757e+22
15.4257  4.22765e+22
15.543  4.18112e+22
15.6603  4.13559e+22
15.7776  4.09058e+22
15.8949  4.04568e+22
16.0122  4.00069e+22
16.1295  3.95563e+22
16.2468  3.91069e+22
16.3641  3.86615e+22
16.4815  3.8222e+22
16.5988  3.77894e+22
16.7161  3.73623e+22
16.8334  3.69369e+22
16.9507  3.65081e+22
17.068  3.607e+22
17.1853  3.5618e+22
17.3026  3.51494e+22
17.4199  3.46633e+22
17.5372  3.41609e+22
17.6545  3.36449e+22
17.7718  3.3118e+22
17.8891  3.25806e+22
18.0064  3.20318e+22
18.1237  3.14672e+22
18.241  3.08807e+22
18.3583  3.02651e+22
18.4756  2.96136e+22
18.5929  2.89216e+22
18.7102  2.81886e+22
18.8275  2.74175e+22
18.9449  2.66161e+22
19.0622  2.57947e+22
19.1795  2.49655e+22
19.2968  2.41401e+22
19.4141  2.33286e+22
19.5314  2.25389e+22
19.6487  2.17749e+22
19.766  2.1039e+22
19.8833  2.03299e+22
20.0006  1.96465e+22
20.1179  1.89861e+22
20.2352  1.8346e+22
20.3525  1.7723e+22
20.4698  1.71141e+22
20.5871  1.65144e+22
20.7044  1.59179e+22
20.8217  1.5319e+22
20.939  1.47107e+22
21.0563  1.40873e+22
21.1736  1.34452e+22
21.291  1.27842e+22
21.4083  1.21083e+22
21.5256  1.14247e+22
21.6429  1.07451e+22
21.7602  1.00819e+22
21.8775  9.44783e+21
21.9948  8.85337e+21
22.1121  8.30618e+21
22.2294  7.80831e+21
22.3467  7.35806e+21
22.464  6.95018e+21
22.5813  6.57713e+21
22.6986  6.23134e+21
22.8159  5.9055e+21
22.9332  5.59551e+21
23.0505  5.29938e+21
23.1678  5.01734e+21
23.2851  4.75149e+21
23.4024  4.50391e+21
23.5198  4.27698e+21
23.6371  4.0712e+21
23.7544  3.88573e+21
23.8717  3.71932e+21
23.989  3.56998e+21
24.1063  3.43597e+21
24.2236  3.31624e+21
24.3409  3.21138e+21
24.4582  3.1219e+21
24.5755  3.04832e+21
24.6928  2.99089e+21
24.8101  2.94738e+21
24.9274  2.91399e+21
25.0447  2.88466e+21
25.162  2.8525e+21
25.2793  2.81008e+21
25.3966  2.75138e+21
25.5139  2.67297e+21
25.6312  2.57454e+21
25.7485  2.45951e+21
25.8658  2.3341e+21
25.9832  2.20617e+21
26.1005  2.08468e+21
26.2178  1.97703e+21
26.3351  1.88859e+21
26.4524  1.82222e+21
26.5697  1.77778e+21
26.687  1.75338e+21
26.8043  1.74532e+21
26.9216  1.75006e+21
27.0389  1.76436e+21
27.1562  1.78555e+21
27.2735  1.81175e+21
27.3908  1.84092e+21
27.5081  1.87096e+21
27.6254  1.89847e+21
27.7427  1.91896e+21
27.86  1.9271e+21
27.9773  1.91731e+21
28.0946  1.88527e+21
28.212  1.82854e+21
28.3293  1.74797e+21
28.4466  1.64761e+21
28.5639  1.53501e+21
28.6812  1.41904e+21
28.7985  1.30965e+21
28.9158  1.21556e+21
29.0331  1.14291e+21
29.1504  1.09454e+21
29.2677  1.0694e+21
29.385  1.06325e+21
29.5023  1.06999e+21
29.6196  1.08265e+21
29.7369  1.09528e+21
29.8542  1.10342e+21
29.9715  1.1053e+21
30.0888  1.10087e+21
30.2061  1.09192e+21
30.3234  1.08052e+21
30.4407  1.06857e+21
30.558  1.05679e+21
30.6754  1.045e+21
30.7927  1.03236e+21
30.91  1.01737e+21
31.0273  9.99669e+20
31.1446  9.79565e+20
31.2619  9.58982e+20
31.3792  9.40281e+20
31.4965  9.26313e+20
31.6138  9.19048e+20
31.7311  9.18488e+20
31.8484  9.22553e+20
31.9657  9.27057e+20
32.083  9.26265e+20
32.2003  9.14009e+20
32.3176  8.85836e+20
32.4349  8.3915e+20
32.5522  7.74834e+20
32.6695  6.97181e+20
32.7868  6.13138e+20
32.9042  5.30785e+20
33.0215  4.58228e+20
33.1388  4.01325e+20
33.2561  3.63319e+20
33.3734  3.44049e+20
33.4907  3.40339e+20
33.608  3.4714e+20
33.7253  3.59126e+20
33.8426  3.7162e+20
33.9599  3.81963e+20
34.0772  3.89652e+20
34.1945  3.95853e+20
34.3118  4.02867e+20
34.4291  4.12658e+20
34.5464  4.26047e+20
34.6637  4.42e+20
34.781  4.5776e+20
34.8983  4.69595e+20
35.0156  4.7372e+20
35.1329  4.67799e+20
35.2503  4.51478e+20
35.3676  4.27151e+20
35.4849  3.99496e+20
35.6022  3.74354e+20
35.7195  3.57557e+20
35.8368  3.5354e+20
35.9541  3.63943e+20
36.0714  3.8748e+20
36.1887  4.20036e+20
36.306  4.55846e+20
36.4233  4.88734e+20
36.5406  5.13615e+20
36.6579  5.27712e+20
36.7752  5.30738e+20
36.8925  5.2537e+20
37.0098  5.15707e+20
37.1271  5.06459e+20
37.2444  5.0143e+20
37.3617  5.0294e+20
37.479  5.10951e+20
37.5964  5.23888e+20
37.7137  5.38712e+20
37.831  5.52637e+20
37.9483  5.63712e+20
38.0656  5.71307e+20
38.1829  5.76598e+20
38.3002  5.81793e+20
38.4175  5.89255e+20
38.5348  6.00679e+20
38.6521  6.16044e+20
38.7694  6.33497e+20
38.8867  6.49324e+20
39.004  6.59107e+20
39.1213  6.5852e+20
39.2386  6.44592e+20
39.3559  6.16869e+20
39.4732  5.77551e+20
39.5905  5.31055e+20
39.7078  4.83344e+20
39.8251  4.40629e+20
39.9425  4.07982e+20
40.0598  3.88222e+20
40.1771  3.81665e+20
40.2944  3.85757e+20
40.4117  3.964e+20
40.529  4.08703e+20
40.6463  4.18253e+20
40.7636  4.22058e+20
40.8809  4.19116e+20
40.9982  4.10462e+20
41.1155  3.98331e+20
41.2328  3.85638e+20
41.3501  3.74572e+20
41.4674  3.66513e+20
41.5847  3.61051e+20
41.702  3.56793e+20
41.8193  3.51293e+20
41.9366  3.42411e+20
42.0539  3.28759e+20
42.1712  3.10533e+20
42.2885  2.89192e+20
42.4059  2.6752e+20
42.5232  2.4874e+20
42.6405  2.35797e+20
42.7578  2.30242e+20
42.8751  2.31905e+20
42.9924  2.38851e+20
43.1097  2.47846e+20
43.227  2.5486e+20
43.3443  2.56364e+20
43.4616  2.50203e+20
43.5789  2.35808e+20
43.6962  2.14904e+20
43.8135  1.90762e+20
43.9308  1.67449e+20
44.0481  1.4888e+20
44.1654  1.37922e+20
44.2827  1.35573e+20
44.4  1.4085e+20
44.5173  1.51249e+20
44.6347  1.63153e+20
44.752  1.73164e+20
44.8693  1.78817e+20
44.9866  1.79306e+20
45.1039  1.75682e+20
45.2212  1.70495e+20
45.3385  1.6704e+20
45.4558  1.68249e+20
45.5731  1.75852e+20
45.6904  1.89738e+20
45.8077  2.07785e+20
45.925  2.26352e+20
46.0423  2.41257e+20
46.1596  2.4883e+20
46.2769  2.46952e+20
46.3942  2.35954e+20
46.5115  2.18581e+20
46.6288  1.99353e+20
46.7461  1.83696e+20
46.8634  1.76591e+20
46.9808  1.8128e+20
47.0981  1.98411e+20
47.2154  2.25931e+20
47.3327  2.59529e+20
47.45  2.93643e+20
47.5673  3.22783e+20
47.6846  3.42965e+20
47.8019  3.52411e+20
47.9192  3.51773e+20
48.0365  3.44038e+20
48.1538  3.33113e+20
48.2711  3.22861e+20
48.3884  3.16073e+20
48.5057  3.13711e+20
48.623  3.14622e+20
48.7403  3.16396e+20
48.8576  3.16194e+20
48.9749  3.11532e+20
49.0922  3.01648e+20
49.2095  2.87502e+20
49.3269  2.71848e+20
49.4442  2.58098e+20
49.5615  2.49488e+20
49.6788  2.4798e+20
49.7961  2.53392e+20
49.9134  2.6333e+20
50.0307  2.73772e+20
50.148  2.80077e+20
50.2653  2.78437e+20
50.3826  2.66894e+20
50.4999  2.46254e+20
50.6172  2.19807e+20
50.7345  1.9282e+20
50.8518  1.71027e+20
