#S 1 spectral density
#N 2
#UFWHM 27.4494
#L  abscissas [um]  spectral density
-58.5938  3.18705e+20
-58.4764  2.92013e+20
-58.3591  2.61599e+20
-58.2418  2.31563e+20
-58.1245  2.0586e+20
-58.0072  1.87373e+20
-57.8899  1.77297e+20
-57.7726  1.74826e+20
-57.6553  1.77568e+20
-57.538  1.81944e+20
-57.4207  1.84518e+20
-57.3034  1.82463e+20
-57.1861  1.74629e+20
-57.0688  1.61777e+20
-56.9515  1.46413e+20
-56.8342  1.31949e+20
-56.7169  1.22127e+20
-56.5996  1.19776e+20
-56.4823  1.26142e+20
-56.365  1.40511e+20
-56.2477  1.60274e+20
-56.1303  1.81681e+20
-56.013  2.00732e+20
-55.8957  2.14102e+20
-55.7784  2.20206e+20
-55.6611  2.19414e+20
-55.5438  2.14117e+20
-55.4265  2.079e+20
-55.3092  2.04774e+20
-55.1919  2.08014e+20
-55.0746  2.19004e+20
-54.9573  2.37442e+20
-54.84  2.6067e+20
-54.7227  2.85029e+20
-54.6054  3.06346e+20
-54.4881  3.21347e+20
-54.3708  3.28482e+20
-54.2535  3.28196e+20
-54.1362  3.2303e+20
-54.0189  3.16462e+20
-53.9016  3.12352e+20
-53.7842  3.13503e+20
-53.6669  3.21095e+20
-53.5496  3.34279e+20
-53.4323  3.50387e+20
-53.315  3.66192e+20
-53.1977  3.78452e+20
-53.0804  3.85403e+20
-52.9631  3.87162e+20
-52.8458  3.8582e+20
-52.7285  3.8519e+20
-52.6112  3.89192e+20
-52.4939  4.01147e+20
-52.3766  4.22439e+20
-52.2593  4.51837e+20
-52.142  4.85793e+20
-52.0247  5.19189e+20
-51.9074  5.46485e+20
-51.7901  5.63123e+20
-51.6728  5.67237e+20
-51.5555  5.59416e+20
-51.4381  5.43316e+20
-51.3208  5.24205e+20
-51.2035  5.07806e+20
-51.0862  4.98985e+20
-50.9689  5.00242e+20
-50.8516  5.11161e+20
-50.7343  5.28634e+20
-50.617  5.47973e+20
-50.4997  5.63847e+20
-50.3824  5.72062e+20
-50.2651  5.70368e+20
-50.1478  5.59384e+20
-50.0305  5.41845e+20
-49.9132  5.22047e+20
-49.7959  5.04322e+20
-49.6786  4.91918e+20
-49.5613  4.86122e+20
-49.444  4.86054e+20
-49.3267  4.88928e+20
-49.2094  4.91173e+20
-49.092  4.89493e+20
-48.9747  4.82247e+20
-48.8574  4.69687e+20
-48.7401  4.54005e+20
-48.6228  4.38963e+20
-48.5055  4.28414e+20
-48.3882  4.2518e+20
-48.2709  4.30412e+20
-48.1536  4.42448e+20
-48.0363  4.5802e+20
-47.919  4.72264e+20
-47.8017  4.80479e+20
-47.6844  4.79265e+20
-47.5671  4.67511e+20
-47.4498  4.46425e+20
-47.3325  4.19787e+20
-47.2152  3.92206e+20
-47.0979  3.68558e+20
-46.9806  3.52177e+20
-46.8633  3.44386e+20
-46.7459  3.44053e+20
-46.6286  3.48089e+20
-46.5113  3.52346e+20
-46.394  3.52843e+20
-46.2767  3.47041e+20
-46.1594  3.34465e+20
-46.0421  3.16914e+20
-45.9248  2.98051e+20
-45.8075  2.82273e+20
-45.6902  2.73499e+20
-45.5729  2.74322e+20
-45.4556  2.85027e+20
-45.3383  3.0352e+20
-45.221  3.26062e+20
-45.1037  3.48118e+20
-44.9864  3.65493e+20
-44.8691  3.75711e+20
-44.7518  3.78296e+20
-44.6345  3.7505e+20
-44.5172  3.69688e+20
-44.3998  3.66736e+20
-44.2825  3.70494e+20
-44.1652  3.8374e+20
-44.0479  4.07323e+20
-43.9306  4.39798e+20
-43.8133  4.77797e+20
-43.696  5.16944e+20
-43.5787  5.52838e+20
-43.4614  5.81999e+20
-43.3441  6.02813e+20
-43.2268  6.15354e+20
-43.1095  6.21467e+20
-42.9922  6.24347e+20
-42.8749  6.26716e+20
-42.7576  6.31141e+20
-42.6403  6.38747e+20
-42.523  6.49186e+20
-42.4057  6.60928e+20
-42.2884  6.72135e+20
-42.171  6.80751e+20
-42.0537  6.86045e+20
-41.9364  6.88214e+20
-41.8191  6.8894e+20
-41.7018  6.90737e+20
-41.5845  6.96139e+20
-41.4672  7.07106e+20
-41.3499  7.24095e+20
-41.2326  7.46046e+20
-41.1153  7.69901e+20
-40.998  7.91951e+20
-40.8807  8.08221e+20
-40.7634  8.15549e+20
-40.6461  8.12891e+20
-40.5288  8.01077e+20
-40.4115  7.82981e+20
-40.2942  7.62945e+20
-40.1769  7.45584e+20
-40.0596  7.34724e+20
-39.9423  7.32224e+20
-39.825  7.3789e+20
-39.7076  7.49192e+20
-39.5903  7.62184e+20
-39.473  7.72146e+20
-39.3557  7.75215e+20
-39.2384  7.6927e+20
-39.1211  7.54271e+20
-39.0038  7.32282e+20
-38.8865  7.07306e+20
-38.7692  6.83269e+20
-38.6519  6.63928e+20
-38.5346  6.51152e+20
-38.4173  6.44956e+20
-38.3  6.43204e+20
-38.1827  6.42803e+20
-38.0654  6.40274e+20
-37.9481  6.33323e+20
-37.8308  6.20907e+20
-37.7135  6.04598e+20
-37.5962  5.87167e+20
-37.4789  5.7266e+20
-37.3615  5.64718e+20
-37.2442  5.65728e+20
-37.1269  5.75915e+20
-37.0096  5.93086e+20
-36.8923  6.1352e+20
-36.775  6.3232e+20
-36.6577  6.45039e+20
-36.5404  6.48967e+20
-36.4231  6.43292e+20
-36.3058  6.2976e+20
-36.1885  6.11848e+20
-36.0712  5.93992e+20
-35.9539  5.79999e+20
-35.8366  5.72218e+20
-35.7193  5.71019e+20
-35.602  5.74618e+20
-35.4847  5.79793e+20
-35.3674  5.83011e+20
-35.2501  5.81578e+20
-35.1328  5.74748e+20
-35.0154  5.63892e+20
-34.8981  5.52653e+20
-34.7808  5.45599e+20
-34.6635  5.47084e+20
-34.5462  5.60189e+20
-34.4289  5.85302e+20
-34.3116  6.20088e+20
-34.1943  6.59802e+20
-34.077  6.98424e+20
-33.9597  7.30063e+20
-33.8424  7.50432e+20
-33.7251  7.58017e+20
-33.6078  7.54541e+20
-33.4905  7.4416e+20
-33.3732  7.33083e+20
-33.2559  7.27609e+20
-33.1386  7.32398e+20
-33.0213  7.50056e+20
-32.904  7.80007e+20
-32.7867  8.18876e+20
-32.6693  8.61971e+20
-32.552  9.03634e+20
-32.4347  9.39539e+20
-32.3174  9.67177e+20
-32.2001  9.86175e+20
-32.0828  9.98515e+20
-31.9655  1.00748e+21
-31.8482  1.01648e+21
-31.7309  1.02793e+21
-31.6136  1.04305e+21
-31.4963  1.06116e+21
-31.379  1.08036e+21
-31.2617  1.09818e+21
-31.1444  1.11299e+21
-31.0271  1.1241e+21
-30.9098  1.1325e+21
-30.7925  1.14115e+21
-30.6752  1.15323e+21
-30.5579  1.17198e+21
-30.4406  1.19941e+21
-30.3232  1.23543e+21
-30.2059  1.27781e+21
-30.0886  1.32175e+21
-29.9713  1.36203e+21
-29.854  1.39323e+21
-29.7367  1.41135e+21
-29.6194  1.41454e+21
-29.5021  1.40393e+21
-29.3848  1.38247e+21
-29.2675  1.35503e+21
-29.1502  1.32637e+21
-29.0329  1.30087e+21
-28.9156  1.28028e+21
-28.7983  1.26494e+21
-28.681  1.25298e+21
-28.5637  1.24155e+21
-28.4464  1.22742e+21
-28.3291  1.20927e+21
-28.2118  1.18693e+21
-28.0944  1.16255e+21
-27.9771  1.14026e+21
-27.8598  1.12459e+21
-27.7425  1.12003e+21
-27.6252  1.12898e+21
-27.5079  1.15225e+21
-27.3906  1.18784e+21
-27.2733  1.23168e+21
-27.156  1.27887e+21
-27.0387  1.32427e+21
-26.9214  1.3645e+21
-26.8041  1.39804e+21
-26.6868  1.42589e+21
-26.5695  1.45135e+21
-26.4522  1.47858e+21
-26.3349  1.51202e+21
-26.2176  1.55526e+21
-26.1003  1.60952e+21
-25.983  1.67431e+21
-25.8657  1.74663e+21
-25.7483  1.82259e+21
-25.631  1.89799e+21
-25.5137  1.96917e+21
-25.3964  2.03448e+21
-25.2791  2.09303e+21
-25.1618  2.14639e+21
-25.0445  2.1963e+21
-24.9272  2.24487e+21
-24.8099  2.29371e+21
-24.6926  2.3436e+21
-24.5753  2.39409e+21
-24.458  2.44486e+21
-24.3407  2.49576e+21
-24.2234  2.548e+21
-24.1061  2.60471e+21
-23.9888  2.6707e+21
-23.8715  2.75221e+21
-23.7542  2.85563e+21
-23.6369  2.98658e+21
-23.5196  3.14772e+21
-23.4023  3.33869e+21
-23.2849  3.55485e+21
-23.1676  3.78783e+21
-23.0503  4.02721e+21
-22.933  4.26103e+21
-22.8157  4.47879e+21
-22.6984  4.67153e+21
-22.5811  4.83463e+21
-22.4638  4.96689e+21
-22.3465  5.07094e+21
-22.2292  5.15197e+21
-22.1119  5.21743e+21
-21.9946  5.27446e+21
-21.8773  5.33082e+21
-21.76  5.39344e+21
-21.6427  5.46865e+21
-21.5254  5.56303e+21
-21.4081  5.68381e+21
-21.2908  5.83879e+21
-21.1735  6.03592e+21
-21.0561  6.28354e+21
-20.9388  6.58825e+21
-20.8215  6.95408e+21
-20.7042  7.38092e+21
-20.5869  7.86409e+21
-20.4696  8.39445e+21
-20.3523  8.95884e+21
-20.235  9.54178e+21
-20.1177  1.01274e+22
-20.0004  1.07018e+22
-19.8831  1.1254e+22
-19.7658  1.1777e+22
-19.6485  1.22702e+22
-19.5312  1.27355e+22
-19.4139  1.3179e+22
-19.2966  1.36098e+22
-19.1793  1.40372e+22
-19.062  1.44714e+22
-18.9447  1.49233e+22
-18.8274  1.54035e+22
-18.71  1.5922e+22
-18.5927  1.64896e+22
-18.4754  1.71154e+22
-18.3581  1.78078e+22
-18.2408  1.85714e+22
-18.1235  1.9407e+22
-18.0062  2.03093e+22
-17.8889  2.12676e+22
-17.7716  2.22649e+22
-17.6543  2.32801e+22
-17.537  2.429e+22
-17.4197  2.52717e+22
-17.3024  2.62052e+22
-17.1851  2.70761e+22
-17.0678  2.78765e+22
-16.9505  2.86052e+22
-16.8332  2.92684e+22
-16.7159  2.98751e+22
-16.5986  3.04387e+22
-16.4813  3.09721e+22
-16.364  3.14882e+22
-16.2466  3.19982e+22
-16.1293  3.25106e+22
-16.012  3.30332e+22
-15.8947  3.35719e+22
-15.7774  3.41325e+22
-15.6601  3.47196e+22
-15.5428  3.53369e+22
-15.4255  3.5986e+22
-15.3082  3.66665e+22
-15.1909  3.73736e+22
-15.0736  3.80997e+22
-14.9563  3.88341e+22
-14.839  3.95638e+22
-14.7217  4.02764e+22
-14.6044  4.09604e+22
-14.4871  4.16078e+22
-14.3698  4.22143e+22
-14.2525  4.27817e+22
-14.1352  4.33136e+22
-14.0178  4.38178e+22
-13.9005  4.43026e+22
-13.7832  4.47762e+22
-13.6659  4.52448e+22
-13.5486  4.57135e+22
-13.4313  4.61854e+22
-13.314  4.66622e+22
-13.1967  4.71457e+22
-13.0794  4.76381e+22
-12.9621  4.81427e+22
-12.8448  4.86631e+22
-12.7275  4.92031e+22
-12.6102  4.97651e+22
-12.4929  5.03504e+22
-12.3756  5.09562e+22
-12.2583  5.15782e+22
-12.141  5.22094e+22
-12.0237  5.28418e+22
-11.9064  5.34681e+22
-11.7891  5.40824e+22
-11.6718  5.46827e+22
-11.5544  5.52695e+22
-11.4371  5.58459e+22
-11.3198  5.64182e+22
-11.2025  5.6992e+22
-11.0852  5.75726e+22
-10.9679  5.81624e+22
-10.8506  5.87613e+22
-10.7333  5.93662e+22
-10.616  5.9973e+22
-10.4987  6.05755e+22
-10.3814  6.11683e+22
-10.2641  6.17485e+22
-10.1468  6.23137e+22
-10.0295  6.28649e+22
-9.91217  6.34041e+22
-9.79487  6.39337e+22
-9.67756  6.44565e+22
-9.56026  6.49744e+22
-9.44295  6.54878e+22
-9.32565  6.59961e+22
-9.20834  6.64985e+22
-9.09104  6.69944e+22
-8.97373  6.7484e+22
-8.85643  6.79689e+22
-8.73913  6.84519e+22
-8.62182  6.89365e+22
-8.50452  6.94258e+22
-8.38721  6.99213e+22
-8.26991  7.04231e+22
-8.1526  7.09284e+22
-8.03529  7.14326e+22
-7.91799  7.19294e+22
-7.80069  7.24122e+22
-7.68338  7.28758e+22
-7.56608  7.33168e+22
-7.44877  7.3735e+22
-7.33146  7.41325e+22
-7.21416  7.45141e+22
-7.09685  7.48851e+22
-6.97955  7.52513e+22
-6.86224  7.56168e+22
-6.74494  7.59837e+22
-6.62763  7.63517e+22
-6.51033  7.6719e+22
-6.39302  7.7083e+22
-6.27572  7.74415e+22
-6.15842  7.77932e+22
-6.04111  7.81388e+22
-5.92381  7.84812e+22
-5.8065  7.88242e+22
-5.68919  7.91718e+22
-5.57189  7.95274e+22
-5.45458  7.98924e+22
-5.33728  8.02664e+22
-5.21997  8.06459e+22
-5.10267  8.10264e+22
-4.98536  8.14024e+22
-4.86806  8.17699e+22
-4.75075  8.21258e+22
-4.63345  8.247e+22
-4.51614  8.28037e+22
-4.39884  8.31307e+22
-4.28154  8.34537e+22
-4.16423  8.37758e+22
-4.04692  8.40974e+22
-3.92962  8.44175e+22
-3.81231  8.47318e+22
-3.69501  8.50355e+22
-3.5777  8.53238e+22
-3.4604  8.55924e+22
-3.34309  8.58395e+22
-3.22579  8.60659e+22
-3.10849  8.6275e+22
-2.99118  8.64706e+22
-2.87387  8.66585e+22
-2.75657  8.68427e+22
-2.63926  8.70253e+22
-2.52196  8.72065e+22
-2.40465  8.73847e+22
-2.28735  8.75568e+22
-2.17005  8.772e+22
-2.05274  8.78718e+22
-1.93544  8.80123e+22
-1.81813  8.81433e+22
-1.70083  8.8268e+22
-1.58352  8.83901e+22
-1.46622  8.85126e+22
-1.34891  8.86367e+22
-1.2316  8.87618e+22
-1.1143  8.88839e+22
-0.996995  8.89983e+22
-0.87969  8.90995e+22
-0.762385  8.91831e+22
-0.64508  8.92464e+22
-0.527775  8.92895e+22
-0.41047  8.93152e+22
-0.293165  8.93279e+22
-0.17586  8.93327e+22
-0.058555  8.93336e+22
0.05875  8.93328e+22
0.176055  8.93294e+22
0.29336  8.93206e+22
0.410665  8.93013e+22
0.52797  8.92669e+22
0.645275  8.92132e+22
0.76258  8.91385e+22
0.879885  8.90439e+22
0.99719  8.89328e+22
1.1145  8.88104e+22
1.2318  8.86824e+22
1.3491  8.85533e+22
1.46641  8.8426e+22
1.58371  8.83e+22
1.70102  8.81736e+22
1.81832  8.80433e+22
1.93563  8.7905e+22
2.05294  8.77559e+22
2.17024  8.75951e+22
2.28754  8.74234e+22
2.40485  8.72434e+22
2.52216  8.70585e+22
2.63946  8.68713e+22
2.75677  8.66832e+22
2.87407  8.64933e+22
2.99137  8.62985e+22
3.10868  8.60943e+22
3.22599  8.58756e+22
3.34329  8.56382e+22
3.4606  8.53795e+22
3.5779  8.51003e+22
3.69521  8.4803e+22
3.81251  8.44923e+22
3.92982  8.41731e+22
4.04712  8.38502e+22
4.16443  8.35261e+22
4.28173  8.32014e+22
4.39903  8.28748e+22
4.51634  8.25425e+22
4.63364  8.22015e+22
4.75095  8.18488e+22
4.86825  8.14838e+22
4.98556  8.11083e+22
5.10286  8.07257e+22
5.22017  8.03411e+22
5.33748  7.99597e+22
5.45478  7.95861e+22
5.57209  7.92218e+22
5.68939  7.88672e+22
5.8067  7.85197e+22
5.924  7.8175e+22
6.0413  7.78294e+22
6.15861  7.74792e+22
6.27591  7.71225e+22
6.39322  7.67591e+22
6.51052  7.63912e+22
6.62783  7.60215e+22
6.74514  7.56522e+22
6.86244  7.52849e+22
6.97975  7.49186e+22
7.09705  7.45502e+22
7.21436  7.41749e+22
7.33166  7.37867e+22
7.44897  7.338e+22
7.56627  7.29514e+22
7.68358  7.24991e+22
7.80088  7.2025e+22
7.91819  7.15336e+22
8.03549  7.10306e+22
8.1528  7.05227e+22
8.2701  7.00156e+22
8.38741  6.95135e+22
8.50471  6.90175e+22
8.62202  6.8528e+22
8.73932  6.80416e+22
8.85662  6.75553e+22
8.97393  6.70664e+22
9.09123  6.65724e+22
9.20854  6.6072e+22
9.32584  6.55655e+22
9.44315  6.50538e+22
9.56045  6.45372e+22
9.67776  6.40157e+22
9.79506  6.34882e+22
9.91237  6.29527e+22
10.0297  6.24063e+22
10.147  6.18467e+22
10.2643  6.12726e+22
10.3816  6.0685e+22
10.4989  6.00861e+22
10.6162  5.94812e+22
10.7335  5.88753e+22
10.8508  5.82741e+22
10.9681  5.76814e+22
11.0854  5.70986e+22
11.2027  5.6525e+22
11.32  5.59555e+22
11.4373  5.5385e+22
11.5546  5.48071e+22
11.6719  5.42169e+22
11.7893  5.36116e+22
11.9066  5.29917e+22
12.0239  5.23616e+22
12.1412  5.17275e+22
12.2585  5.10974e+22
12.3758  5.04796e+22
12.4931  4.98801e+22
12.6104  4.93029e+22
12.7277  4.87492e+22
12.845  4.82174e+22
12.9623  4.77045e+22
13.0796  4.72068e+22
13.1969  4.67205e+22
13.3142  4.62422e+22
13.4315  4.57701e+22
13.5488  4.53016e+22
13.6661  4.48345e+22
13.7834  4.43649e+22
13.9007  4.38869e+22
14.018  4.33932e+22
14.1354  4.28758e+22
14.2527  4.23264e+22
14.37  4.17391e+22
14.4873  4.11113e+22
14.6046  4.04438e+22
14.7219  3.97424e+22
14.8392  3.9017e+22
14.9565  3.82796e+22
15.0738  3.75434e+22
15.1911  3.68203e+22
15.3084  3.61198e+22
15.4257  3.54488e+22
15.543  3.48096e+22
15.6603  3.42014e+22
15.7776  3.36221e+22
15.8949  3.30669e+22
16.0122  3.25309e+22
16.1295  3.20082e+22
16.2468  3.14923e+22
16.3641  3.09756e+22
16.4815  3.0448e+22
16.5988  2.98985e+22
16.7161  2.93143e+22
16.8334  2.86822e+22
16.9507  2.79907e+22
17.068  2.72312e+22
17.1853  2.64009e+22
17.3026  2.55037e+22
17.4199  2.45499e+22
17.5372  2.3556e+22
17.6545  2.25436e+22
17.7718  2.1536e+22
17.8891  2.05556e+22
18.0064  1.96222e+22
18.1237  1.87499e+22
18.241  1.79475e+22
18.3583  1.72179e+22
18.4756  1.65584e+22
18.5929  1.59627e+22
18.7102  1.54222e+22
18.8275  1.4927e+22
18.9449  1.44668e+22
19.0622  1.40308e+22
19.1795  1.36089e+22
19.2968  1.31906e+22
19.4141  1.27653e+22
19.5314  1.23237e+22
19.6487  1.18579e+22
19.766  1.13632e+22
19.8833  1.0838e+22
20.0006  1.02863e+22
20.1179  9.71594e+21
20.2352  9.13932e+21
20.3525  8.57146e+21
20.4698  8.02873e+21
20.5871  7.52546e+21
20.7044  7.0731e+21
20.8217  6.67937e+21
20.939  6.34677e+21
21.0563  6.07342e+21
21.1736  5.85407e+21
21.291  5.68097e+21
21.4083  5.54625e+21
21.5256  5.44133e+21
21.6429  5.3592e+21
21.7602  5.29311e+21
21.8775  5.23662e+21
21.9948  5.18331e+21
22.1121  5.12632e+21
22.2294  5.05814e+21
22.3467  4.97103e+21
22.464  4.8587e+21
22.5813  4.71674e+21
22.6986  4.54396e+21
22.8159  4.34291e+21
22.9332  4.12017e+21
23.0505  3.88547e+21
23.1678  3.65005e+21
23.2851  3.42547e+21
23.4024  3.22141e+21
23.5198  3.0445e+21
23.6371  2.89776e+21
23.7544  2.77962e+21
23.8717  2.68639e+21
23.989  2.61188e+21
24.1063  2.54972e+21
24.2236  2.49379e+21
24.3409  2.44084e+21
24.4582  2.38845e+21
24.5755  2.3362e+21
24.6928  2.28473e+21
24.8101  2.23466e+21
24.9274  2.18573e+21
25.0447  2.13689e+21
25.162  2.0865e+21
25.2793  2.03208e+21
25.3966  1.97199e+21
25.5139  1.90562e+21
25.6312  1.83409e+21
25.7485  1.75996e+21
25.8658  1.68722e+21
25.9832  1.61982e+21
26.1005  1.56164e+21
26.2178  1.51427e+21
26.3351  1.47749e+21
26.4524  1.44891e+21
26.5697  1.42451e+21
26.687  1.39981e+21
26.8043  1.3707e+21
26.9216  1.33502e+21
27.0389  1.29296e+21
27.1562  1.24678e+21
27.2735  1.20099e+21
27.3908  1.16032e+21
27.5081  1.12981e+21
27.6254  1.11261e+21
27.7427  1.10957e+21
27.86  1.1192e+21
27.9773  1.13811e+21
28.0946  1.1617e+21
28.212  1.18556e+21
28.3293  1.20657e+21
28.4466  1.22337e+21
28.5639  1.23689e+21
28.6812  1.24913e+21
28.7985  1.26307e+21
28.9158  1.28124e+21
29.0331  1.30447e+21
29.1504  1.33188e+21
29.2677  1.36041e+21
29.385  1.38548e+21
29.5023  1.4023e+21
29.6196  1.40675e+21
29.7369  1.39681e+21
29.8542  1.37252e+21
29.9715  1.33693e+21
30.0888  1.29454e+21
30.2061  1.25102e+21
30.3234  1.21132e+21
30.4407  1.17915e+21
30.558  1.15582e+21
30.6754  1.14055e+21
30.7927  1.1308e+21
30.91  1.12307e+21
31.0273  1.11412e+21
31.1446  1.10199e+21
31.2619  1.08625e+21
31.3792  1.06793e+21
31.4965  1.04924e+21
31.6138  1.03256e+21
31.7311  1.0191e+21
31.8484  1.00905e+21
31.9657  1.00055e+21
32.083  9.90811e+20
32.2003  9.76129e+20
32.3176  9.54121e+20
32.4349  9.23487e+20
32.5522  8.85218e+20
32.6695  8.42848e+20
32.7868  8.01318e+20
32.9042  7.65757e+20
33.0215  7.40819e+20
33.1388  7.28449e+20
33.2561  7.28272e+20
33.3734  7.36846e+20
33.4907  7.48496e+20
33.608  7.5693e+20
33.7253  7.56773e+20
33.8426  7.44415e+20
33.9599  7.19453e+20
34.0772  6.84623e+20
34.1945  6.44742e+20
34.3118  6.06139e+20
34.4291  5.7435e+20
34.5464  5.53487e+20
34.6637  5.44762e+20
34.781  5.46747e+20
34.8983  5.55793e+20
35.0156  5.67104e+20
35.1329  5.76518e+20
35.2503  5.81041e+20
35.3676  5.80093e+20
35.4849  5.75428e+20
35.6022  5.69956e+20
35.7195  5.6739e+20
35.8368  5.70577e+20
35.9541  5.805e+20
36.0714  5.96124e+20
36.1887  6.14255e+20
36.306  6.30746e+20
36.4233  6.4136e+20
36.5406  6.43084e+20
36.6579  6.35295e+20
36.7752  6.19179e+20
36.8925  5.98829e+20
37.0098  5.78742e+20
37.1271  5.63685e+20
37.2444  5.56895e+20
37.3617  5.59775e+20
37.479  5.70975e+20
37.5964  5.8763e+20
37.7137  6.05599e+20
37.831  6.21183e+20
37.9483  6.31934e+20
38.0656  6.37227e+20
38.1829  6.38623e+20
38.3002  6.39226e+20
38.4175  6.42352e+20
38.5348  6.51064e+20
38.6521  6.66663e+20
38.7694  6.88341e+20
38.8867  7.13344e+20
39.004  7.37731e+20
39.1213  7.57377e+20
39.2386  7.6884e+20
39.3559  7.70993e+20
39.4732  7.64779e+20
39.5905  7.53405e+20
39.7078  7.41069e+20
39.8251  7.32397e+20
39.9425  7.30866e+20
40.0598  7.38086e+20
40.1771  7.5313e+20
40.2944  7.729e+20
40.4117  7.92919e+20
40.529  8.08596e+20
40.6463  8.16031e+20
40.7636  8.13208e+20
40.8809  8.0037e+20
40.9982  7.79935e+20
41.1155  7.55605e+20
41.2328  7.31754e+20
41.3501  7.11713e+20
41.4674  6.97803e+20
41.5847  6.90178e+20
41.702  6.87677e+20
41.8193  6.87605e+20
41.9366  6.87192e+20
42.0539  6.84184e+20
42.1712  6.77604e+20
42.2885  6.67745e+20
42.4059  6.56064e+20
42.5232  6.44594e+20
42.6405  6.35528e+20
42.7578  6.29756e+20
42.8751  6.26819e+20
42.9924  6.24938e+20
43.1097  6.21461e+20
43.227  6.13051e+20
43.3443  5.97206e+20
43.4616  5.72914e+20
43.5789  5.40625e+20
43.6962  5.03057e+20
43.8135  4.64134e+20
43.9308  4.28388e+20
44.0481  3.99695e+20
44.1654  3.80679e+20
44.2827  3.71607e+20
44.4  3.70693e+20
44.5173  3.74531e+20
44.6347  3.78624e+20
44.752  3.78839e+20
44.8693  3.724e+20
44.9866  3.58429e+20
45.1039  3.3839e+20
45.2212  3.15564e+20
45.3385  2.94321e+20
45.4558  2.78813e+20
45.5731  2.72026e+20
45.6904  2.75004e+20
45.8077  2.86521e+20
45.925  3.03495e+20
46.0423  3.21756e+20
46.1596  3.37191e+20
46.2769  3.4702e+20
46.3942  3.50349e+20
46.5115  3.4839e+20
46.6288  3.44268e+20
46.7461  3.42012e+20
46.8634  3.45345e+20
46.9808  3.56456e+20
47.0981  3.75668e+20
47.2154  4.00779e+20
47.3327  4.27959e+20
47.45  4.52395e+20
47.5673  4.69716e+20
47.6846  4.77401e+20
47.8019  4.74816e+20
47.9192  4.64019e+20
48.0365  4.49091e+20
48.1538  4.34533e+20
48.2711  4.2477e+20
48.3884  4.22603e+20
48.5057  4.28608e+20
48.623  4.40988e+20
48.7403  4.56549e+20
48.8576  4.71592e+20
48.9749  4.82744e+20
49.0922  4.88373e+20
49.2095  4.88958e+20
49.3269  4.86733e+20
49.4442  4.85115e+20
49.5615  4.8729e+20
49.6788  4.95536e+20
49.7961  5.099e+20
49.9134  5.28436e+20
50.0307  5.47477e+20
50.148  5.62569e+20
50.2653  5.70054e+20
50.3826  5.67893e+20
50.4999  5.56692e+20
50.6172  5.39377e+20
50.7345  5.20783e+20
50.8518  5.06116e+20
