#S 1 spectral density
#N 2
#UFWHM 27.684
#L  abscissas [um]  spectral density
-58.5938  3.10705e+20
-58.4764  2.83329e+20
-58.3591  2.52268e+20
-58.2418  2.2169e+20
-58.1245  1.9561e+20
-58.0072  1.76966e+20
-57.8899  1.66964e+20
-57.7726  1.64797e+20
-57.6553  1.68044e+20
-57.538  1.73087e+20
-57.4207  1.76423e+20
-57.3034  1.75161e+20
-57.1861  1.6808e+20
-57.0688  1.55888e+20
-56.9515  1.41009e+20
-56.8342  1.26841e+20
-56.7169  1.17082e+20
-56.5996  1.14562e+20
-56.4823  1.20536e+20
-56.365  1.34315e+20
-56.2477  1.53332e+20
-56.1303  1.73889e+20
-56.013  1.92034e+20
-55.8957  2.04496e+20
-55.7784  2.09739e+20
-55.6611  2.08154e+20
-55.5438  2.02158e+20
-55.4265  1.95339e+20
-55.3092  1.91685e+20
-55.1919  1.94448e+20
-55.0746  2.04987e+20
-54.9573  2.22948e+20
-54.84  2.45654e+20
-54.7227  2.69404e+20
-54.6054  2.90024e+20
-54.4881  3.04233e+20
-54.3708  3.10487e+20
-54.2535  3.09267e+20
-54.1362  3.03137e+20
-54.0189  2.95626e+20
-53.9016  2.90634e+20
-53.7842  2.91014e+20
-53.6669  2.97989e+20
-53.5496  3.10738e+20
-53.4323  3.26632e+20
-53.315  3.4245e+20
-53.1977  3.5496e+20
-53.0804  3.6238e+20
-52.9631  3.64803e+20
-52.8458  3.64278e+20
-52.7285  3.64558e+20
-52.6112  3.69502e+20
-52.4939  3.82355e+20
-52.3766  4.04428e+20
-52.2593  4.34431e+20
-52.142  4.68763e+20
-52.0247  5.02285e+20
-51.9074  5.29446e+20
-51.7901  5.45726e+20
-51.6728  5.49303e+20
-51.5555  5.40849e+20
-51.4381  5.24108e+20
-51.3208  5.04449e+20
-51.2035  4.87696e+20
-51.0862  4.78787e+20
-50.9689  4.80284e+20
-50.8516  4.91795e+20
-50.7343  5.10198e+20
-50.617  5.30774e+20
-50.4997  5.48109e+20
-50.3824  5.57922e+20
-50.2651  5.57857e+20
-50.1478  5.48424e+20
-50.0305  5.32266e+20
-49.9132  5.13606e+20
-49.7959  4.9673e+20
-49.6786  4.84894e+20
-49.5613  4.79405e+20
-49.444  4.79459e+20
-49.3267  4.82354e+20
-49.2094  4.84621e+20
-49.092  4.83075e+20
-48.9747  4.76162e+20
-48.8574  4.64207e+20
-48.7401  4.49419e+20
-48.6228  4.35555e+20
-48.5055  4.26403e+20
-48.3882  4.24687e+20
-48.2709  4.31424e+20
-48.1536  4.44808e+20
-48.0363  4.61427e+20
-47.919  4.76286e+20
-47.8017  4.84589e+20
-47.6844  4.82898e+20
-47.5671  4.70101e+20
-47.4498  4.47479e+20
-47.3325  4.18925e+20
-47.2152  3.89199e+20
-47.0979  3.63348e+20
-46.9806  3.44882e+20
-46.8633  3.35275e+20
-46.7459  3.3352e+20
-46.6286  3.36593e+20
-46.5113  3.40367e+20
-46.394  3.40816e+20
-46.2767  3.35313e+20
-46.1594  3.23256e+20
-46.0421  3.06307e+20
-45.9248  2.87974e+20
-45.8075  2.72529e+20
-45.6902  2.63797e+20
-45.5729  2.64317e+20
-45.4556  2.74375e+20
-45.3383  2.91926e+20
-45.221  3.1333e+20
-45.1037  3.34182e+20
-44.9864  3.50435e+20
-44.8691  3.59758e+20
-44.7518  3.6181e+20
-44.6345  3.58503e+20
-44.5172  3.53601e+20
-44.3998  3.51641e+20
-44.2825  3.5688e+20
-44.1652  3.72001e+20
-44.0479  3.97718e+20
-43.9306  4.3243e+20
-43.8133  4.72604e+20
-43.696  5.13698e+20
-43.5787  5.51187e+20
-43.4614  5.81491e+20
-43.3441  6.02951e+20
-43.2268  6.15647e+20
-43.1095  6.21481e+20
-42.9922  6.23741e+20
-42.8749  6.25276e+20
-42.7576  6.28799e+20
-42.6403  6.3558e+20
-42.523  6.45385e+20
-42.4057  6.56802e+20
-42.2884  6.6805e+20
-42.171  6.77105e+20
-42.0537  6.83218e+20
-41.9364  6.86545e+20
-41.8191  6.88696e+20
-41.7018  6.92095e+20
-41.5845  6.99166e+20
-41.4672  7.11779e+20
-41.3499  7.30297e+20
-41.2326  7.53594e+20
-41.1153  7.78555e+20
-40.998  8.01458e+20
-40.8807  8.1832e+20
-40.7634  8.26012e+20
-40.6461  8.23544e+20
-40.5288  8.11811e+20
-40.4115  7.93766e+20
-40.2942  7.73829e+20
-40.1769  7.5671e+20
-40.0596  7.46284e+20
-39.9423  7.44441e+20
-39.825  7.50996e+20
-39.7076  7.63396e+20
-39.5903  7.77616e+20
-39.473  7.88849e+20
-39.3557  7.93109e+20
-39.2384  7.88146e+20
-39.1211  7.738e+20
-39.0038  7.52023e+20
-38.8865  7.26752e+20
-38.7692  7.01885e+20
-38.6519  6.8121e+20
-38.5346  6.66678e+20
-38.4173  6.58431e+20
-38.3  6.54503e+20
-38.1827  6.51999e+20
-38.0654  6.47638e+20
-37.9481  6.3931e+20
-37.8308  6.26126e+20
-37.7135  6.09757e+20
-37.5962  5.93007e+20
-37.4789  5.7989e+20
-37.3615  5.73947e+20
-37.2442  5.77394e+20
-37.1269  5.90241e+20
-37.0096  6.10042e+20
-36.8923  6.32826e+20
-36.775  6.53448e+20
-36.6577  6.67264e+20
-36.5404  6.71423e+20
-36.4231  6.65043e+20
-36.3058  6.49892e+20
-36.1885  6.29547e+20
-36.0712  6.08618e+20
-35.9539  5.91133e+20
-35.8366  5.79708e+20
-35.7193  5.74965e+20
-35.602  5.75356e+20
-35.4847  5.77828e+20
-35.3674  5.78962e+20
-35.2501  5.76079e+20
-35.1328  5.68372e+20
-35.0154  5.57083e+20
-34.8981  5.45669e+20
-34.7808  5.38509e+20
-34.6635  5.39746e+20
-34.5462  5.52319e+20
-34.4289  5.76532e+20
-34.3116  6.10037e+20
-34.1943  6.48184e+20
-34.077  6.85113e+20
-33.9597  7.1517e+20
-33.8424  7.34351e+20
-33.7251  7.41422e+20
-33.6078  7.38364e+20
-33.4905  7.29528e+20
-33.3732  7.21243e+20
-33.2559  7.1981e+20
-33.1386  7.29783e+20
-33.0213  7.53543e+20
-32.904  7.90224e+20
-32.7867  8.36057e+20
-32.6693  8.85949e+20
-32.552  9.33818e+20
-32.4347  9.74991e+20
-32.3174  1.00664e+21
-32.2001  1.02821e+21
-32.0828  1.04161e+21
-31.9655  1.05018e+21
-31.8482  1.05751e+21
-31.7309  1.06629e+21
-31.6136  1.07809e+21
-31.4963  1.09264e+21
-31.379  1.10843e+21
-31.2617  1.12336e+21
-31.1444  1.13609e+21
-31.0271  1.14613e+21
-30.9098  1.15455e+21
-30.7925  1.16428e+21
-30.6752  1.17837e+21
-30.5579  1.19981e+21
-30.4406  1.23035e+21
-30.3232  1.26956e+21
-30.2059  1.31494e+21
-30.0886  1.36142e+21
-29.9713  1.4036e+21
-29.854  1.43596e+21
-29.7367  1.45449e+21
-29.6194  1.45744e+21
-29.5021  1.44607e+21
-29.3848  1.42356e+21
-29.2675  1.39502e+21
-29.1502  1.36544e+21
-29.0329  1.33939e+21
-28.9156  1.31877e+21
-28.7983  1.30397e+21
-28.681  1.29309e+21
-28.5637  1.28316e+21
-28.4464  1.27073e+21
-28.3291  1.25424e+21
-28.2118  1.23318e+21
-28.0944  1.20941e+21
-27.9771  1.1868e+21
-27.8598  1.16969e+21
-27.7425  1.16244e+21
-27.6252  1.16752e+21
-27.5079  1.1859e+21
-27.3906  1.21589e+21
-27.2733  1.25384e+21
-27.156  1.29539e+21
-27.0387  1.33597e+21
-26.9214  1.3728e+21
-26.8041  1.40486e+21
-26.6868  1.4336e+21
-26.5695  1.46259e+21
-26.4522  1.49603e+21
-26.3349  1.53827e+21
-26.2176  1.59254e+21
-26.1003  1.65952e+21
-25.983  1.73798e+21
-25.8657  1.82413e+21
-25.7483  1.91317e+21
-25.631  2.00004e+21
-25.5137  2.08028e+21
-25.3964  2.15165e+21
-25.2791  2.21279e+21
-25.1618  2.26514e+21
-25.0445  2.31052e+21
-24.9272  2.35142e+21
-24.8099  2.39005e+21
-24.6926  2.42801e+21
-24.5753  2.46577e+21
-24.458  2.50402e+21
-24.3407  2.54361e+21
-24.2234  2.58662e+21
-24.1061  2.63687e+21
-23.9888  2.69969e+21
-23.8715  2.78155e+21
-23.7542  2.88883e+21
-23.6369  3.02688e+21
-23.5196  3.19788e+21
-23.4023  3.40083e+21
-23.2849  3.63044e+21
-23.1676  3.8776e+21
-23.0503  4.13126e+21
-22.933  4.37893e+21
-22.8157  4.6098e+21
-22.6984  4.81472e+21
-22.5811  4.98914e+21
-22.4638  5.13208e+21
-22.3465  5.24652e+21
-22.2292  5.33809e+21
-22.1119  5.41473e+21
-21.9946  5.48398e+21
-21.8773  5.55398e+21
-21.76  5.63185e+21
-21.6427  5.72395e+21
-21.5254  5.83676e+21
-21.4081  5.97721e+21
-21.2908  6.15271e+21
-21.1735  6.37074e+21
-21.0561  6.63914e+21
-20.9388  6.96407e+21
-20.8215  7.34926e+21
-20.7042  7.79438e+21
-20.5869  8.29479e+21
-20.4696  8.84156e+21
-20.3523  9.42196e+21
-20.235  1.0021e+22
-20.1177  1.06236e+22
-20.0004  1.12165e+22
-19.8831  1.17895e+22
-19.7658  1.23358e+22
-19.6485  1.28555e+22
-19.5312  1.33502e+22
-19.4139  1.3826e+22
-19.2966  1.42913e+22
-19.1793  1.47546e+22
-19.062  1.52249e+22
-18.9447  1.57119e+22
-18.8274  1.62247e+22
-18.71  1.67719e+22
-18.5927  1.73631e+22
-18.4754  1.80065e+22
-18.3581  1.87094e+22
-18.2408  1.94763e+22
-18.1235  2.03078e+22
-18.0062  2.11991e+22
-17.8889  2.21404e+22
-17.7716  2.31157e+22
-17.6543  2.41053e+22
-17.537  2.50874e+22
-17.4197  2.60409e+22
-17.3024  2.69471e+22
-17.1851  2.77931e+22
-17.0678  2.85718e+22
-16.9505  2.92829e+22
-16.8332  2.99327e+22
-16.7159  3.05305e+22
-16.5986  3.10889e+22
-16.4813  3.16202e+22
-16.364  3.21363e+22
-16.2466  3.26473e+22
-16.1293  3.31604e+22
-16.012  3.36824e+22
-15.8947  3.42181e+22
-15.7774  3.47726e+22
-15.6601  3.53502e+22
-15.5428  3.59543e+22
-15.4255  3.65868e+22
-15.3082  3.72476e+22
-15.1909  3.79328e+22
-15.0736  3.86356e+22
-14.9563  3.93461e+22
-14.839  4.00524e+22
-14.7217  4.07427e+22
-14.6044  4.14065e+22
-14.4871  4.20361e+22
-14.3698  4.26276e+22
-14.2525  4.31827e+22
-14.1352  4.3705e+22
-14.0178  4.42019e+22
-13.9005  4.46812e+22
-13.7832  4.51508e+22
-13.6659  4.56163e+22
-13.5486  4.60825e+22
-13.4313  4.6552e+22
-13.314  4.70267e+22
-13.1967  4.75081e+22
-13.0794  4.79986e+22
-12.9621  4.85019e+22
-12.8448  4.90217e+22
-12.7275  4.95622e+22
-12.6102  5.01262e+22
-12.4929  5.0715e+22
-12.3756  5.13258e+22
-12.2583  5.19542e+22
-12.141  5.2593e+22
-12.0237  5.32334e+22
-11.9064  5.38678e+22
-11.7891  5.44895e+22
-11.6718  5.50957e+22
-11.5544  5.56863e+22
-11.4371  5.6264e+22
-11.3198  5.68345e+22
-11.2025  5.74034e+22
-11.0852  5.79761e+22
-10.9679  5.85551e+22
-10.8506  5.91408e+22
-10.7333  5.9731e+22
-10.616  6.0322e+22
-10.4987  6.09085e+22
-10.3814  6.14858e+22
-10.2641  6.20516e+22
-10.1468  6.2604e+22
-10.0295  6.31443e+22
-9.91217  6.36746e+22
-9.79487  6.41972e+22
-9.67756  6.47146e+22
-9.56026  6.52283e+22
-9.44295  6.57382e+22
-9.32565  6.62434e+22
-9.20834  6.67424e+22
-9.09104  6.72342e+22
-8.97373  6.77186e+22
-8.85643  6.81971e+22
-8.73913  6.86725e+22
-8.62182  6.91481e+22
-8.50452  6.96276e+22
-8.38721  7.01126e+22
-8.26991  7.06036e+22
-8.1526  7.10982e+22
-8.03529  7.1592e+22
-7.91799  7.20792e+22
-7.80069  7.25532e+22
-7.68338  7.3009e+22
-7.56608  7.3443e+22
-7.44877  7.3855e+22
-7.33146  7.42468e+22
-7.21416  7.46228e+22
-7.09685  7.49882e+22
-6.97955  7.53483e+22
-6.86224  7.57073e+22
-6.74494  7.60669e+22
-6.62763  7.64268e+22
-6.51033  7.67856e+22
-6.39302  7.71404e+22
-6.27572  7.74895e+22
-6.15842  7.7832e+22
-6.04111  7.81688e+22
-5.92381  7.85031e+22
-5.8065  7.8839e+22
-5.68919  7.91808e+22
-5.57189  7.9532e+22
-5.45458  7.98941e+22
-5.33728  8.02664e+22
-5.21997  8.06452e+22
-5.10267  8.1026e+22
-4.98536  8.14026e+22
-4.86806  8.17709e+22
-4.75075  8.21272e+22
-4.63345  8.2471e+22
-4.51614  8.28034e+22
-4.39884  8.31278e+22
-4.28154  8.3447e+22
-4.16423  8.3764e+22
-4.04692  8.40796e+22
-3.92962  8.43929e+22
-3.81231  8.46999e+22
-3.69501  8.49964e+22
-3.5777  8.52778e+22
-3.4604  8.55402e+22
-3.34309  8.57822e+22
-3.22579  8.60046e+22
-3.10849  8.62109e+22
-2.99118  8.6405e+22
-2.87387  8.65924e+22
-2.75657  8.67767e+22
-2.63926  8.696e+22
-2.52196  8.71422e+22
-2.40465  8.73211e+22
-2.28735  8.74937e+22
-2.17005  8.76569e+22
-2.05274  8.78082e+22
-1.93544  8.79477e+22
-1.81813  8.80774e+22
-1.70083  8.82008e+22
-1.58352  8.83216e+22
-1.46622  8.84433e+22
-1.34891  8.85674e+22
-1.2316  8.86933e+22
-1.1143  8.88173e+22
-0.996995  8.89346e+22
-0.87969  8.90396e+22
-0.762385  8.91277e+22
-0.64508  8.91958e+22
-0.527775  8.92437e+22
-0.41047  8.92739e+22
-0.293165  8.92902e+22
-0.17586  8.92975e+22
-0.058555  8.92995e+22
0.05875  8.92983e+22
0.176055  8.92932e+22
0.29336  8.92813e+22
0.410665  8.9258e+22
0.52797  8.9219e+22
0.645275  8.91604e+22
0.76258  8.9081e+22
0.879885  8.89821e+22
0.99719  8.88677e+22
1.1145  8.87428e+22
1.2318  8.86136e+22
1.3491  8.84841e+22
1.46641  8.83572e+22
1.58371  8.82324e+22
1.70102  8.81074e+22
1.81832  8.79785e+22
1.93563  8.78414e+22
2.05294  8.76931e+22
2.17024  8.75325e+22
2.28754  8.73606e+22
2.40485  8.71799e+22
2.52216  8.6994e+22
2.63946  8.68059e+22
2.75677  8.66172e+22
2.87407  8.64273e+22
2.99137  8.62335e+22
3.10868  8.60313e+22
3.22599  8.58159e+22
3.34329  8.5583e+22
3.4606  8.53301e+22
3.5779  8.50575e+22
3.69521  8.47674e+22
3.81251  8.44641e+22
3.92982  8.4152e+22
4.04712  8.38358e+22
4.16443  8.35174e+22
4.28173  8.31972e+22
4.39903  8.28738e+22
4.51634  8.25434e+22
4.63364  8.22031e+22
4.75095  8.18504e+22
4.86825  8.14846e+22
4.98556  8.11082e+22
5.10286  8.0725e+22
5.22017  8.03403e+22
5.33748  7.99599e+22
5.45478  7.95884e+22
5.57209  7.92277e+22
5.68939  7.8878e+22
5.8067  7.85367e+22
5.924  7.81996e+22
6.0413  7.78623e+22
6.15861  7.75211e+22
6.27591  7.71735e+22
6.39322  7.68192e+22
6.51052  7.64602e+22
6.62783  7.60986e+22
6.74514  7.57369e+22
6.86244  7.53764e+22
6.97975  7.50164e+22
7.09705  7.46538e+22
7.21436  7.42841e+22
7.33166  7.39016e+22
7.44897  7.35011e+22
7.56627  7.30792e+22
7.68358  7.26345e+22
7.80088  7.21689e+22
7.91819  7.16869e+22
8.03549  7.11941e+22
8.1528  7.06969e+22
8.2701  7.02008e+22
8.38741  6.97096e+22
8.50471  6.9224e+22
8.62202  6.8744e+22
8.73932  6.82659e+22
8.85662  6.77868e+22
8.97393  6.73037e+22
9.09123  6.68143e+22
9.20854  6.63176e+22
9.32584  6.58143e+22
9.44315  6.53056e+22
9.56045  6.47926e+22
9.67776  6.42757e+22
9.79506  6.37542e+22
9.91237  6.32265e+22
10.0297  6.26898e+22
10.147  6.21418e+22
10.2643  6.15812e+22
10.3816  6.10084e+22
10.4989  6.04251e+22
10.6162  5.9836e+22
10.7335  5.92454e+22
10.8508  5.86581e+22
10.9681  5.80773e+22
11.0854  5.75041e+22
11.2027  5.6937e+22
11.32  5.63709e+22
11.4373  5.58007e+22
11.5546  5.52203e+22
11.6719  5.46253e+22
11.7893  5.40133e+22
11.9066  5.33858e+22
12.0239  5.27475e+22
12.1412  5.21055e+22
12.2585  5.14685e+22
12.3758  5.08449e+22
12.4931  5.02411e+22
12.6104  4.96612e+22
12.7277  4.91064e+22
12.845  4.85747e+22
12.9623  4.80629e+22
13.0796  4.75668e+22
13.1969  4.70825e+22
13.3142  4.66065e+22
13.4315  4.61366e+22
13.5488  4.56705e+22
13.6661  4.52061e+22
13.7834  4.474e+22
13.9007  4.42666e+22
14.018  4.37792e+22
14.1354  4.32702e+22
14.2527  4.27319e+22
14.37  4.21584e+22
14.4873  4.15472e+22
14.6046  4.0899e+22
14.7219  4.02193e+22
14.8392  3.95173e+22
14.9565  3.88041e+22
15.0738  3.80921e+22
15.1911  3.73923e+22
15.3084  3.67132e+22
15.4257  3.60608e+22
15.543  3.5437e+22
15.6603  3.48403e+22
15.7776  3.42688e+22
15.8949  3.3718e+22
16.0122  3.31834e+22
16.1295  3.26601e+22
16.2468  3.21427e+22
16.3641  3.16247e+22
16.4815  3.10971e+22
16.5988  3.05502e+22
16.7161  2.99721e+22
16.8334  2.93502e+22
16.9507  2.86733e+22
17.068  2.79328e+22
17.1853  2.71251e+22
17.3026  2.62535e+22
17.4199  2.5327e+22
17.5372  2.43607e+22
17.6545  2.33748e+22
17.7718  2.23909e+22
17.8891  2.14298e+22
18.0064  2.05104e+22
18.1237  1.96454e+22
18.241  1.88434e+22
18.3583  1.81067e+22
18.4756  1.74331e+22
18.5929  1.68166e+22
18.7102  1.62497e+22
18.8275  1.57235e+22
18.9449  1.52293e+22
19.0622  1.47574e+22
19.1795  1.42992e+22
19.2968  1.38454e+22
19.4141  1.33863e+22
19.5314  1.29136e+22
19.6487  1.24195e+22
19.766  1.18996e+22
19.8833  1.1352e+22
20.0006  1.07806e+22
20.1179  1.01923e+22
20.2352  9.59896e+21
20.3525  9.01497e+21
20.4698  8.45605e+21
20.5871  7.93605e+21
20.7044  7.46611e+21
20.8217  7.05384e+21
20.939  6.70184e+21
21.0563  6.40846e+21
21.1736  6.16884e+21
21.291  5.97569e+21
21.4083  5.82163e+21
21.5256  5.69847e+21
21.6429  5.59955e+21
21.7602  5.51828e+21
21.8775  5.44826e+21
21.9948  5.3829e+21
22.1121  5.31507e+21
22.2294  5.23684e+21
22.3467  5.13996e+21
22.464  5.01772e+21
22.5813  4.86523e+21
22.6986  4.68105e+21
22.8159  4.46757e+21
22.9332  4.23142e+21
23.0505  3.98259e+21
23.1678  3.73276e+21
23.2851  3.4941e+21
23.4024  3.27697e+21
23.5198  3.08875e+21
23.6371  2.93314e+21
23.7544  2.80915e+21
23.8717  2.71348e+21
23.989  2.64013e+21
24.1063  2.58262e+21
24.2236  2.53447e+21
24.3409  2.49183e+21
24.4582  2.45148e+21
24.5755  2.41203e+21
24.6928  2.37315e+21
24.8101  2.3344e+21
24.9274  2.29468e+21
25.0447  2.2522e+21
25.162  2.20477e+21
25.2793  2.14972e+21
25.3966  2.0854e+21
25.5139  2.0115e+21
25.6312  1.92969e+21
25.7485  1.84323e+21
25.8658  1.75694e+21
25.9832  1.67567e+21
26.1005  1.60415e+21
26.2178  1.54478e+21
26.3351  1.49794e+21
26.4524  1.46172e+21
26.5697  1.43232e+21
26.687  1.40531e+21
26.8043  1.37638e+21
26.9216  1.34303e+21
27.0389  1.30497e+21
27.1562  1.26394e+21
27.2735  1.22384e+21
27.3908  1.18886e+21
27.5081  1.16358e+21
27.6254  1.15077e+21
27.7427  1.15106e+21
27.86  1.16287e+21
27.9773  1.18281e+21
28.0946  1.20647e+21
28.212  1.22964e+21
28.3293  1.24949e+21
28.4466  1.26494e+21
28.5639  1.27722e+21
28.6812  1.28852e+21
28.7985  1.30199e+21
28.9158  1.32019e+21
29.0331  1.34397e+21
29.1504  1.37231e+21
29.2677  1.40199e+21
29.385  1.42822e+21
29.5023  1.44599e+21
29.6196  1.45093e+21
29.7369  1.44087e+21
29.8542  1.41573e+21
29.9715  1.37854e+21
30.0888  1.33384e+21
30.2061  1.28744e+21
30.3234  1.24453e+21
30.4407  1.20909e+21
30.558  1.18273e+21
30.6754  1.16496e+21
30.7927  1.15352e+21
30.91  1.14507e+21
31.0273  1.13648e+21
31.1446  1.12577e+21
31.2619  1.11238e+21
31.3792  1.0971e+21
31.4965  1.08182e+21
31.6138  1.06856e+21
31.7311  1.05811e+21
31.8484  1.0503e+21
31.9657  1.04293e+21
32.083  1.03299e+21
32.2003  1.01663e+21
32.3176  9.91497e+20
32.4349  9.56385e+20
32.5522  9.12531e+20
32.6695  8.63781e+20
32.7868  8.15467e+20
32.9042  7.73118e+20
33.0215  7.41789e+20
33.1388  7.23764e+20
33.2561  7.18938e+20
33.3734  7.2404e+20
33.4907  7.33459e+20
33.608  7.40847e+20
33.7253  7.40685e+20
33.8426  7.29136e+20
33.9599  7.05536e+20
34.0772  6.72332e+20
34.1945  6.34086e+20
34.3118  5.96913e+20
34.4291  5.66214e+20
34.5464  5.46059e+20
34.6637  5.37688e+20
34.781  5.39792e+20
34.8983  5.48899e+20
35.0156  5.60419e+20
35.1329  5.70386e+20
35.2503  5.75978e+20
35.3676  5.76728e+20
35.4849  5.74415e+20
35.6022  5.71897e+20
35.7195  5.72752e+20
35.8368  5.79621e+20
35.9541  5.9323e+20
36.0714  6.12278e+20
36.1887  6.33307e+20
36.306  6.51961e+20
36.4233  6.63841e+20
36.5406  6.65873e+20
36.6579  6.57448e+20
36.7752  6.39848e+20
36.8925  6.17346e+20
37.0098  5.94668e+20
37.1271  5.76842e+20
37.2444  5.67367e+20
37.3617  5.67897e+20
37.479  5.77282e+20
37.5964  5.92804e+20
37.7137  6.10393e+20
37.831  6.26354e+20
37.9483  6.38164e+20
38.0656  6.45067e+20
38.1829  6.48455e+20
38.3002  6.51228e+20
38.4175  6.56501e+20
38.5348  6.6715e+20
38.6521  6.84321e+20
38.7694  7.07097e+20
38.8867  7.32673e+20
39.004  7.57111e+20
39.1213  7.76337e+20
39.2386  7.87006e+20
39.3559  7.88109e+20
39.4732  7.8073e+20
39.5905  7.68193e+20
39.7078  7.5481e+20
39.8251  7.45284e+20
39.9425  7.43134e+20
40.0598  7.49973e+20
40.1771  7.64841e+20
40.2944  7.84579e+20
40.4117  8.04633e+20
40.529  8.20323e+20
40.6463  8.2766e+20
40.7636  8.2455e+20
40.8809  8.11185e+20
40.9982  7.89952e+20
41.1155  7.64545e+20
41.2328  7.39362e+20
41.3501  7.1778e+20
41.4674  7.02198e+20
41.5847  6.92849e+20
41.702  6.88674e+20
41.8193  6.87067e+20
41.9366  6.85354e+20
42.0539  6.81353e+20
42.1712  6.74145e+20
42.2885  6.64032e+20
42.4059  6.5247e+20
42.5232  6.41436e+20
42.6405  6.33046e+20
42.7578  6.2807e+20
42.8751  6.25933e+20
42.9924  6.24714e+20
43.1097  6.21633e+20
43.227  6.13248e+20
43.3443  5.96983e+20
43.4616  5.71799e+20
43.5789  5.38163e+20
43.6962  4.9886e+20
43.8135  4.57919e+20
43.9308  4.20015e+20
44.0481  3.89179e+20
44.1654  3.68192e+20
44.2827  3.57464e+20
44.4  3.55319e+20
44.5173  3.58427e+20
44.6347  3.62302e+20
44.752  3.62791e+20
44.8693  3.57042e+20
44.9866  3.44055e+20
45.1039  3.25167e+20
45.2212  3.03506e+20
45.3385  2.83304e+20
45.4558  2.68608e+20
45.5731  2.6232e+20
45.6904  2.65459e+20
45.8077  2.76816e+20
45.925  2.93375e+20
46.0423  3.11079e+20
46.1596  3.25948e+20
46.2769  3.35336e+20
46.3942  3.38495e+20
46.5115  3.36748e+20
46.6288  3.33284e+20
46.7461  3.32156e+20
46.8634  3.37054e+20
46.9808  3.50082e+20
47.0981  3.71432e+20
47.2154  3.98735e+20
47.3327  4.27993e+20
47.45  4.54227e+20
47.5673  4.72923e+20
47.6846  4.81457e+20
47.8019  4.79155e+20
47.9192  4.68079e+20
48.0365  4.52374e+20
48.1538  4.36646e+20
48.2711  4.25458e+20
48.3884  4.21759e+20
48.5057  4.2627e+20
48.623  4.37321e+20
48.7403  4.51803e+20
48.8576  4.66066e+20
48.9749  4.76732e+20
49.0922  4.82129e+20
49.2095  4.82654e+20
49.3269  4.80445e+20
49.4442  4.78799e+20
49.5615  4.80806e+20
49.6788  4.88651e+20
49.7961  5.02335e+20
49.9134  5.19882e+20
50.0307  5.37647e+20
50.148  5.51235e+20
50.2653  5.57072e+20
50.3826  5.53226e+20
50.4999  5.40415e+20
50.6172  5.21674e+20
50.7345  5.01931e+20
50.8518  4.86448e+20
