#S 1 spectral density
#N 2
#UFWHM 22.9918
#L  abscissas [um]  spectral density
-58.5938  2.77778e+20
-58.4764  2.68135e+20
-58.3591  2.556e+20
-58.2418  2.43586e+20
-58.1245  2.35126e+20
-58.0072  2.32396e+20
-57.8899  2.35904e+20
-57.7726  2.44361e+20
-57.6553  2.55059e+20
-57.538  2.64365e+20
-57.4207  2.69035e+20
-57.3034  2.66813e+20
-57.1861  2.57076e+20
-57.0688  2.41316e+20
-56.9515  2.22937e+20
-56.8342  2.05858e+20
-56.7169  1.94465e+20
-56.5996  1.91751e+20
-56.4823  1.9906e+20
-56.365  2.15346e+20
-56.2477  2.37544e+20
-56.1303  2.61392e+20
-56.013  2.82241e+20
-55.8957  2.96244e+20
-55.7784  3.01458e+20
-55.6611  2.98057e+20
-55.5438  2.88529e+20
-55.4265  2.76668e+20
-55.3092  2.67065e+20
-55.1919  2.63562e+20
-55.0746  2.68071e+20
-54.9573  2.8088e+20
-54.84  2.99767e+20
-54.7227  3.21377e+20
-54.6054  3.41495e+20
-54.4881  3.5673e+20
-54.3708  3.65066e+20
-54.2535  3.66489e+20
-54.1362  3.62785e+20
-54.0189  3.56866e+20
-53.9016  3.51852e+20
-53.7842  3.49957e+20
-53.6669  3.52047e+20
-53.5496  3.56947e+20
-53.4323  3.621e+20
-53.315  3.64421e+20
-53.1977  3.61037e+20
-53.0804  3.50672e+20
-52.9631  3.34122e+20
-52.8458  3.13978e+20
-52.7285  2.94616e+20
-52.6112  2.80447e+20
-52.4939  2.7515e+20
-52.3766  2.8031e+20
-52.2593  2.94863e+20
-52.142  3.15225e+20
-52.0247  3.36323e+20
-51.9074  3.52423e+20
-51.7901  3.59052e+20
-51.6728  3.54034e+20
-51.5555  3.38066e+20
-51.4381  3.14667e+20
-51.3208  2.89166e+20
-51.2035  2.67301e+20
-51.0862  2.53882e+20
-50.9689  2.5143e+20
-50.8516  2.59538e+20
-50.7343  2.75223e+20
-50.617  2.93634e+20
-50.4997  3.09655e+20
-50.3824  3.19065e+20
-50.2651  3.19881e+20
-50.1478  3.12766e+20
-50.0305  3.00658e+20
-49.9132  2.87866e+20
-49.7959  2.78839e+20
-49.6786  2.76777e+20
-49.5613  2.82649e+20
-49.444  2.95314e+20
-49.3267  3.11374e+20
-49.2094  3.26648e+20
-49.092  3.37241e+20
-48.9747  3.4067e+20
-48.8574  3.36768e+20
-48.7401  3.27218e+20
-48.6228  3.1568e+20
-48.5055  3.06174e+20
-48.3882  3.01991e+20
-48.2709  3.04927e+20
-48.1536  3.14287e+20
-48.0363  3.27806e+20
-47.919  3.41679e+20
-47.8017  3.52064e+20
-47.6844  3.56244e+20
-47.5671  3.53416e+20
-47.4498  3.44697e+20
-47.3325  3.33382e+20
-47.2152  3.23296e+20
-47.0979  3.18108e+20
-46.9806  3.19853e+20
-46.8633  3.28571e+20
-46.7459  3.41913e+20
-46.6286  3.55897e+20
-46.5113  3.65845e+20
-46.394  3.67764e+20
-46.2767  3.59632e+20
-46.1594  3.41956e+20
-46.0421  3.17653e+20
-45.9248  2.91999e+20
-45.8075  2.70764e+20
-45.6902  2.58968e+20
-45.5729  2.60114e+20
-45.4556  2.7458e+20
-45.3383  3.00274e+20
-45.221  3.32423e+20
-45.1037  3.65239e+20
-44.9864  3.92993e+20
-44.8691  4.11551e+20
-44.7518  4.18924e+20
-44.6345  4.15782e+20
-44.5172  4.05051e+20
-44.3998  3.91051e+20
-44.2825  3.7855e+20
-44.1652  3.71104e+20
-44.0479  3.70927e+20
-43.9306  3.78126e+20
-43.8133  3.90855e+20
-43.696  4.06301e+20
-43.5787  4.21423e+20
-43.4614  4.33579e+20
-43.3441  4.41556e+20
-43.2268  4.45497e+20
-43.1095  4.46789e+20
-42.9922  4.47579e+20
-42.8749  4.49658e+20
-42.7576  4.54185e+20
-42.6403  4.61095e+20
-42.523  4.68837e+20
-42.4057  4.75139e+20
-42.2884  4.77485e+20
-42.171  4.73994e+20
-42.0537  4.64067e+20
-41.9364  4.48727e+20
-41.8191  4.30503e+20
-41.7018  4.13013e+20
-41.5845  3.99917e+20
-41.4672  3.94145e+20
-41.3499  3.96974e+20
-41.2326  4.07769e+20
-41.1153  4.23794e+20
-40.998  4.41162e+20
-40.8807  4.55476e+20
-40.7634  4.63182e+20
-40.6461  4.62295e+20
-40.5288  4.52849e+20
-40.4115  4.37086e+20
-40.2942  4.18659e+20
-40.1769  4.01747e+20
-40.0596  3.90023e+20
-39.9423  3.85221e+20
-39.825  3.87539e+20
-39.7076  3.94968e+20
-39.5903  4.04033e+20
-39.473  4.11189e+20
-39.3557  4.13263e+20
-39.2384  4.09099e+20
-39.1211  3.99467e+20
-39.0038  3.87134e+20
-38.8865  3.76279e+20
-38.7692  3.70957e+20
-38.6519  3.74551e+20
-38.5346  3.88199e+20
-38.4173  4.10847e+20
-38.3  4.39189e+20
-38.1827  4.6846e+20
-38.0654  4.93767e+20
-37.9481  5.11305e+20
-37.8308  5.1896e+20
-37.7135  5.17294e+20
-37.5962  5.08897e+20
-37.4789  4.97739e+20
-37.3615  4.88246e+20
-37.2442  4.83752e+20
-37.1269  4.85928e+20
-37.0096  4.94232e+20
-36.8923  5.06438e+20
-36.775  5.192e+20
-36.6577  5.29135e+20
-36.5404  5.34182e+20
-36.4231  5.33677e+20
-36.3058  5.28939e+20
-36.1885  5.22633e+20
-36.0712  5.17767e+20
-35.9539  5.16676e+20
-35.8366  5.20199e+20
-35.7193  5.272e+20
-35.602  5.3474e+20
-35.4847  5.39044e+20
-35.3674  5.36369e+20
-35.2501  5.24705e+20
-35.1328  5.04343e+20
-35.0154  4.78241e+20
-34.8981  4.51944e+20
-34.7808  4.31736e+20
-34.6635  4.23913e+20
-34.5462  4.32736e+20
-34.4289  4.59319e+20
-34.3116  5.01246e+20
-34.1943  5.53243e+20
-34.077  6.07723e+20
-33.9597  6.56795e+20
-33.8424  6.94022e+20
-33.7251  7.15614e+20
-33.6078  7.21101e+20
-33.4905  7.13129e+20
-33.3732  6.96928e+20
-33.2559  6.78633e+20
-33.1386  6.63355e+20
-33.0213  6.55114e+20
-32.904  6.54941e+20
-32.7867  6.61893e+20
-32.6693  6.73275e+20
-32.552  6.85726e+20
-32.4347  6.96498e+20
-32.3174  7.043e+20
-32.2001  7.09225e+20
-32.0828  7.1311e+20
-31.9655  7.18307e+20
-31.8482  7.2701e+20
-31.7309  7.39859e+20
-31.6136  7.56242e+20
-31.4963  7.73485e+20
-31.379  7.88312e+20
-31.2617  7.97166e+20
-31.1444  7.97578e+20
-31.0271  7.89086e+20
-30.9098  7.73363e+20
-30.7925  7.54393e+20
-30.6752  7.37078e+20
-30.5579  7.26187e+20
-30.4406  7.25756e+20
-30.3232  7.37183e+20
-30.2059  7.59431e+20
-30.0886  7.88887e+20
-29.9713  8.20459e+20
-29.854  8.48766e+20
-29.7367  8.69205e+20
-29.6194  8.79156e+20
-29.5021  8.78391e+20
-29.3848  8.68865e+20
-29.2675  8.54197e+20
-29.1502  8.38083e+20
-29.0329  8.24078e+20
-28.9156  8.14001e+20
-28.7983  8.07687e+20
-28.681  8.03874e+20
-28.5637  8.00294e+20
-28.4464  7.94773e+20
-28.3291  7.86634e+20
-28.2118  7.7683e+20
-28.0944  7.68004e+20
-27.9771  7.64746e+20
-27.8598  7.71307e+20
-27.7425  7.91643e+20
-27.6252  8.27307e+20
-27.5079  8.77558e+20
-27.3906  9.38685e+20
-27.2733  1.00494e+21
-27.156  1.06941e+21
-27.0387  1.12538e+21
-26.9214  1.16818e+21
-26.8041  1.19544e+21
-26.6868  1.20787e+21
-26.5695  1.20868e+21
-26.4522  1.20316e+21
-26.3349  1.1967e+21
-26.2176  1.19425e+21
-26.1003  1.19895e+21
-25.983  1.21172e+21
-25.8657  1.23141e+21
-25.7483  1.25527e+21
-25.631  1.28022e+21
-25.5137  1.30337e+21
-25.3964  1.32277e+21
-25.2791  1.33762e+21
-25.1618  1.34861e+21
-25.0445  1.35666e+21
-24.9272  1.36276e+21
-24.8099  1.3675e+21
-24.6926  1.37051e+21
-24.5753  1.37062e+21
-24.458  1.36706e+21
-24.3407  1.35964e+21
-24.2234  1.34933e+21
-24.1061  1.34e+21
-23.9888  1.33706e+21
-23.8715  1.34755e+21
-23.7542  1.37844e+21
-23.6369  1.43634e+21
-23.5196  1.52429e+21
-23.4023  1.64233e+21
-23.2849  1.78621e+21
-23.1676  1.94771e+21
-23.0503  2.11648e+21
-22.933  2.28069e+21
-22.8157  2.42998e+21
-22.6984  2.55605e+21
-22.5811  2.65477e+21
-22.4638  2.72582e+21
-22.3465  2.77223e+21
-22.2292  2.80005e+21
-22.1119  2.81616e+21
-21.9946  2.82771e+21
-21.8773  2.84052e+21
-21.76  2.85915e+21
-21.6427  2.88623e+21
-21.5254  2.9237e+21
-21.4081  2.97312e+21
-21.2908  3.0363e+21
-21.1735  3.11462e+21
-21.0561  3.21081e+21
-20.9388  3.32627e+21
-20.8215  3.46168e+21
-20.7042  3.6154e+21
-20.5869  3.78359e+21
-20.4696  3.96045e+21
-20.3523  4.1385e+21
-20.235  4.31037e+21
-20.1177  4.46977e+21
-20.0004  4.6134e+21
-19.8831  4.74098e+21
-19.7658  4.8555e+21
-19.6485  4.96381e+21
-19.5312  5.07369e+21
-19.4139  5.19286e+21
-19.2966  5.32828e+21
-19.1793  5.48371e+21
-19.062  5.65991e+21
-18.9447  5.85526e+21
-18.8274  6.06621e+21
-18.71  6.28772e+21
-18.5927  6.51653e+21
-18.4754  6.74941e+21
-18.3581  6.98614e+21
-18.2408  7.22722e+21
-18.1235  7.47527e+21
-18.0062  7.73192e+21
-17.8889  7.9993e+21
-17.7716  8.27846e+21
-17.6543  8.56985e+21
-17.537  8.87484e+21
-17.4197  9.19571e+21
-17.3024  9.536e+21
-17.1851  9.90319e+21
-17.0678  1.0306e+22
-16.9505  1.0754e+22
-16.8332  1.12572e+22
-16.7159  1.18222e+22
-16.5986  1.24523e+22
-16.4813  1.31447e+22
-16.364  1.38915e+22
-16.2466  1.46798e+22
-16.1293  1.54927e+22
-16.012  1.63141e+22
-15.8947  1.71269e+22
-15.7774  1.79193e+22
-15.6601  1.86834e+22
-15.5428  1.94166e+22
-15.4255  2.01212e+22
-15.3082  2.08026e+22
-15.1909  2.14682e+22
-15.0736  2.21265e+22
-14.9563  2.27857e+22
-14.839  2.34522e+22
-14.7217  2.41329e+22
-14.6044  2.48331e+22
-14.4871  2.55579e+22
-14.3698  2.63118e+22
-14.2525  2.70994e+22
-14.1352  2.79226e+22
-14.0178  2.87824e+22
-13.9005  2.96754e+22
-13.7832  3.05952e+22
-13.6659  3.15315e+22
-13.5486  3.24721e+22
-13.4313  3.34028e+22
-13.314  3.43104e+22
-13.1967  3.5185e+22
-13.0794  3.60196e+22
-12.9621  3.6813e+22
-12.8448  3.75678e+22
-12.7275  3.82905e+22
-12.6102  3.89895e+22
-12.4929  3.96735e+22
-12.3756  4.03495e+22
-12.2583  4.10225e+22
-12.141  4.16945e+22
-12.0237  4.23654e+22
-11.9064  4.30338e+22
-11.7891  4.36974e+22
-11.6718  4.43557e+22
-11.5544  4.50086e+22
-11.4371  4.5658e+22
-11.3198  4.63059e+22
-11.2025  4.69554e+22
-11.0852  4.7608e+22
-10.9679  4.82641e+22
-10.8506  4.89227e+22
-10.7333  4.95813e+22
-10.616  5.02379e+22
-10.4987  5.08907e+22
-10.3814  5.1539e+22
-10.2641  5.21855e+22
-10.1468  5.28337e+22
-10.0295  5.34896e+22
-9.91217  5.41586e+22
-9.79487  5.48449e+22
-9.67756  5.55507e+22
-9.56026  5.62751e+22
-9.44295  5.70134e+22
-9.32565  5.77577e+22
-9.20834  5.84995e+22
-9.09104  5.92293e+22
-8.97373  5.99389e+22
-8.85643  6.06226e+22
-8.73913  6.12786e+22
-8.62182  6.19075e+22
-8.50452  6.25125e+22
-8.38721  6.30983e+22
-8.26991  6.36711e+22
-8.1526  6.42356e+22
-8.03529  6.47971e+22
-7.91799  6.53586e+22
-7.80069  6.59239e+22
-7.68338  6.64952e+22
-7.56608  6.70758e+22
-7.44877  6.76696e+22
-7.33146  6.82789e+22
-7.21416  6.89069e+22
-7.09685  6.95542e+22
-6.97955  7.02196e+22
-6.86224  7.08995e+22
-6.74494  7.15861e+22
-6.62763  7.2271e+22
-6.51033  7.2944e+22
-6.39302  7.35957e+22
-6.27572  7.42191e+22
-6.15842  7.48101e+22
-6.04111  7.53684e+22
-5.92381  7.58979e+22
-5.8065  7.64042e+22
-5.68919  7.68948e+22
-5.57189  7.73764e+22
-5.45458  7.7854e+22
-5.33728  7.83296e+22
-5.21997  7.88023e+22
-5.10267  7.92687e+22
-4.98536  7.97241e+22
-4.86806  8.01642e+22
-4.75075  8.05858e+22
-4.63345  8.09883e+22
-4.51614  8.13731e+22
-4.39884  8.17442e+22
-4.28154  8.21057e+22
-4.16423  8.2463e+22
-4.04692  8.28188e+22
-3.92962  8.31753e+22
-3.81231  8.35321e+22
-3.69501  8.38873e+22
-3.5777  8.42386e+22
-3.4604  8.45843e+22
-3.34309  8.4923e+22
-3.22579  8.52558e+22
-3.10849  8.55838e+22
-2.99118  8.59093e+22
-2.87387  8.6234e+22
-2.75657  8.65577e+22
-2.63926  8.68782e+22
-2.52196  8.71911e+22
-2.40465  8.74904e+22
-2.28735  8.77698e+22
-2.17005  8.80235e+22
-2.05274  8.82478e+22
-1.93544  8.84417e+22
-1.81813  8.86075e+22
-1.70083  8.87497e+22
-1.58352  8.88737e+22
-1.46622  8.89851e+22
-1.34891  8.90876e+22
-1.2316  8.91833e+22
-1.1143  8.92711e+22
-0.996995  8.93487e+22
-0.87969  8.94126e+22
-0.762385  8.94598e+22
-0.64508  8.949e+22
-0.527775  8.95037e+22
-0.41047  8.9505e+22
-0.293165  8.94986e+22
-0.17586  8.94905e+22
-0.058555  8.94846e+22
0.05875  8.94835e+22
0.176055  8.94861e+22
0.29336  8.94902e+22
0.410665  8.94898e+22
0.52797  8.94801e+22
0.645275  8.94562e+22
0.76258  8.94156e+22
0.879885  8.93575e+22
0.99719  8.92842e+22
1.1145  8.91988e+22
1.2318  8.91044e+22
1.3491  8.90031e+22
1.46641  8.88948e+22
1.58371  8.87768e+22
1.70102  8.86438e+22
1.81832  8.84907e+22
1.93563  8.83117e+22
2.05294  8.81033e+22
2.17024  8.78643e+22
2.28754  8.7597e+22
2.40485  8.73058e+22
2.52216  8.69972e+22
2.63946  8.66774e+22
2.75677  8.63522e+22
2.87407  8.60251e+22
2.99137  8.56974e+22
3.10868  8.53682e+22
3.22599  8.50358e+22
3.34329  8.46978e+22
3.4606  8.4353e+22
3.5779  8.40014e+22
3.69521  8.36445e+22
3.81251  8.32846e+22
3.92982  8.29243e+22
4.04712  8.25644e+22
4.16443  8.22048e+22
4.28173  8.1843e+22
4.39903  8.14755e+22
4.51634  8.10968e+22
4.63364  8.07026e+22
4.75095  8.02903e+22
4.86825  7.98588e+22
4.98556  7.94103e+22
5.10286  7.89483e+22
5.22017  7.84777e+22
5.33748  7.80026e+22
5.45478  7.75256e+22
5.57209  7.70461e+22
5.68939  7.65609e+22
5.8067  7.60637e+22
5.924  7.55474e+22
6.0413  7.5005e+22
6.15861  7.44313e+22
6.27591  7.38239e+22
6.39322  7.3185e+22
6.51052  7.25202e+22
6.62783  7.18377e+22
6.74514  7.11475e+22
6.86244  7.04595e+22
6.97975  6.97821e+22
7.09705  6.9121e+22
7.21436  6.84793e+22
7.33166  6.78572e+22
7.44897  6.72527e+22
7.56627  6.66634e+22
7.68358  6.60855e+22
7.80088  6.5516e+22
7.91819  6.49521e+22
8.03549  6.43909e+22
8.1528  6.38285e+22
8.2701  6.32611e+22
8.38741  6.26838e+22
8.50471  6.20907e+22
8.62202  6.14764e+22
8.73932  6.08365e+22
8.85662  6.01683e+22
8.97393  5.94732e+22
9.09123  5.87544e+22
9.20854  5.80189e+22
9.32584  5.72755e+22
9.44315  5.65337e+22
9.56045  5.58015e+22
9.67776  5.50859e+22
9.79506  5.43892e+22
9.91237  5.37117e+22
10.0297  5.30495e+22
10.147  5.23975e+22
10.2643  5.17501e+22
10.3816  5.11027e+22
10.4989  5.04513e+22
10.6162  4.97955e+22
10.7335  4.91359e+22
10.8508  4.84748e+22
10.9681  4.78145e+22
11.0854  4.71567e+22
11.2027  4.65027e+22
11.32  4.58506e+22
11.4373  4.51991e+22
11.5546  4.45457e+22
11.6719  4.38886e+22
11.7893  4.32267e+22
11.9066  4.25601e+22
12.0239  4.18904e+22
12.1412  4.12196e+22
12.2585  4.05482e+22
12.3758  3.98756e+22
12.4931  3.9198e+22
12.6104  3.85099e+22
12.7277  3.78025e+22
12.845  3.70673e+22
12.9623  3.62964e+22
13.0796  3.54848e+22
13.1969  3.46312e+22
13.3142  3.37397e+22
13.4315  3.28183e+22
13.5488  3.18788e+22
13.6661  3.0935e+22
13.7834  3.00014e+22
13.9007  2.90889e+22
14.018  2.82069e+22
14.1354  2.73606e+22
14.2527  2.65518e+22
14.37  2.57788e+22
14.4873  2.50389e+22
14.6046  2.43266e+22
14.7219  2.36376e+22
14.8392  2.29662e+22
14.9565  2.23062e+22
15.0738  2.16513e+22
15.1911  2.09938e+22
15.3084  2.03255e+22
15.4257  1.96388e+22
15.543  1.89268e+22
15.6603  1.81846e+22
15.7776  1.74128e+22
15.8949  1.66157e+22
16.0122  1.58031e+22
16.1295  1.4989e+22
16.2468  1.41903e+22
16.3641  1.34238e+22
16.4815  1.27047e+22
16.5988  1.20441e+22
16.7161  1.14477e+22
16.8334  1.09157e+22
16.9507  1.04432e+22
17.068  1.00216e+22
17.1853  9.64072e+21
17.3026  9.291e+21
17.4199  8.96445e+21
17.5372  8.65499e+21
17.6545  8.35943e+21
17.7718  8.07645e+21
17.8891  7.8052e+21
18.0064  7.54534e+21
18.1237  7.29495e+21
18.241  7.05285e+21
18.3583  6.81673e+21
18.4756  6.5848e+21
18.5929  6.35686e+21
18.7102  6.13458e+21
18.8275  5.92071e+21
18.9449  5.7198e+21
19.0622  5.53555e+21
19.1795  5.37176e+21
19.2968  5.22893e+21
19.4141  5.10449e+21
19.5314  4.99299e+21
19.6487  4.88764e+21
19.766  4.78002e+21
19.8833  4.66224e+21
20.0006  4.52966e+21
20.1179  4.37989e+21
20.2352  4.21458e+21
20.3525  4.03906e+21
20.4698  3.86014e+21
20.5871  3.68563e+21
20.7044  3.52229e+21
20.8217  3.37564e+21
20.939  3.24849e+21
21.0563  3.14136e+21
21.1736  3.05333e+21
21.291  2.98188e+21
21.4083  2.92531e+21
21.5256  2.8814e+21
21.6429  2.84885e+21
21.7602  2.82604e+21
21.8775  2.81083e+21
21.9948  2.79971e+21
22.1121  2.78763e+21
22.2294  2.76833e+21
22.3467  2.73431e+21
22.464  2.67884e+21
22.5813  2.59705e+21
22.6986  2.48713e+21
22.8159  2.35089e+21
22.9332  2.19473e+21
23.0505  2.02786e+21
23.1678  1.86182e+21
23.2851  1.70781e+21
23.4024  1.57561e+21
23.5198  1.47153e+21
23.6371  1.39845e+21
23.7544  1.35419e+21
23.8717  1.33436e+21
23.989  1.33165e+21
24.1063  1.33893e+21
24.2236  1.34954e+21
24.3409  1.35898e+21
24.4582  1.36464e+21
24.5755  1.3662e+21
24.6928  1.36428e+21
24.8101  1.36029e+21
24.9274  1.35488e+21
25.0447  1.34805e+21
25.162  1.33919e+21
25.2793  1.3271e+21
25.3966  1.31084e+21
25.5139  1.29039e+21
25.6312  1.26688e+21
25.7485  1.24274e+21
25.8658  1.22087e+21
25.9832  1.20435e+21
26.1005  1.19549e+21
26.2178  1.19418e+21
26.3351  1.1986e+21
26.4524  1.20481e+21
26.5697  1.20756e+21
26.687  1.20139e+21
26.8043  1.18194e+21
26.9216  1.14713e+21
27.0389  1.09763e+21
27.1562  1.03695e+21
27.2735  9.70957e+20
27.3908  9.06321e+20
27.5081  8.49458e+20
27.6254  8.05553e+20
27.7427  7.7695e+20
27.86  7.63054e+20
27.9773  7.61428e+20
28.0946  7.67711e+20
28.212  7.77428e+20
28.3293  7.86963e+20
28.4466  7.94129e+20
28.5639  7.9895e+20
28.6812  8.02788e+20
28.7985  8.0767e+20
28.9158  8.15518e+20
29.0331  8.27435e+20
29.1504  8.42437e+20
29.2677  8.57987e+20
29.385  8.70672e+20
29.5023  8.76335e+20
29.6196  8.72379e+20
29.7369  8.57797e+20
29.8542  8.33793e+20
29.9715  8.03915e+20
30.0888  7.73076e+20
30.2061  7.46772e+20
30.3234  7.29369e+20
30.4407  7.23346e+20
30.558  7.28781e+20
30.6754  7.42988e+20
30.7927  7.6176e+20
30.91  7.79936e+20
31.0273  7.9291e+20
31.1446  7.97808e+20
31.2619  7.93764e+20
31.3792  7.82111e+20
31.4965  7.65787e+20
31.6138  7.48514e+20
31.7311  7.33275e+20
31.8484  7.21969e+20
31.9657  7.14733e+20
32.083  7.10164e+20
32.2003  7.0599e+20
32.3176  7.00083e+20
32.4349  6.91168e+20
32.5522  6.7966e+20
32.6695  6.67456e+20
32.7868  6.57611e+20
32.9042  6.53199e+20
33.0215  6.56512e+20
33.1388  6.6756e+20
33.2561  6.84357e+20
33.3734  7.02256e+20
33.4907  7.15586e+20
33.608  7.18546e+20
33.7253  7.06818e+20
33.8426  6.78817e+20
33.9599  6.36326e+20
34.0772  5.84358e+20
34.1945  5.30102e+20
34.3118  4.81456e+20
34.4291  4.45239e+20
34.5464  4.25878e+20
34.6637  4.24358e+20
34.781  4.38205e+20
34.8983  4.6225e+20
35.0156  4.89812e+20
35.1329  5.14708e+20
35.2503  5.32213e+20
35.3676  5.40282e+20
35.4849  5.39797e+20
35.6022  5.33377e+20
35.7195  5.25024e+20
35.8368  5.18536e+20
35.9541  5.1626e+20
36.0714  5.18667e+20
36.1887  5.24256e+20
36.306  5.30322e+20
36.4233  5.33825e+20
36.5406  5.32514e+20
36.6579  5.25706e+20
36.7752  5.14485e+20
36.8925  5.01721e+20
37.0098  4.90832e+20
37.1271  4.8487e+20
37.2444  4.85422e+20
37.3617  4.92275e+20
37.479  5.02919e+20
37.5964  5.13535e+20
37.7137  5.1959e+20
37.831  5.17526e+20
37.9483  5.05558e+20
38.0656  4.84202e+20
38.1829  4.56229e+20
38.3002  4.2634e+20
38.4175  3.9954e+20
38.5348  3.80122e+20
38.6521  3.70653e+20
38.7694  3.71309e+20
38.8867  3.79604e+20
39.004  3.91919e+20
39.1213  4.03738e+20
39.2386  4.1134e+20
39.3559  4.12688e+20
39.4732  4.07943e+20
39.5905  3.99332e+20
39.7078  3.90253e+20
39.8251  3.8464e+20
39.9425  3.85408e+20
40.0598  3.93692e+20
40.1771  4.08591e+20
40.2944  4.27092e+20
40.4117  4.451e+20
40.529  4.58469e+20
40.6463  4.64035e+20
40.7636  4.60492e+20
40.8809  4.48773e+20
40.9982  4.31895e+20
41.1155  4.14054e+20
41.2328  3.99735e+20
41.3501  3.92373e+20
41.4674  3.93782e+20
41.5847  4.03614e+20
41.702  4.19686e+20
41.8193  4.38362e+20
41.9366  4.55907e+20
42.0539  4.68968e+20
42.1712  4.758e+20
42.2885  4.76163e+20
42.4059  4.71454e+20
42.5232  4.63975e+20
42.6405  4.56495e+20
42.7578  4.50862e+20
42.8751  4.47876e+20
42.9924  4.47029e+20
43.1097  4.46722e+20
43.227  4.44753e+20
43.3443  4.39317e+20
43.4616  4.29518e+20
43.5789  4.15875e+20
43.6962  4.0027e+20
43.8135  3.85697e+20
43.9308  3.75178e+20
44.0481  3.71148e+20
44.1654  3.7459e+20
44.2827  3.84445e+20
44.4  3.97748e+20
44.5173  4.10401e+20
44.6347  4.17795e+20
44.752  4.16216e+20
44.8693  4.03763e+20
44.9866  3.80867e+20
45.1039  3.50537e+20
45.2212  3.17729e+20
45.3385  2.88172e+20
45.4558  2.67168e+20
45.5731  2.58297e+20
45.6904  2.62667e+20
45.8077  2.78612e+20
45.925  3.02049e+20
46.0423  3.27488e+20
46.1596  3.49362e+20
46.2769  3.63554e+20
46.3942  3.67958e+20
46.5115  3.62965e+20
46.6288  3.51539e+20
46.7461  3.37757e+20
46.8634  3.26058e+20
46.9808  3.19823e+20
47.0981  3.20445e+20
47.2154  3.27229e+20
47.3327  3.37573e+20
47.45  3.47716e+20
47.5673  3.54011e+20
47.6846  3.54233e+20
47.8019  3.47741e+20
47.9192  3.36023e+20
48.0365  3.22391e+20
48.1538  3.10489e+20
48.2711  3.0348e+20
48.3884  3.0324e+20
48.5057  3.09443e+20
48.623  3.19709e+20
48.7403  3.30474e+20
48.8576  3.37996e+20
48.9749  3.39232e+20
49.0922  3.33006e+20
49.2095  3.20506e+20
49.3269  3.04746e+20
49.4442  2.8977e+20
49.5615  2.79466e+20
49.6788  2.76486e+20
49.7961  2.81298e+20
49.9134  2.91953e+20
50.0307  3.04841e+20
50.148  3.15388e+20
50.2653  3.19721e+20
50.3826  3.15653e+20
50.4999  3.03563e+20
50.6172  2.8628e+20
50.7345  2.68498e+20
50.8518  2.55463e+20
