#S 1 spectral density
#N 2
#UFWHM 84.3423
#L  abscissas [um]  spectral density
-58.5938  5.73317e+21
-58.4764  5.68669e+21
-58.3591  5.6159e+21
-58.2418  5.53211e+21
-58.1245  5.44762e+21
-58.0072  5.37423e+21
-57.8899  5.32204e+21
-57.7726  5.29885e+21
-57.6553  5.3098e+21
-57.538  5.35731e+21
-57.4207  5.44134e+21
-57.3034  5.56005e+21
-57.1861  5.71061e+21
-57.0688  5.88877e+21
-56.9515  6.09027e+21
-56.8342  6.30987e+21
-56.7169  6.54154e+21
-56.5996  6.77863e+21
-56.4823  7.0135e+21
-56.365  7.23821e+21
-56.2477  7.44483e+21
-56.1303  7.62625e+21
-56.013  7.77738e+21
-55.8957  7.89559e+21
-55.7784  7.98147e+21
-55.6611  8.03896e+21
-55.5438  8.0748e+21
-55.4265  8.09751e+21
-55.3092  8.11637e+21
-55.1919  8.14026e+21
-55.0746  8.17598e+21
-54.9573  8.22791e+21
-54.84  8.29764e+21
-54.7227  8.38488e+21
-54.6054  8.48689e+21
-54.4881  8.60044e+21
-54.3708  8.72258e+21
-54.2535  8.8505e+21
-54.1362  8.98239e+21
-54.0189  9.11684e+21
-53.9016  9.25246e+21
-53.7842  9.38758e+21
-53.6669  9.51989e+21
-53.5496  9.64624e+21
-53.4323  9.763e+21
-53.315  9.86709e+21
-53.1977  9.95658e+21
-53.0804  1.00312e+22
-52.9631  1.00931e+22
-52.8458  1.01466e+22
-52.7285  1.0197e+22
-52.6112  1.02502e+22
-52.4939  1.03115e+22
-52.3766  1.03834e+22
-52.2593  1.0467e+22
-52.142  1.05604e+22
-52.0247  1.06597e+22
-51.9074  1.07607e+22
-51.7901  1.0859e+22
-51.6728  1.09523e+22
-51.5555  1.104e+22
-51.4381  1.11238e+22
-51.3208  1.12066e+22
-51.2035  1.12925e+22
-51.0862  1.13845e+22
-50.9689  1.14843e+22
-50.8516  1.15921e+22
-50.7343  1.17057e+22
-50.617  1.18217e+22
-50.4997  1.19368e+22
-50.3824  1.20478e+22
-50.2651  1.21531e+22
-50.1478  1.22525e+22
-50.0305  1.23477e+22
-49.9132  1.24401e+22
-49.7959  1.25311e+22
-49.6786  1.26213e+22
-49.5613  1.27093e+22
-49.444  1.27919e+22
-49.3267  1.28653e+22
-49.2094  1.29255e+22
-49.092  1.29697e+22
-48.9747  1.29976e+22
-48.8574  1.30112e+22
-48.7401  1.30152e+22
-48.6228  1.30164e+22
-48.5055  1.30223e+22
-48.3882  1.30397e+22
-48.2709  1.30741e+22
-48.1536  1.31283e+22
-48.0363  1.32027e+22
-47.919  1.32955e+22
-47.8017  1.34038e+22
-47.6844  1.35235e+22
-47.5671  1.36512e+22
-47.4498  1.37841e+22
-47.3325  1.39196e+22
-47.2152  1.40557e+22
-47.0979  1.41897e+22
-46.9806  1.43183e+22
-46.8633  1.44372e+22
-46.7459  1.45414e+22
-46.6286  1.46258e+22
-46.5113  1.46861e+22
-46.394  1.47204e+22
-46.2767  1.47295e+22
-46.1594  1.47176e+22
-46.0421  1.46916e+22
-45.9248  1.46609e+22
-45.8075  1.46357e+22
-45.6902  1.46253e+22
-45.5729  1.46376e+22
-45.4556  1.46766e+22
-45.3383  1.47438e+22
-45.221  1.48367e+22
-45.1037  1.49506e+22
-44.9864  1.50795e+22
-44.8691  1.52164e+22
-44.7518  1.53554e+22
-44.6345  1.54914e+22
-44.5172  1.56208e+22
-44.3998  1.57411e+22
-44.2825  1.58505e+22
-44.1652  1.5948e+22
-44.0479  1.60322e+22
-43.9306  1.6102e+22
-43.8133  1.61566e+22
-43.696  1.61961e+22
-43.5787  1.62212e+22
-43.4614  1.62348e+22
-43.3441  1.62408e+22
-43.2268  1.62448e+22
-43.1095  1.62526e+22
-42.9922  1.62699e+22
-42.8749  1.63012e+22
-42.7576  1.63492e+22
-42.6403  1.64139e+22
-42.523  1.64931e+22
-42.4057  1.65826e+22
-42.2884  1.6677e+22
-42.171  1.67708e+22
-42.0537  1.68593e+22
-41.9364  1.6939e+22
-41.8191  1.70087e+22
-41.7018  1.70686e+22
-41.5845  1.71204e+22
-41.4672  1.71666e+22
-41.3499  1.72097e+22
-41.2326  1.72519e+22
-41.1153  1.72949e+22
-40.998  1.73396e+22
-40.8807  1.73868e+22
-40.7634  1.7438e+22
-40.6461  1.74948e+22
-40.5288  1.75594e+22
-40.4115  1.76351e+22
-40.2942  1.77243e+22
-40.1769  1.7829e+22
-40.0596  1.79492e+22
-39.9423  1.80832e+22
-39.825  1.82264e+22
-39.7076  1.83728e+22
-39.5903  1.85151e+22
-39.473  1.86461e+22
-39.3557  1.87596e+22
-39.2384  1.88517e+22
-39.1211  1.89215e+22
-39.0038  1.89708e+22
-38.8865  1.90036e+22
-38.7692  1.90254e+22
-38.6519  1.90421e+22
-38.5346  1.90589e+22
-38.4173  1.90796e+22
-38.3  1.91066e+22
-38.1827  1.91408e+22
-38.0654  1.91826e+22
-37.9481  1.92319e+22
-37.8308  1.92889e+22
-37.7135  1.93544e+22
-37.5962  1.9429e+22
-37.4789  1.95134e+22
-37.3615  1.96074e+22
-37.2442  1.97091e+22
-37.1269  1.98147e+22
-37.0096  1.99194e+22
-36.8923  2.00172e+22
-36.775  2.01026e+22
-36.6577  2.01715e+22
-36.5404  2.02222e+22
-36.4231  2.02558e+22
-36.3058  2.02768e+22
-36.1885  2.02912e+22
-36.0712  2.03069e+22
-35.9539  2.03314e+22
-35.8366  2.03706e+22
-35.7193  2.04286e+22
-35.602  2.05068e+22
-35.4847  2.06041e+22
-35.3674  2.07181e+22
-35.2501  2.08457e+22
-35.1328  2.09834e+22
-35.0154  2.11287e+22
-34.8981  2.12797e+22
-34.7808  2.14342e+22
-34.6635  2.15901e+22
-34.5462  2.1744e+22
-34.4289  2.18913e+22
-34.3116  2.2026e+22
-34.1943  2.21412e+22
-34.077  2.22309e+22
-33.9597  2.22906e+22
-33.8424  2.23182e+22
-33.7251  2.23153e+22
-33.6078  2.2287e+22
-33.4905  2.22418e+22
-33.3732  2.21892e+22
-33.2559  2.21399e+22
-33.1386  2.21028e+22
-33.0213  2.20846e+22
-32.904  2.20889e+22
-32.7867  2.21165e+22
-32.6693  2.21655e+22
-32.552  2.22325e+22
-32.4347  2.23137e+22
-32.3174  2.24053e+22
-32.2001  2.25047e+22
-32.0828  2.26097e+22
-31.9655  2.27195e+22
-31.8482  2.2832e+22
-31.7309  2.29455e+22
-31.6136  2.30573e+22
-31.4963  2.31639e+22
-31.379  2.32623e+22
-31.2617  2.33496e+22
-31.1444  2.34247e+22
-31.0271  2.34885e+22
-30.9098  2.35439e+22
-30.7925  2.35956e+22
-30.6752  2.36492e+22
-30.5579  2.371e+22
-30.4406  2.37822e+22
-30.3232  2.38675e+22
-30.2059  2.39653e+22
-30.0886  2.40722e+22
-29.9713  2.41833e+22
-29.854  2.42926e+22
-29.7367  2.43948e+22
-29.6194  2.44857e+22
-29.5021  2.45624e+22
-29.3848  2.46249e+22
-29.2675  2.46738e+22
-29.1502  2.4711e+22
-29.0329  2.47382e+22
-28.9156  2.47569e+22
-28.7983  2.47677e+22
-28.681  2.47706e+22
-28.5637  2.47656e+22
-28.4464  2.47533e+22
-28.3291  2.47354e+22
-28.2118  2.47151e+22
-28.0944  2.46972e+22
-27.9771  2.46874e+22
-27.8598  2.46913e+22
-27.7425  2.47137e+22
-27.6252  2.47573e+22
-27.5079  2.48222e+22
-27.3906  2.49062e+22
-27.2733  2.50048e+22
-27.156  2.51117e+22
-27.0387  2.5221e+22
-26.9214  2.53275e+22
-26.8041  2.54276e+22
-26.6868  2.55201e+22
-26.5695  2.5606e+22
-26.4522  2.56877e+22
-26.3349  2.5768e+22
-26.2176  2.585e+22
-26.1003  2.59354e+22
-25.983  2.6025e+22
-25.8657  2.61182e+22
-25.7483  2.62137e+22
-25.631  2.63099e+22
-25.5137  2.64055e+22
-25.3964  2.64999e+22
-25.2791  2.6593e+22
-25.1618  2.66853e+22
-25.0445  2.6777e+22
-24.9272  2.68675e+22
-24.8099  2.69548e+22
-24.6926  2.70358e+22
-24.5753  2.71063e+22
-24.458  2.71613e+22
-24.3407  2.71968e+22
-24.2234  2.72102e+22
-24.1061  2.72014e+22
-23.9888  2.71731e+22
-23.8715  2.71305e+22
-23.7542  2.70809e+22
-23.6369  2.70324e+22
-23.5196  2.69929e+22
-23.4023  2.69689e+22
-23.2849  2.69648e+22
-23.1676  2.69825e+22
-23.0503  2.70222e+22
-22.933  2.7082e+22
-22.8157  2.71596e+22
-22.6984  2.7253e+22
-22.5811  2.73602e+22
-22.4638  2.74797e+22
-22.3465  2.76107e+22
-22.2292  2.77516e+22
-22.1119  2.78999e+22
-21.9946  2.80519e+22
-21.8773  2.82024e+22
-21.76  2.83454e+22
-21.6427  2.84744e+22
-21.5254  2.85838e+22
-21.4081  2.867e+22
-21.2908  2.87317e+22
-21.1735  2.87707e+22
-21.0561  2.87913e+22
-20.9388  2.87994e+22
-20.8215  2.88018e+22
-20.7042  2.88047e+22
-20.5869  2.88128e+22
-20.4696  2.88288e+22
-20.3523  2.88532e+22
-20.235  2.88848e+22
-20.1177  2.89215e+22
-20.0004  2.89611e+22
-19.8831  2.90014e+22
-19.7658  2.90414e+22
-19.6485  2.90806e+22
-19.5312  2.91189e+22
-19.4139  2.91561e+22
-19.2966  2.91909e+22
-19.1793  2.92216e+22
-19.062  2.92456e+22
-18.9447  2.92601e+22
-18.8274  2.92633e+22
-18.71  2.92546e+22
-18.5927  2.92361e+22
-18.4754  2.92121e+22
-18.3581  2.91887e+22
-18.2408  2.91737e+22
-18.1235  2.91741e+22
-18.0062  2.91961e+22
-17.8889  2.92431e+22
-17.7716  2.93152e+22
-17.6543  2.94098e+22
-17.537  2.95217e+22
-17.4197  2.96442e+22
-17.3024  2.97707e+22
-17.1851  2.98957e+22
-17.0678  3.00152e+22
-16.9505  3.01272e+22
-16.8332  3.02312e+22
-16.7159  3.03273e+22
-16.5986  3.04159e+22
-16.4813  3.04966e+22
-16.364  3.05679e+22
-16.2466  3.06279e+22
-16.1293  3.06742e+22
-16.012  3.07053e+22
-15.8947  3.07216e+22
-15.7774  3.07252e+22
-15.6601  3.07201e+22
-15.5428  3.07123e+22
-15.4255  3.07079e+22
-15.3082  3.07123e+22
-15.1909  3.07294e+22
-15.0736  3.076e+22
-14.9563  3.08026e+22
-14.839  3.08532e+22
-14.7217  3.09064e+22
-14.6044  3.09566e+22
-14.4871  3.09995e+22
-14.3698  3.10323e+22
-14.2525  3.10547e+22
-14.1352  3.10683e+22
-14.0178  3.10761e+22
-13.9005  3.10816e+22
-13.7832  3.10881e+22
-13.6659  3.10973e+22
-13.5486  3.11108e+22
-13.4313  3.11285e+22
-13.314  3.11506e+22
-13.1967  3.11772e+22
-13.0794  3.12098e+22
-12.9621  3.12504e+22
-12.8448  3.13022e+22
-12.7275  3.1368e+22
-12.6102  3.14496e+22
-12.4929  3.15475e+22
-12.3756  3.16589e+22
-12.2583  3.1779e+22
-12.141  3.19008e+22
-12.0237  3.20159e+22
-11.9064  3.21162e+22
-11.7891  3.21954e+22
-11.6718  3.2249e+22
-11.5544  3.22762e+22
-11.4371  3.22786e+22
-11.3198  3.22606e+22
-11.2025  3.22276e+22
-11.0852  3.21858e+22
-10.9679  3.214e+22
-10.8506  3.20944e+22
-10.7333  3.20517e+22
-10.616  3.20134e+22
-10.4987  3.19805e+22
-10.3814  3.19541e+22
-10.2641  3.19359e+22
-10.1468  3.19277e+22
-10.0295  3.19322e+22
-9.91217  3.19511e+22
-9.79487  3.19855e+22
-9.67756  3.20344e+22
-9.56026  3.20953e+22
-9.44295  3.21633e+22
-9.32565  3.22325e+22
-9.20834  3.22967e+22
-9.09104  3.23504e+22
-8.97373  3.23896e+22
-8.85643  3.24137e+22
-8.73913  3.24234e+22
-8.62182  3.24229e+22
-8.50452  3.24172e+22
-8.38721  3.24121e+22
-8.26991  3.24129e+22
-8.1526  3.24237e+22
-8.03529  3.24467e+22
-7.91799  3.24824e+22
-7.80069  3.25306e+22
-7.68338  3.25894e+22
-7.56608  3.26574e+22
-7.44877  3.27334e+22
-7.33146  3.2816e+22
-7.21416  3.29041e+22
-7.09685  3.29965e+22
-6.97955  3.30903e+22
-6.86224  3.31816e+22
-6.74494  3.32651e+22
-6.62763  3.33348e+22
-6.51033  3.33844e+22
-6.39302  3.34088e+22
-6.27572  3.3405e+22
-6.15842  3.33729e+22
-6.04111  3.33157e+22
-5.92381  3.32397e+22
-5.8065  3.3153e+22
-5.68919  3.30651e+22
-5.57189  3.29851e+22
-5.45458  3.292e+22
-5.33728  3.28747e+22
-5.21997  3.28512e+22
-5.10267  3.28489e+22
-4.98536  3.28653e+22
-4.86806  3.28971e+22
-4.75075  3.29411e+22
-4.63345  3.29943e+22
-4.51614  3.30547e+22
-4.39884  3.31212e+22
-4.28154  3.3192e+22
-4.16423  3.32657e+22
-4.04692  3.33392e+22
-3.92962  3.34087e+22
-3.81231  3.34696e+22
-3.69501  3.35173e+22
-3.5777  3.3548e+22
-3.4604  3.35598e+22
-3.34309  3.35533e+22
-3.22579  3.35316e+22
-3.10849  3.35002e+22
-2.99118  3.34655e+22
-2.87387  3.3434e+22
-2.75657  3.34116e+22
-2.63926  3.34015e+22
-2.52196  3.34046e+22
-2.40465  3.34195e+22
-2.28735  3.34428e+22
-2.17005  3.347e+22
-2.05274  3.34971e+22
-1.93544  3.35206e+22
-1.81813  3.35385e+22
-1.70083  3.35501e+22
-1.58352  3.35554e+22
-1.46622  3.35542e+22
-1.34891  3.35465e+22
-1.2316  3.35311e+22
-1.1143  3.35063e+22
-0.996995  3.34701e+22
-0.87969  3.34216e+22
-0.762385  3.3361e+22
-0.64508  3.32909e+22
-0.527775  3.3216e+22
-0.41047  3.31434e+22
-0.293165  3.30803e+22
-0.17586  3.30341e+22
-0.058555  3.30109e+22
0.05875  3.3013e+22
0.176055  3.30402e+22
0.29336  3.3089e+22
0.410665  3.31529e+22
0.52797  3.3225e+22
0.645275  3.32978e+22
0.76258  3.33653e+22
0.879885  3.34234e+22
0.99719  3.34706e+22
1.1145  3.35068e+22
1.2318  3.35333e+22
1.3491  3.35515e+22
1.46641  3.35626e+22
1.58371  3.35671e+22
1.70102  3.35645e+22
1.81832  3.35544e+22
1.93563  3.35369e+22
2.05294  3.35131e+22
2.17024  3.34857e+22
2.28754  3.34583e+22
2.40485  3.3436e+22
2.52216  3.3423e+22
2.63946  3.34224e+22
2.75677  3.34353e+22
2.87407  3.34603e+22
2.99137  3.34931e+22
3.10868  3.35278e+22
3.22599  3.35576e+22
3.34329  3.35763e+22
3.4606  3.35792e+22
3.5779  3.3564e+22
3.69521  3.35308e+22
3.81251  3.34824e+22
3.92982  3.34225e+22
4.04712  3.33555e+22
4.16443  3.32855e+22
4.28173  3.32158e+22
4.39903  3.31483e+22
4.51634  3.30846e+22
4.63364  3.30261e+22
4.75095  3.29741e+22
4.86825  3.29313e+22
4.98556  3.29011e+22
5.10286  3.28874e+22
5.22017  3.28935e+22
5.33748  3.29219e+22
5.45478  3.29725e+22
5.57209  3.30424e+22
5.68939  3.3126e+22
5.8067  3.32153e+22
5.924  3.3301e+22
6.0413  3.33739e+22
6.15861  3.34261e+22
6.27591  3.34523e+22
6.39322  3.34505e+22
6.51052  3.34216e+22
6.62783  3.33694e+22
6.74514  3.32993e+22
6.86244  3.32172e+22
6.97975  3.31285e+22
7.09705  3.30381e+22
7.21436  3.2949e+22
7.33166  3.28635e+22
7.44897  3.27829e+22
7.56627  3.27087e+22
7.68358  3.26423e+22
7.80088  3.25855e+22
7.91819  3.25403e+22
8.03549  3.25081e+22
8.1528  3.24892e+22
8.2701  3.24827e+22
8.38741  3.24853e+22
8.50471  3.24924e+22
8.62202  3.24984e+22
8.73932  3.24972e+22
8.85662  3.24841e+22
8.97393  3.2456e+22
9.09123  3.24123e+22
9.20854  3.23551e+22
9.32584  3.22889e+22
9.44315  3.22195e+22
9.56045  3.21529e+22
9.67776  3.20947e+22
9.79506  3.2049e+22
9.91237  3.20176e+22
10.0297  3.20012e+22
10.147  3.19985e+22
10.2643  3.20075e+22
10.3816  3.20267e+22
10.4989  3.20542e+22
10.6162  3.20892e+22
10.7335  3.21308e+22
10.8508  3.21778e+22
10.9681  3.22281e+22
11.0854  3.22783e+22
11.2027  3.23236e+22
11.32  3.23579e+22
11.4373  3.23753e+22
11.5546  3.23701e+22
11.6719  3.23385e+22
11.7893  3.22796e+22
11.9066  3.21956e+22
12.0239  3.20916e+22
12.1412  3.19747e+22
12.2585  3.1853e+22
12.3758  3.17347e+22
12.4931  3.16261e+22
12.6104  3.15314e+22
12.7277  3.14522e+22
12.845  3.13881e+22
12.9623  3.1337e+22
13.0796  3.1296e+22
13.1969  3.1263e+22
13.3142  3.12362e+22
13.4315  3.12149e+22
13.5488  3.1199e+22
13.6661  3.11884e+22
13.7834  3.11825e+22
13.9007  3.11796e+22
14.018  3.11768e+22
14.1354  3.11708e+22
14.2527  3.11575e+22
14.37  3.11342e+22
14.4873  3.10999e+22
14.6046  3.10555e+22
14.7219  3.10044e+22
14.8392  3.09516e+22
14.9565  3.09024e+22
15.0738  3.08624e+22
15.1911  3.08345e+22
15.3084  3.082e+22
15.4257  3.0817e+22
15.543  3.08215e+22
15.6603  3.08276e+22
15.7776  3.08298e+22
15.8949  3.08228e+22
16.0122  3.08031e+22
16.1295  3.07696e+22
16.2468  3.07226e+22
16.3641  3.06635e+22
16.4815  3.05944e+22
16.5988  3.05168e+22
16.7161  3.04314e+22
16.8334  3.03378e+22
16.9507  3.02355e+22
17.068  3.01242e+22
17.1853  3.00045e+22
17.3026  2.98794e+22
17.4199  2.97531e+22
17.5372  2.96322e+22
17.6545  2.95234e+22
17.7718  2.94331e+22
17.8891  2.93662e+22
18.0064  2.93244e+22
18.1237  2.93066e+22
18.241  2.93086e+22
18.3583  2.93239e+22
18.4756  2.93454e+22
18.5929  2.93658e+22
18.7102  2.93797e+22
18.8275  2.93838e+22
18.9449  2.93768e+22
19.0622  2.93598e+22
19.1795  2.93352e+22
19.2968  2.93051e+22
19.4141  2.92722e+22
19.5314  2.92373e+22
19.6487  2.92013e+22
19.766  2.91642e+22
19.8833  2.91258e+22
20.0006  2.90873e+22
20.1179  2.90497e+22
20.2352  2.9016e+22
20.3525  2.89879e+22
20.4698  2.89679e+22
20.5871  2.89569e+22
20.7044  2.89531e+22
20.8217  2.89534e+22
20.939  2.89522e+22
21.0563  2.8943e+22
21.1736  2.89188e+22
21.291  2.88745e+22
21.4083  2.88063e+22
21.5256  2.87136e+22
21.6429  2.85985e+22
21.7602  2.84657e+22
21.8775  2.83208e+22
21.9948  2.81703e+22
22.1121  2.80199e+22
22.2294  2.78741e+22
22.3467  2.77361e+22
22.464  2.76078e+22
22.5813  2.74904e+22
22.6986  2.73854e+22
22.8159  2.72944e+22
22.9332  2.72198e+22
23.0505  2.71642e+22
23.1678  2.71301e+22
23.2851  2.71188e+22
23.4024  2.71296e+22
23.5198  2.71599e+22
23.6371  2.72041e+22
23.7544  2.7255e+22
23.8717  2.73045e+22
23.989  2.7344e+22
24.1063  2.73674e+22
24.2236  2.73699e+22
24.3409  2.73501e+22
24.4582  2.7309e+22
24.5755  2.72498e+22
24.6928  2.7177e+22
24.8101  2.70951e+22
24.9274  2.70082e+22
25.0447  2.69186e+22
25.162  2.68278e+22
25.2793  2.67361e+22
25.3966  2.6643e+22
25.5139  2.65485e+22
25.6312  2.6453e+22
25.7485  2.63576e+22
25.8658  2.62636e+22
25.9832  2.61729e+22
26.1005  2.60865e+22
26.2178  2.60044e+22
26.3351  2.59252e+22
26.4524  2.58464e+22
26.5697  2.57647e+22
26.687  2.56773e+22
26.8043  2.55818e+22
26.9216  2.54783e+22
27.0389  2.53689e+22
27.1562  2.52577e+22
27.2735  2.51504e+22
27.3908  2.50533e+22
27.5081  2.4972e+22
27.6254  2.49104e+22
27.7427  2.48699e+22
27.86  2.48497e+22
27.9773  2.48466e+22
28.0946  2.48553e+22
28.212  2.48708e+22
28.3293  2.48878e+22
28.4466  2.49026e+22
28.5639  2.49127e+22
28.6812  2.49166e+22
28.7985  2.49143e+22
28.9158  2.49053e+22
29.0331  2.48893e+22
29.1504  2.48647e+22
29.2677  2.48297e+22
29.385  2.47819e+22
29.5023  2.47197e+22
29.6196  2.46422e+22
29.7369  2.45506e+22
29.8542  2.44481e+22
29.9715  2.43395e+22
30.0888  2.42303e+22
30.2061  2.41264e+22
30.3234  2.40324e+22
30.4407  2.39506e+22
30.558  2.38808e+22
30.6754  2.38209e+22
30.7927  2.37661e+22
30.91  2.37112e+22
31.0273  2.36513e+22
31.1446  2.35822e+22
31.2619  2.35021e+22
31.3792  2.34107e+22
31.4965  2.33098e+22
31.6138  2.32023e+22
31.7311  2.30911e+22
31.8484  2.29793e+22
31.9657  2.28692e+22
32.083  2.27621e+22
32.2003  2.26595e+22
32.3176  2.25629e+22
32.4349  2.24744e+22
32.5522  2.23975e+22
32.6695  2.23358e+22
32.7868  2.22933e+22
32.9042  2.22731e+22
33.0215  2.22764e+22
33.1388  2.23015e+22
33.2561  2.23439e+22
33.3734  2.23956e+22
33.4907  2.24475e+22
33.608  2.24888e+22
33.7253  2.25105e+22
33.8426  2.25049e+22
33.9599  2.24684e+22
34.0772  2.24002e+22
34.1945  2.23034e+22
34.3118  2.21831e+22
34.4291  2.20457e+22
34.5464  2.18974e+22
34.6637  2.17439e+22
34.781  2.15893e+22
34.8983  2.14364e+22
35.0156  2.12876e+22
35.1329  2.11447e+22
35.2503  2.10101e+22
35.3676  2.08868e+22
35.4849  2.07783e+22
35.6022  2.06878e+22
35.7195  2.06174e+22
35.8368  2.05672e+22
35.9541  2.0535e+22
36.0714  2.05158e+22
36.1887  2.05028e+22
36.306  2.04882e+22
36.4233  2.04643e+22
36.5406  2.04255e+22
36.6579  2.03685e+22
36.7752  2.02928e+22
36.8925  2.02013e+22
37.0098  2.00988e+22
37.1271  1.99911e+22
37.2444  1.98842e+22
37.3617  1.97825e+22
37.479  1.96892e+22
37.5964  1.96058e+22
37.7137  1.95323e+22
37.831  1.94681e+22
37.9483  1.94127e+22
38.0656  1.93655e+22
38.1829  1.93267e+22
38.3002  1.92965e+22
38.4175  1.92743e+22
38.5348  1.92586e+22
38.6521  1.92463e+22
38.7694  1.92326e+22
38.8867  1.92118e+22
39.004  1.91776e+22
39.1213  1.91245e+22
39.2386  1.90492e+22
39.3559  1.89507e+22
39.4732  1.8831e+22
39.5905  1.8695e+22
39.7078  1.85494e+22
39.8251  1.84017e+22
39.9425  1.8259e+22
40.0598  1.81268e+22
40.1771  1.80086e+22
40.2944  1.79054e+22
40.4117  1.78166e+22
40.529  1.77401e+22
40.6463  1.76731e+22
40.7636  1.76136e+22
40.8809  1.75595e+22
40.9982  1.75098e+22
41.1155  1.74637e+22
41.2328  1.74207e+22
41.3501  1.73794e+22
41.4674  1.73375e+22
41.5847  1.72927e+22
41.702  1.72417e+22
41.8193  1.71818e+22
41.9366  1.71116e+22
42.0539  1.7031e+22
42.1712  1.69419e+22
42.2885  1.68481e+22
42.4059  1.67551e+22
42.5232  1.66683e+22
42.6405  1.65927e+22
42.7578  1.65317e+22
42.8751  1.6487e+22
42.9924  1.64575e+22
43.1097  1.644e+22
43.227  1.64297e+22
43.3443  1.64211e+22
43.4616  1.64086e+22
43.5789  1.63879e+22
43.6962  1.63556e+22
43.8135  1.63102e+22
43.9308  1.62509e+22
44.0481  1.61779e+22
44.1654  1.60921e+22
44.2827  1.59939e+22
44.4  1.58842e+22
44.5173  1.57642e+22
44.6347  1.56354e+22
44.752  1.55005e+22
44.8693  1.53635e+22
44.9866  1.52301e+22
45.1039  1.51065e+22
45.2212  1.49996e+22
45.3385  1.49149e+22
45.4558  1.48567e+22
45.5731  1.48261e+22
45.6904  1.48206e+22
45.8077  1.48349e+22
45.925  1.48611e+22
46.0423  1.48893e+22
46.1596  1.49097e+22
46.2769  1.49142e+22
46.3942  1.48966e+22
46.5115  1.4854e+22
46.6288  1.47865e+22
46.7461  1.46967e+22
46.8634  1.4589e+22
46.9808  1.44681e+22
47.0981  1.43389e+22
47.2154  1.42052e+22
47.3327  1.407e+22
47.45  1.39358e+22
47.5673  1.3805e+22
47.6846  1.36804e+22
47.8019  1.35651e+22
47.9192  1.34629e+22
48.0365  1.33775e+22
48.1538  1.33115e+22
48.2711  1.3266e+22
48.3884  1.32398e+22
48.5057  1.32288e+22
48.623  1.32272e+22
48.7403  1.32278e+22
48.8576  1.32232e+22
48.9749  1.32071e+22
49.0922  1.31757e+22
49.2095  1.31277e+22
49.3269  1.30642e+22
49.4442  1.29886e+22
49.5615  1.29048e+22
49.6788  1.28166e+22
49.7961  1.27266e+22
49.9134  1.26358e+22
50.0307  1.25431e+22
50.148  1.24477e+22
50.2653  1.23478e+22
50.3826  1.22424e+22
50.4999  1.21323e+22
50.6172  1.202e+22
50.7345  1.19085e+22
50.8518  1.18011e+22
