#S 1 spectral density
#N 2
#UFWHM 7.39022
#L  abscissas [um]  spectral density
-58.5938  1.5442e+21
-58.4764  1.50273e+21
-58.3591  1.45227e+21
-58.2418  1.39881e+21
-58.1245  1.34912e+21
-58.0072  1.30922e+21
-57.8899  1.28296e+21
-57.7726  1.27081e+21
-57.6553  1.26971e+21
-57.538  1.27398e+21
-57.4207  1.27738e+21
-57.3034  1.27386e+21
-57.1861  1.25988e+21
-57.0688  1.23521e+21
-56.9515  1.20293e+21
-56.8342  1.16807e+21
-56.7169  1.13654e+21
-56.5996  1.11387e+21
-56.4823  1.10304e+21
-56.365  1.10432e+21
-56.2477  1.11548e+21
-56.1303  1.13242e+21
-56.013  1.15061e+21
-55.8957  1.1663e+21
-55.7784  1.17743e+21
-55.6611  1.18389e+21
-55.5438  1.18737e+21
-55.4265  1.19047e+21
-55.3092  1.19568e+21
-55.1919  1.20505e+21
-55.0746  1.21939e+21
-54.9573  1.23841e+21
-54.84  1.26093e+21
-54.7227  1.28586e+21
-54.6054  1.3123e+21
-54.4881  1.34019e+21
-54.3708  1.3698e+21
-54.2535  1.40159e+21
-54.1362  1.43618e+21
-54.0189  1.4731e+21
-53.9016  1.5109e+21
-53.7842  1.54742e+21
-53.6669  1.57997e+21
-53.5496  1.60573e+21
-53.4323  1.62271e+21
-53.315  1.62982e+21
-53.1977  1.62807e+21
-53.0804  1.61966e+21
-52.9631  1.60793e+21
-52.8458  1.59665e+21
-52.7285  1.59026e+21
-52.6112  1.59115e+21
-52.4939  1.60061e+21
-52.3766  1.6179e+21
-52.2593  1.64063e+21
-52.142  1.66424e+21
-52.0247  1.68361e+21
-51.9074  1.69417e+21
-51.7901  1.69206e+21
-51.6728  1.67586e+21
-51.5555  1.64622e+21
-51.4381  1.60639e+21
-51.3208  1.56179e+21
-51.2035  1.518e+21
-51.0862  1.48123e+21
-50.9689  1.45593e+21
-50.8516  1.44492e+21
-50.7343  1.44843e+21
-50.617  1.46491e+21
-50.4997  1.49122e+21
-50.3824  1.52326e+21
-50.2651  1.55758e+21
-50.1478  1.59054e+21
-50.0305  1.62006e+21
-49.9132  1.64439e+21
-49.7959  1.66282e+21
-49.6786  1.67526e+21
-49.5613  1.68171e+21
-49.444  1.68306e+21
-49.3267  1.68057e+21
-49.2094  1.67594e+21
-49.092  1.67177e+21
-48.9747  1.67118e+21
-48.8574  1.67699e+21
-48.7401  1.69108e+21
-48.6228  1.71435e+21
-48.5055  1.74597e+21
-48.3882  1.78308e+21
-48.2709  1.8216e+21
-48.1536  1.85645e+21
-48.0363  1.88338e+21
-47.919  1.89857e+21
-47.8017  1.9005e+21
-47.6844  1.8898e+21
-47.5671  1.86909e+21
-47.4498  1.8424e+21
-47.3325  1.8141e+21
-47.2152  1.78877e+21
-47.0979  1.76892e+21
-46.9806  1.75599e+21
-46.8633  1.74899e+21
-46.7459  1.74543e+21
-46.6286  1.74232e+21
-46.5113  1.73581e+21
-46.394  1.72372e+21
-46.2767  1.70451e+21
-46.1594  1.67889e+21
-46.0421  1.64917e+21
-45.9248  1.61837e+21
-45.8075  1.5897e+21
-45.6902  1.56561e+21
-45.5729  1.54717e+21
-45.4556  1.53303e+21
-45.3383  1.52019e+21
-45.221  1.50494e+21
-45.1037  1.48304e+21
-44.9864  1.45215e+21
-44.8691  1.41175e+21
-44.7518  1.36456e+21
-44.6345  1.31536e+21
-44.5172  1.27042e+21
-44.3998  1.2359e+21
-44.2825  1.21649e+21
-44.1652  1.21341e+21
-44.0479  1.22457e+21
-43.9306  1.24449e+21
-43.8133  1.26583e+21
-43.696  1.28087e+21
-43.5787  1.28387e+21
-43.4614  1.2722e+21
-43.3441  1.24721e+21
-43.2268  1.2135e+21
-43.1095  1.1785e+21
-42.9922  1.14967e+21
-42.8749  1.1332e+21
-42.7576  1.13248e+21
-42.6403  1.14707e+21
-42.523  1.17357e+21
-42.4057  1.20615e+21
-42.2884  1.23889e+21
-42.171  1.26665e+21
-42.0537  1.28721e+21
-41.9364  1.30116e+21
-41.8191  1.31149e+21
-41.7018  1.32327e+21
-41.5845  1.34085e+21
-41.4672  1.36746e+21
-41.3499  1.40377e+21
-41.2326  1.44688e+21
-41.1153  1.49162e+21
-40.998  1.5312e+21
-40.8807  1.55947e+21
-40.7634  1.57149e+21
-40.6461  1.56591e+21
-40.5288  1.54493e+21
-40.4115  1.51374e+21
-40.2942  1.48006e+21
-40.1769  1.45148e+21
-40.0596  1.43423e+21
-39.9423  1.43145e+21
-39.825  1.44216e+21
-39.7076  1.46169e+21
-39.5903  1.48329e+21
-39.473  1.49897e+21
-39.3557  1.50245e+21
-39.2384  1.49039e+21
-39.1211  1.46397e+21
-39.0038  1.42796e+21
-38.8865  1.38998e+21
-38.7692  1.3587e+21
-38.6519  1.34102e+21
-38.5346  1.34062e+21
-38.4173  1.35732e+21
-38.3  1.3864e+21
-38.1827  1.4208e+21
-38.0654  1.45262e+21
-37.9481  1.47549e+21
-37.8308  1.4865e+21
-37.7135  1.48653e+21
-37.5962  1.48024e+21
-37.4789  1.47452e+21
-37.3615  1.47674e+21
-37.2442  1.49248e+21
-37.1269  1.524e+21
-37.0096  1.57024e+21
-36.8923  1.62652e+21
-36.775  1.68648e+21
-36.6577  1.74371e+21
-36.5404  1.79311e+21
-36.4231  1.832e+21
-36.3058  1.86061e+21
-36.1885  1.88155e+21
-36.0712  1.89818e+21
-35.9539  1.91418e+21
-35.8366  1.93196e+21
-35.7193  1.95212e+21
-35.602  1.9745e+21
-35.4847  1.99747e+21
-35.3674  2.01999e+21
-35.2501  2.04168e+21
-35.1328  2.06317e+21
-35.0154  2.086e+21
-34.8981  2.11225e+21
-34.7808  2.14266e+21
-34.6635  2.17679e+21
-34.5462  2.2117e+21
-34.4289  2.24328e+21
-34.3116  2.2658e+21
-34.1943  2.27417e+21
-34.077  2.26531e+21
-33.9597  2.23881e+21
-33.8424  2.19741e+21
-33.7251  2.14745e+21
-33.6078  2.0968e+21
-33.4905  2.05305e+21
-33.3732  2.02274e+21
-33.2559  2.00844e+21
-33.1386  2.00892e+21
-33.0213  2.01907e+21
-32.904  2.03133e+21
-32.7867  2.0373e+21
-32.6693  2.0306e+21
-32.552  2.0073e+21
-32.4347  1.96847e+21
-32.3174  1.91875e+21
-32.2001  1.86502e+21
-32.0828  1.81499e+21
-31.9655  1.77504e+21
-31.8482  1.74752e+21
-31.7309  1.73086e+21
-31.6136  1.7201e+21
-31.4963  1.70802e+21
-31.379  1.68785e+21
-31.2617  1.65505e+21
-31.1444  1.60928e+21
-31.0271  1.55445e+21
-30.9098  1.49848e+21
-30.7925  1.45004e+21
-30.6752  1.41746e+21
-30.5579  1.40548e+21
-30.4406  1.41425e+21
-30.3232  1.43893e+21
-30.2059  1.47154e+21
-30.0886  1.50208e+21
-29.9713  1.52219e+21
-29.854  1.52672e+21
-29.7367  1.51537e+21
-29.6194  1.4922e+21
-29.5021  1.46474e+21
-29.3848  1.44167e+21
-29.2675  1.43014e+21
-29.1502  1.43426e+21
-29.0329  1.4537e+21
-28.9156  1.48408e+21
-28.7983  1.51789e+21
-28.681  1.5469e+21
-28.5637  1.56382e+21
-28.4464  1.56435e+21
-28.3291  1.54775e+21
-28.2118  1.51712e+21
-28.0944  1.47809e+21
-27.9771  1.43773e+21
-27.8598  1.40211e+21
-27.7425  1.37579e+21
-27.6252  1.36046e+21
-27.5079  1.35463e+21
-27.3906  1.3544e+21
-27.2733  1.35492e+21
-27.156  1.35057e+21
-27.0387  1.33698e+21
-26.9214  1.31177e+21
-26.8041  1.27504e+21
-26.6868  1.2292e+21
-26.5695  1.17867e+21
-26.4522  1.12891e+21
-26.3349  1.08551e+21
-26.2176  1.05347e+21
-26.1003  1.03626e+21
-25.983  1.03507e+21
-25.8657  1.04928e+21
-25.7483  1.07648e+21
-25.631  1.11295e+21
-25.5137  1.1543e+21
-25.3964  1.1964e+21
-25.2791  1.23572e+21
-25.1618  1.26962e+21
-25.0445  1.29697e+21
-24.9272  1.31777e+21
-24.8099  1.33303e+21
-24.6926  1.34455e+21
-24.5753  1.35461e+21
-24.458  1.36594e+21
-24.3407  1.38117e+21
-24.2234  1.40238e+21
-24.1061  1.4313e+21
-23.9888  1.46861e+21
-23.8715  1.51418e+21
-23.7542  1.56647e+21
-23.6369  1.62335e+21
-23.5196  1.68188e+21
-23.4023  1.73864e+21
-23.2849  1.79123e+21
-23.1676  1.83701e+21
-23.0503  1.87503e+21
-22.933  1.90574e+21
-22.8157  1.93002e+21
-22.6984  1.95021e+21
-22.5811  1.96908e+21
-22.4638  1.98901e+21
-22.3465  2.01208e+21
-22.2292  2.03919e+21
-22.1119  2.07031e+21
-21.9946  2.10435e+21
-21.8773  2.13926e+21
-21.76  2.17261e+21
-21.6427  2.20177e+21
-21.5254  2.22558e+21
-21.4081  2.24335e+21
-21.2908  2.25635e+21
-21.1735  2.26709e+21
-21.0561  2.27925e+21
-20.9388  2.29644e+21
-20.8215  2.32123e+21
-20.7042  2.35456e+21
-20.5869  2.39431e+21
-20.4696  2.43676e+21
-20.3523  2.47518e+21
-20.235  2.5033e+21
-20.1177  2.51538e+21
-20.0004  2.50868e+21
-19.8831  2.4842e+21
-19.7658  2.44712e+21
-19.6485  2.40494e+21
-19.5312  2.36736e+21
-19.4139  2.34232e+21
-19.2966  2.33504e+21
-19.1793  2.34591e+21
-19.062  2.3704e+21
-18.9447  2.40061e+21
-18.8274  2.42664e+21
-18.71  2.43973e+21
-18.5927  2.43529e+21
-18.4754  2.41249e+21
-18.3581  2.37729e+21
-18.2408  2.3385e+21
-18.1235  2.30746e+21
-18.0062  2.293e+21
-17.8889  2.30124e+21
-17.7716  2.33162e+21
-17.6543  2.37767e+21
-17.537  2.429e+21
-17.4197  2.47288e+21
-17.3024  2.4983e+21
-17.1851  2.49754e+21
-17.0678  2.46946e+21
-16.9505  2.41867e+21
-16.8332  2.35502e+21
-16.7159  2.2905e+21
-16.5986  2.23699e+21
-16.4813  2.20302e+21
-16.364  2.1923e+21
-16.2466  2.20305e+21
-16.1293  2.22855e+21
-16.012  2.25987e+21
-15.8947  2.28754e+21
-15.7774  2.30477e+21
-15.6601  2.30779e+21
-15.5428  2.29754e+21
-15.4255  2.27803e+21
-15.3082  2.25521e+21
-15.1909  2.2343e+21
-15.0736  2.2191e+21
-14.9563  2.20961e+21
-14.839  2.2031e+21
-14.7217  2.19483e+21
-14.6044  2.17989e+21
-14.4871  2.15451e+21
-14.3698  2.11872e+21
-14.2525  2.07655e+21
-14.1352  2.03471e+21
-14.0178  2.00168e+21
-13.9005  1.98565e+21
-13.7832  1.99156e+21
-13.6659  2.02032e+21
-13.5486  2.06793e+21
-13.4313  2.12655e+21
-13.314  2.18633e+21
-13.1967  2.23831e+21
-13.0794  2.27613e+21
-12.9621  2.29815e+21
-12.8448  2.30757e+21
-12.7275  2.31232e+21
-12.6102  2.32154e+21
-12.4929  2.34446e+21
-12.3756  2.38841e+21
-12.2583  2.45615e+21
-12.141  2.54748e+21
-12.0237  2.65855e+21
-11.9064  2.78492e+21
-11.7891  2.92187e+21
-11.6718  3.06777e+21
-11.5544  3.22277e+21
-11.4371  3.38897e+21
-11.3198  3.57036e+21
-11.2025  3.76971e+21
-11.0852  3.98818e+21
-10.9679  4.22376e+21
-10.8506  4.47254e+21
-10.7333  4.7293e+21
-10.616  4.98815e+21
-10.4987  5.24506e+21
-10.3814  5.4989e+21
-10.2641  5.75128e+21
-10.1468  6.00585e+21
-10.0295  6.26738e+21
-9.91217  6.53972e+21
-9.79487  6.82465e+21
-9.67756  7.12079e+21
-9.56026  7.42513e+21
-9.44295  7.73202e+21
-9.32565  8.03654e+21
-9.20834  8.33629e+21
-9.09104  8.63074e+21
-8.97373  8.92377e+21
-8.85643  9.22227e+21
-8.73913  9.53406e+21
-8.62182  9.86536e+21
-8.50452  1.022e+22
-8.38721  1.0597e+22
-8.26991  1.09891e+22
-8.1526  1.13871e+22
-8.03529  1.17774e+22
-7.91799  1.2149e+22
-7.80069  1.24928e+22
-7.68338  1.28065e+22
-7.56608  1.3093e+22
-7.44877  1.33611e+22
-7.33146  1.36225e+22
-7.21416  1.38894e+22
-7.09685  1.4171e+22
-6.97955  1.44708e+22
-6.86224  1.47855e+22
-6.74494  1.51054e+22
-6.62763  1.54179e+22
-6.51033  1.57081e+22
-6.39302  1.5966e+22
-6.27572  1.6186e+22
-6.15842  1.63712e+22
-6.04111  1.65312e+22
-5.92381  1.66828e+22
-5.8065  1.68445e+22
-5.68919  1.70346e+22
-5.57189  1.72673e+22
-5.45458  1.75524e+22
-5.33728  1.78911e+22
-5.21997  1.82813e+22
-5.10267  1.87162e+22
-4.98536  1.91899e+22
-4.86806  1.96965e+22
-4.75075  2.02347e+22
-4.63345  2.08057e+22
-4.51614  2.1414e+22
-4.39884  2.20642e+22
-4.28154  2.27613e+22
-4.16423  2.35079e+22
-4.04692  2.43015e+22
-3.92962  2.51383e+22
-3.81231  2.60117e+22
-3.69501  2.69139e+22
-3.5777  2.78381e+22
-3.4604  2.87798e+22
-3.34309  2.97376e+22
-3.22579  3.07134e+22
-3.10849  3.1712e+22
-2.99118  3.2738e+22
-2.87387  3.37981e+22
-2.75657  3.4896e+22
-2.63926  3.60319e+22
-2.52196  3.7203e+22
-2.40465  3.84021e+22
-2.28735  3.96189e+22
-2.17005  4.08391e+22
-2.05274  4.20475e+22
-1.93544  4.32279e+22
-1.81813  4.4366e+22
-1.70083  4.5449e+22
-1.58352  4.64668e+22
-1.46622  4.74122e+22
-1.34891  4.82803e+22
-1.2316  4.90707e+22
-1.1143  4.97817e+22
-0.996995  5.04158e+22
-0.87969  5.09743e+22
-0.762385  5.14586e+22
-0.64508  5.18723e+22
-0.527775  5.22158e+22
-0.41047  5.24914e+22
-0.293165  5.26998e+22
-0.17586  5.28421e+22
-0.058555  5.29181e+22
0.05875  5.29283e+22
0.176055  5.28705e+22
0.29336  5.27465e+22
0.410665  5.2552e+22
0.52797  5.22877e+22
0.645275  5.19525e+22
0.76258  5.15451e+22
0.879885  5.1064e+22
0.99719  5.0509e+22
1.1145  4.98782e+22
1.2318  4.9171e+22
1.3491  4.8385e+22
1.46641  4.75224e+22
1.58371  4.65836e+22
1.70102  4.55732e+22
1.81832  4.44985e+22
1.93563  4.33691e+22
2.05294  4.21985e+22
2.17024  4.10009e+22
2.28754  3.97923e+22
2.40485  3.85869e+22
2.52216  3.73988e+22
2.63946  3.62371e+22
2.75677  3.51089e+22
2.87407  3.40151e+22
2.99137  3.29544e+22
3.10868  3.19225e+22
3.22599  3.09137e+22
3.34329  2.99236e+22
3.4606  2.89475e+22
3.5779  2.79869e+22
3.69521  2.70439e+22
3.81251  2.61239e+22
3.92982  2.5236e+22
4.04712  2.43879e+22
4.16443  2.35862e+22
4.28173  2.28354e+22
4.39903  2.21358e+22
4.51634  2.1485e+22
4.63364  2.0878e+22
4.75095  2.03092e+22
4.86825  1.97739e+22
4.98556  1.92705e+22
5.10286  1.8801e+22
5.22017  1.83697e+22
5.33748  1.79837e+22
5.45478  1.76476e+22
5.57209  1.73639e+22
5.68939  1.71295e+22
5.8067  1.69348e+22
5.924  1.67656e+22
6.0413  1.66043e+22
6.15861  1.64326e+22
6.27591  1.62355e+22
6.39322  1.6005e+22
6.51052  1.57386e+22
6.62783  1.5443e+22
6.74514  1.51287e+22
6.86244  1.48104e+22
6.97975  1.44996e+22
7.09705  1.42051e+22
7.21436  1.39287e+22
7.33166  1.36656e+22
7.44897  1.34068e+22
7.56627  1.31395e+22
7.68358  1.28528e+22
7.80088  1.25378e+22
7.91819  1.21926e+22
8.03549  1.18207e+22
8.1528  1.1431e+22
8.2701  1.10345e+22
8.38741  1.0644e+22
8.50471  1.02694e+22
8.62202  9.91628e+21
8.73932  9.58544e+21
8.85662  9.27311e+21
8.97393  8.97347e+21
9.09123  8.6789e+21
9.20854  8.38316e+21
9.32584  8.08305e+21
9.44315  7.77859e+21
9.56045  7.47269e+21
9.67776  7.16976e+21
9.79506  6.87441e+21
9.91237  6.58977e+21
10.0297  6.31605e+21
10.147  6.05119e+21
10.2643  5.79181e+21
10.3816  5.53348e+21
10.4989  5.27338e+21
10.6162  5.01062e+21
10.7335  4.74685e+21
10.8508  4.48658e+21
10.9681  4.23548e+21
11.0854  3.99863e+21
11.2027  3.77975e+21
11.32  3.57992e+21
11.4373  3.3979e+21
11.5546  3.23062e+21
11.6719  3.07496e+21
11.7893  2.9284e+21
11.9066  2.79116e+21
12.0239  2.66627e+21
12.1412  2.55771e+21
12.2585  2.46989e+21
12.3758  2.40602e+21
12.4931  2.36565e+21
12.6104  2.34496e+21
12.7277  2.33639e+21
12.845  2.33e+21
12.9623  2.31708e+21
13.0796  2.2903e+21
13.1969  2.24736e+21
13.3142  2.19054e+21
13.4315  2.12708e+21
13.5488  2.06631e+21
13.6661  2.01812e+21
13.7834  1.98982e+21
13.9007  1.98477e+21
14.018  2.00173e+21
14.1354  2.0349e+21
14.2527  2.07601e+21
14.37  2.11686e+21
14.4873  2.15094e+21
14.6046  2.17502e+21
14.7219  2.18989e+21
14.8392  2.19891e+21
14.9565  2.20749e+21
15.0738  2.21971e+21
15.1911  2.23795e+21
15.3084  2.26121e+21
15.4257  2.28527e+21
15.543  2.30436e+21
15.6603  2.3129e+21
15.7776  2.30722e+21
15.8949  2.28735e+21
16.0122  2.25767e+21
16.1295  2.22601e+21
16.2468  2.20207e+21
16.3641  2.19493e+21
16.4815  2.21015e+21
16.5988  2.24869e+21
16.7161  2.30572e+21
16.8334  2.37214e+21
16.9507  2.43514e+21
17.068  2.48306e+21
17.1853  2.50626e+21
17.3026  2.50138e+21
17.4199  2.4708e+21
17.5372  2.42316e+21
17.6545  2.36985e+21
17.7718  2.32418e+21
17.8891  2.29666e+21
18.0064  2.29204e+21
18.1237  2.31008e+21
18.241  2.34452e+21
18.3583  2.38506e+21
18.4756  2.42063e+21
18.5929  2.44209e+21
18.7102  2.44475e+21
18.8275  2.42911e+21
18.9449  2.40126e+21
19.0622  2.37006e+21
19.1795  2.34541e+21
19.2968  2.33541e+21
19.4141  2.34382e+21
19.5314  2.36962e+21
19.6487  2.40758e+21
19.766  2.44907e+21
19.8833  2.48522e+21
20.0006  2.50829e+21
20.1179  2.51364e+21
20.2352  2.50104e+21
20.3525  2.47345e+21
20.4698  2.43654e+21
20.5871  2.39638e+21
20.7044  2.35874e+21
20.8217  2.32741e+21
20.939  2.30329e+21
21.0563  2.28559e+21
21.1736  2.27133e+21
21.291  2.25756e+21
21.4083  2.24117e+21
21.5256  2.22067e+21
21.6429  2.19486e+21
21.7602  2.16542e+21
21.8775  2.1334e+21
21.9948  2.10092e+21
22.1121  2.06989e+21
22.2294  2.04182e+21
22.3467  2.01697e+21
22.464  1.99503e+21
22.5813  1.97504e+21
22.6986  1.95501e+21
22.8159  1.93307e+21
22.9332  1.90725e+21
23.0505  1.87606e+21
23.1678  1.83831e+21
23.2851  1.79417e+21
23.4024  1.74412e+21
23.5198  1.68987e+21
23.6371  1.63371e+21
23.7544  1.57807e+21
23.8717  1.52571e+21
23.989  1.47865e+21
24.1063  1.43883e+21
24.2236  1.4068e+21
24.3409  1.38257e+21
24.4582  1.36532e+21
24.5755  1.35291e+21
24.6928  1.34319e+21
24.8101  1.33301e+21
24.9274  1.31981e+21
25.0447  1.30091e+21
25.162  1.27491e+21
25.2793  1.24144e+21
25.3966  1.20171e+21
25.5139  1.15829e+21
25.6312  1.11509e+21
25.7485  1.07696e+21
25.8658  1.0485e+21
25.9832  1.03366e+21
26.1005  1.035e+21
26.2178  1.05293e+21
26.3351  1.08545e+21
26.4524  1.12926e+21
26.5697  1.17878e+21
26.687  1.22835e+21
26.8043  1.27273e+21
26.9216  1.30789e+21
27.0389  1.33187e+21
27.1562  1.34515e+21
27.2735  1.35041e+21
27.3908  1.35211e+21
27.5081  1.35521e+21
27.6254  1.36458e+21
27.7427  1.38322e+21
27.86  1.41183e+21
27.9773  1.44825e+21
28.0946  1.48789e+21
28.212  1.52469e+21
28.3293  1.55214e+21
28.4466  1.5653e+21
28.5639  1.56199e+21
28.6812  1.54324e+21
28.7985  1.5142e+21
28.9158  1.48169e+21
29.0331  1.45358e+21
29.1504  1.43712e+21
29.2677  1.43551e+21
29.385  1.44901e+21
29.5023  1.47272e+21
29.6196  1.49959e+21
29.7369  1.52136e+21
29.8542  1.53104e+21
29.9715  1.52478e+21
30.0888  1.50366e+21
30.2061  1.47281e+21
30.3234  1.44074e+21
30.4407  1.41674e+21
30.558  1.40873e+21
30.6754  1.42078e+21
30.7927  1.45273e+21
30.91  1.49947e+21
31.0273  1.55319e+21
31.1446  1.60539e+21
31.2619  1.64927e+21
31.3792  1.68109e+21
31.4965  1.70173e+21
31.6138  1.71554e+21
31.7311  1.72897e+21
31.8484  1.74849e+21
31.9657  1.77857e+21
32.083  1.8199e+21
32.2003  1.86952e+21
32.3176  1.92166e+21
32.4349  1.96883e+21
32.5522  2.00445e+21
32.6695  2.02484e+21
32.7868  2.02985e+21
32.9042  2.02333e+21
33.0215  2.01215e+21
33.1388  2.00418e+21
33.2561  2.00659e+21
33.3734  2.0236e+21
33.4907  2.05604e+21
33.608  2.10073e+21
33.7253  2.15123e+21
33.8426  2.20022e+21
33.9599  2.23979e+21
34.0772  2.26507e+21
34.1945  2.27295e+21
34.3118  2.2643e+21
34.4291  2.24265e+21
34.5464  2.21268e+21
34.6637  2.17915e+21
34.781  2.14655e+21
34.8983  2.11673e+21
35.0156  2.09033e+21
35.1329  2.06653e+21
35.2503  2.04387e+21
35.3676  2.02103e+21
35.4849  1.99791e+21
35.6022  1.97496e+21
35.7195  1.9534e+21
35.8368  1.93438e+21
35.9541  1.91797e+21
36.0714  1.90307e+21
36.1887  1.88675e+21
36.306  1.86528e+21
36.4233  1.83544e+21
36.5406  1.79503e+21
36.6579  1.74435e+21
36.7752  1.68656e+21
36.8925  1.6268e+21
37.0098  1.57207e+21
37.1271  1.52818e+21
37.2444  1.49903e+21
37.3617  1.48544e+21
37.479  1.48421e+21
37.5964  1.48943e+21
37.7137  1.49372e+21
37.831  1.49046e+21
37.9483  1.47579e+21
38.0656  1.44923e+21
38.1829  1.41497e+21
38.3002  1.37966e+21
38.4175  1.35103e+21
38.5348  1.33643e+21
38.6521  1.33923e+21
38.7694  1.35944e+21
38.8867  1.39237e+21
39.004  1.43048e+21
39.1213  1.46547e+21
39.2386  1.4898e+21
39.3559  1.49913e+21
39.4732  1.49339e+21
39.5905  1.47633e+21
39.7078  1.45484e+21
39.8251  1.4366e+21
39.9425  1.42849e+21
40.0598  1.43428e+21
40.1771  1.45424e+21
40.2944  1.48442e+21
40.4117  1.51842e+21
40.529  1.54828e+21
40.6463  1.56697e+21
40.7636  1.56995e+21
40.8809  1.5558e+21
40.9982  1.5265e+21
41.1155  1.4874e+21
41.2328  1.44487e+21
41.3501  1.40514e+21
41.4674  1.37291e+21
41.5847  1.34959e+21
41.702  1.33439e+21
41.8193  1.32339e+21
41.9366  1.31172e+21
42.0539  1.29518e+21
42.1712  1.27114e+21
42.2885  1.23974e+21
42.4059  1.20408e+21
42.5232  1.1698e+21
42.6405  1.14305e+21
42.7578  1.12933e+21
42.8751  1.13177e+21
42.9924  1.15005e+21
43.1097  1.18012e+21
43.227  1.21567e+21
43.3443  1.2486e+21
43.4616  1.27226e+21
43.5789  1.28202e+21
43.6962  1.27726e+21
43.8135  1.26107e+21
43.9308  1.23955e+21
44.0481  1.22018e+21
44.1654  1.2101e+21
44.2827  1.21431e+21
44.4  1.23446e+21
44.5173  1.26887e+21
44.6347  1.31291e+21
44.752  1.36054e+21
44.8693  1.40599e+21
44.9866  1.4448e+21
45.1039  1.47501e+21
45.2212  1.49707e+21
45.3385  1.51375e+21
45.4558  1.52887e+21
45.5731  1.54558e+21
45.6904  1.56624e+21
45.8077  1.59157e+21
45.925  1.62019e+21
46.0423  1.64983e+21
46.1596  1.67741e+21
46.2769  1.70018e+21
46.3942  1.71708e+21
46.5115  1.7277e+21
46.6288  1.73378e+21
46.7461  1.73814e+21
46.8634  1.74401e+21
46.9808  1.7539e+21
47.0981  1.76981e+21
47.2154  1.79167e+21
47.3327  1.81806e+21
47.45  1.84601e+21
47.5673  1.87139e+21
47.6846  1.89024e+21
47.8019  1.89892e+21
47.9192  1.89577e+21
48.0365  1.88013e+21
48.1538  1.85424e+21
48.2711  1.82097e+21
48.3884  1.78486e+21
48.5057  1.75001e+21
48.623  1.72006e+21
48.7403  1.69726e+21
48.8576  1.68243e+21
48.9749  1.67518e+21
49.0922  1.67342e+21
49.2095  1.67491e+21
49.3269  1.6775e+21
49.4442  1.67866e+21
49.5615  1.67695e+21
49.6788  1.67061e+21
49.7961  1.65918e+21
49.9134  1.64144e+21
50.0307  1.61769e+21
50.148  1.5886e+21
50.2653  1.55544e+21
50.3826  1.52078e+21
50.4999  1.48833e+21
50.6172  1.46198e+21
50.7345  1.44611e+21
50.8518  1.4437e+21
50.9691  1.45605e+21
