#S 1 spectral density
#N 2
#UFWHM 4.34029
#L  abscissas [um]  spectral density
-58.5938  1.31752e+21
-58.4764  1.26402e+21
-58.3591  1.19976e+21
-58.2418  1.13221e+21
-58.1245  1.06952e+21
-58.0072  1.01993e+21
-57.8899  9.91131e+20
-57.7726  9.88698e+20
-57.6553  1.01506e+21
-57.538  1.06643e+21
-57.4207  1.13439e+21
-57.3034  1.20463e+21
-57.1861  1.26113e+21
-57.0688  1.28861e+21
-56.9515  1.27719e+21
-56.8342  1.22504e+21
-56.7169  1.1397e+21
-56.5996  1.03736e+21
-56.4823  9.39354e+20
-56.365  8.67426e+20
-56.2477  8.37932e+20
-56.1303  8.57895e+20
-56.013  9.22521e+20
-55.8957  1.01607e+21
-55.7784  1.11522e+21
-55.6611  1.195e+21
-55.5438  1.23471e+21
-55.4265  1.22336e+21
-55.3092  1.16311e+21
-55.1919  1.06765e+21
-55.0746  9.59731e+20
-54.9573  8.64954e+20
-54.84  8.0466e+20
-54.7227  7.90883e+20
-54.6054  8.22841e+20
-54.4881  8.87942e+20
-54.3708  9.64876e+20
-54.2535  1.03054e+21
-54.1362  1.06587e+21
-54.0189  1.06165e+21
-53.9016  1.02072e+21
-53.7842  9.56883e+20
-53.6669  8.90409e+20
-53.5496  8.42039e+20
-53.4323  8.26965e+20
-53.315  8.50515e+20
-53.1977  9.07139e+20
-53.0804  9.82193e+20
-52.9631  1.05749e+21
-52.8458  1.11623e+21
-52.7285  1.14823e+21
-52.6112  1.15224e+21
-52.4939  1.13527e+21
-52.3766  1.10942e+21
-52.2593  1.0873e+21
-52.142  1.07735e+21
-52.0247  1.08148e+21
-51.9074  1.09517e+21
-51.7901  1.10998e+21
-51.6728  1.11739e+21
-51.5555  1.11255e+21
-51.4381  1.09691e+21
-51.3208  1.07772e+21
-51.2035  1.06497e+21
-51.0862  1.06744e+21
-50.9689  1.0881e+21
-50.8516  1.12279e+21
-50.7343  1.15951e+21
-50.617  1.18262e+21
-50.4997  1.17782e+21
-50.3824  1.13753e+21
-50.2651  1.06465e+21
-50.1478  9.73193e+20
-50.0305  8.84609e+20
-49.9132  8.22281e+20
-49.7959  8.04709e+20
-49.6786  8.38944e+20
-49.5613  9.18413e+20
-49.444  1.02408e+21
-49.3267  1.12905e+21
-49.2094  1.20648e+21
-49.092  1.23661e+21
-48.9747  1.21304e+21
-48.8574  1.14376e+21
-48.7401  1.04957e+21
-48.6228  9.5777e+20
-48.5055  8.95174e+20
-48.3882  8.80108e+20
-48.2709  9.19159e+20
-48.1536  1.00459e+21
-48.0363  1.11792e+21
-47.919  1.23521e+21
-47.8017  1.33339e+21
-47.6844  1.39622e+21
-47.5671  1.41766e+21
-47.4498  1.40272e+21
-47.3325  1.36422e+21
-47.2152  1.31937e+21
-47.0979  1.28422e+21
-46.9806  1.26938e+21
-46.8633  1.27869e+21
-46.7459  1.30831e+21
-46.6286  1.34986e+21
-46.5113  1.39289e+21
-46.394  1.42828e+21
-46.2767  1.45041e+21
-46.1594  1.45877e+21
-46.0421  1.45617e+21
-45.9248  1.44766e+21
-45.8075  1.43733e+21
-45.6902  1.42786e+21
-45.5729  1.41834e+21
-45.4556  1.4062e+21
-45.3383  1.38794e+21
-45.221  1.36154e+21
-45.1037  1.32802e+21
-44.9864  1.29186e+21
-44.8691  1.26025e+21
-44.7518  1.24084e+21
-44.6345  1.23903e+21
-44.5172  1.25544e+21
-44.3998  1.28509e+21
-44.2825  1.3179e+21
-44.1652  1.34131e+21
-44.0479  1.34435e+21
-43.9306  1.32092e+21
-43.8133  1.27326e+21
-43.696  1.21139e+21
-43.5787  1.15232e+21
-43.4614  1.1146e+21
-43.3441  1.11318e+21
-43.2268  1.15468e+21
-43.1095  1.23451e+21
-42.9922  1.33694e+21
-42.8749  1.4391e+21
-42.7576  1.51628e+21
-42.6403  1.54949e+21
-42.523  1.53059e+21
-42.4057  1.46514e+21
-42.2884  1.37129e+21
-42.171  1.27619e+21
-42.0537  1.20761e+21
-41.9364  1.18828e+21
-41.8191  1.22888e+21
-41.7018  1.32569e+21
-41.5845  1.46175e+21
-41.4672  1.61128e+21
-41.3499  1.74565e+21
-41.2326  1.84119e+21
-41.1153  1.88267e+21
-40.998  1.86804e+21
-40.8807  1.80635e+21
-40.7634  1.71528e+21
-40.6461  1.61658e+21
-40.5288  1.53151e+21
-40.4115  1.47598e+21
-40.2942  1.45902e+21
-40.1769  1.48154e+21
-40.0596  1.5374e+21
-39.9423  1.61487e+21
-39.825  1.69947e+21
-39.7076  1.77562e+21
-39.5903  1.82983e+21
-39.473  1.85176e+21
-39.3557  1.83734e+21
-39.2384  1.78775e+21
-39.1211  1.71179e+21
-39.0038  1.62318e+21
-38.8865  1.53904e+21
-38.7692  1.47604e+21
-38.6519  1.44748e+21
-38.5346  1.45833e+21
-38.4173  1.50497e+21
-38.3  1.57443e+21
-38.1827  1.64735e+21
-38.0654  1.70235e+21
-37.9481  1.72131e+21
-37.8308  1.69456e+21
-37.7135  1.62315e+21
-37.5962  1.5196e+21
-37.4789  1.40493e+21
-37.3615  1.30324e+21
-37.2442  1.23621e+21
-37.1269  1.21749e+21
-37.0096  1.24864e+21
-36.8923  1.31944e+21
-36.775  1.40995e+21
-36.6577  1.4951e+21
-36.5404  1.55137e+21
-36.4231  1.56168e+21
-36.3058  1.51976e+21
-36.1885  1.4313e+21
-36.0712  1.31209e+21
-35.9539  1.18439e+21
-35.8366  1.07252e+21
-35.7193  9.97089e+20
-35.602  9.70808e+20
-35.4847  9.96859e+20
-35.3674  1.06862e+21
-35.2501  1.17162e+21
-35.1328  1.28745e+21
-35.0154  1.39681e+21
-34.8981  1.48417e+21
-34.7808  1.53958e+21
-34.6635  1.56065e+21
-34.5462  1.55141e+21
-34.4289  1.52147e+21
-34.3116  1.48318e+21
-34.1943  1.44908e+21
-34.077  1.4298e+21
-33.9597  1.43227e+21
-33.8424  1.45827e+21
-33.7251  1.5055e+21
-33.6078  1.56673e+21
-33.4905  1.63231e+21
-33.3732  1.69088e+21
-33.2559  1.7304e+21
-33.1386  1.74122e+21
-33.0213  1.71658e+21
-32.904  1.65488e+21
-32.7867  1.56002e+21
-32.6693  1.44196e+21
-32.552  1.31571e+21
-32.4347  1.19886e+21
-32.3174  1.1081e+21
-32.2001  1.05592e+21
-32.0828  1.04683e+21
-31.9655  1.07544e+21
-31.8482  1.12704e+21
-31.7309  1.18e+21
-31.6136  1.21125e+21
-31.4963  1.20176e+21
-31.379  1.14206e+21
-31.2617  1.03618e+21
-31.1444  9.00648e+20
-31.0271  7.62458e+20
-30.9098  6.51474e+20
-30.7925  5.93477e+20
-30.6752  6.02512e+20
-30.5579  6.77561e+20
-30.4406  8.01604e+20
-30.3232  9.45929e+20
-30.2059  1.07758e+21
-30.0886  1.16775e+21
-29.9713  1.19885e+21
-29.854  1.16968e+21
-29.7367  1.09439e+21
-29.6194  9.98487e+20
-29.5021  9.11674e+20
-29.3848  8.59731e+20
-29.2675  8.5746e+20
-29.1502  9.05445e+20
-29.0329  9.90367e+20
-28.9156  1.08912e+21
-28.7983  1.17573e+21
-28.681  1.22732e+21
-28.5637  1.23041e+21
-28.4464  1.18281e+21
-28.3291  1.09411e+21
-28.2118  9.81126e+20
-28.0944  8.64341e+20
-27.9771  7.62711e+20
-27.8598  6.89844e+20
-27.7425  6.5229e+20
-27.6252  6.49191e+20
-27.5079  6.74318e+20
-27.3906  7.17814e+20
-27.2733  7.68431e+20
-27.156  8.15526e+20
-27.0387  8.50259e+20
-26.9214  8.66269e+20
-26.8041  8.60128e+20
-26.6868  8.31704e+20
-26.5695  7.84428e+20
-26.4522  7.25447e+20
-26.3349  6.64832e+20
-26.2176  6.14596e+20
-26.1003  5.86649e+20
-25.983  5.90267e+20
-25.8657  6.29794e+20
-25.7483  7.03209e+20
-25.631  8.01508e+20
-25.5137  9.10045e+20
-25.3964  1.01113e+21
-25.2791  1.08787e+21
-25.1618  1.12798e+21
-25.0445  1.12631e+21
-24.9272  1.0868e+21
-24.8099  1.02167e+21
-24.6926  9.48921e+20
-24.5753  8.8837e+20
-24.458  8.56527e+20
-24.3407  8.63555e+20
-24.2234  9.09952e+20
-24.1061  9.86686e+20
-23.9888  1.07683e+21
-23.8715  1.15967e+21
-23.7542  1.21541e+21
-23.6369  1.23045e+21
-23.5196  1.19957e+21
-23.4023  1.12891e+21
-23.2849  1.03403e+21
-23.1676  9.3565e+20
-23.0503  8.56182e+20
-22.933  8.13615e+20
-22.8157  8.18037e+20
-22.6984  8.69384e+20
-22.5811  9.58001e+20
-22.4638  1.06738e+21
-22.3465  1.1781e+21
-22.2292  1.27319e+21
-22.1119  1.34081e+21
-21.9946  1.37723e+21
-21.8773  1.38595e+21
-21.76  1.37664e+21
-21.6427  1.36131e+21
-21.5254  1.35143e+21
-21.4081  1.3555e+21
-21.2908  1.37737e+21
-21.1735  1.41631e+21
-21.0561  1.46765e+21
-20.9388  1.5246e+21
-20.8215  1.57861e+21
-20.7042  1.62259e+21
-20.5869  1.64964e+21
-20.4696  1.65483e+21
-20.3523  1.63586e+21
-20.235  1.59339e+21
-20.1177  1.53222e+21
-20.0004  1.4611e+21
-19.8831  1.39218e+21
-19.7658  1.33937e+21
-19.6485  1.31509e+21
-19.5312  1.32708e+21
-19.4139  1.37573e+21
-19.2966  1.45178e+21
-19.1793  1.53833e+21
-19.062  1.6132e+21
-18.9447  1.65507e+21
-18.8274  1.6487e+21
-18.71  1.59068e+21
-18.5927  1.49106e+21
-18.4754  1.37254e+21
-18.3581  1.26517e+21
-18.2408  1.19951e+21
-18.1235  1.19844e+21
-18.0062  1.27087e+21
-17.8889  1.40892e+21
-17.7716  1.58947e+21
-17.6543  1.77936e+21
-17.537  1.94417e+21
-17.4197  2.05613e+21
-17.3024  2.1011e+21
-17.1851  2.0815e+21
-17.0678  2.01495e+21
-16.9505  1.92893e+21
-16.8332  1.85293e+21
-16.7159  1.81108e+21
-16.5986  1.81594e+21
-16.4813  1.86643e+21
-16.364  1.94886e+21
-16.2466  2.04155e+21
-16.1293  2.12087e+21
-16.012  2.16852e+21
-15.8947  2.17444e+21
-15.7774  2.139e+21
-15.6601  2.07305e+21
-15.5428  1.99204e+21
-15.4255  1.91312e+21
-15.3082  1.85014e+21
-15.1909  1.81016e+21
-15.0736  1.7935e+21
-14.9563  1.7935e+21
-14.839  1.79984e+21
-14.7217  1.80146e+21
-14.6044  1.78961e+21
-14.4871  1.75926e+21
-14.3698  1.70964e+21
-14.2525  1.64472e+21
-14.1352  1.57018e+21
-14.0178  1.49267e+21
-13.9005  1.41889e+21
-13.7832  1.35456e+21
-13.6659  1.30422e+21
-13.5486  1.27199e+21
-13.4313  1.26165e+21
-13.314  1.27633e+21
-13.1967  1.31737e+21
-13.0794  1.38381e+21
-12.9621  1.47029e+21
-12.8448  1.56744e+21
-12.7275  1.6616e+21
-12.6102  1.73803e+21
-12.4929  1.7827e+21
-12.3756  1.78736e+21
-12.2583  1.7509e+21
-12.141  1.68197e+21
-12.0237  1.5973e+21
-11.9064  1.51802e+21
-11.7891  1.46503e+21
-11.6718  1.45336e+21
-11.5544  1.4874e+21
-11.4371  1.55938e+21
-11.3198  1.65106e+21
-11.2025  1.73822e+21
-11.0852  1.7974e+21
-10.9679  1.81328e+21
-10.8506  1.78277e+21
-10.7333  1.71703e+21
-10.616  1.63858e+21
-10.4987  1.57518e+21
-10.3814  1.55212e+21
-10.2641  1.58395e+21
-10.1468  1.67116e+21
-10.0295  1.79867e+21
-9.91217  1.94156e+21
-9.79487  2.07101e+21
-9.67756  2.16415e+21
-9.56026  2.21169e+21
-9.44295  2.22045e+21
-9.32565  2.213e+21
-9.20834  2.22174e+21
-9.09104  2.28087e+21
-8.97373  2.41628e+21
-8.85643  2.63907e+21
-8.73913  2.9432e+21
-8.62182  3.30615e+21
-8.50452  3.69497e+21
-8.38721  4.07474e+21
-8.26991  4.41574e+21
-8.1526  4.69953e+21
-8.03529  4.9213e+21
-7.91799  5.08728e+21
-7.80069  5.21047e+21
-7.68338  5.30673e+21
-7.56608  5.38651e+21
-7.44877  5.4545e+21
-7.33146  5.5085e+21
-7.21416  5.54183e+21
-7.09685  5.54719e+21
-6.97955  5.52024e+21
-6.86224  5.46299e+21
-6.74494  5.38234e+21
-6.62763  5.29099e+21
-6.51033  5.20248e+21
-6.39302  5.12932e+21
-6.27572  5.07914e+21
-6.15842  5.05486e+21
-6.04111  5.0531e+21
-5.92381  5.06852e+21
-5.8065  5.09469e+21
-5.68919  5.12674e+21
-5.57189  5.16266e+21
-5.45458  5.20277e+21
-5.33728  5.24957e+21
-5.21997  5.30466e+21
-5.10267  5.36874e+21
-4.98536  5.43906e+21
-4.86806  5.5123e+21
-4.75075  5.58513e+21
-4.63345  5.65628e+21
-4.51614  5.73115e+21
-4.39884  5.821e+21
-4.28154  5.94311e+21
-4.16423  6.12005e+21
-4.04692  6.37279e+21
-3.92962  6.71889e+21
-3.81231  7.16617e+21
-3.69501  7.71163e+21
-3.5777  8.33977e+21
-3.4604  9.02684e+21
-3.34309  9.74476e+21
-3.22579  1.04675e+22
-3.10849  1.11763e+22
-2.99118  1.18627e+22
-2.87387  1.25317e+22
-2.75657  1.3198e+22
-2.63926  1.38798e+22
-2.52196  1.45976e+22
-2.40465  1.53662e+22
-2.28735  1.61923e+22
-2.17005  1.70734e+22
-2.05274  1.80012e+22
-1.93544  1.89645e+22
-1.81813  1.99533e+22
-1.70083  2.09611e+22
-1.58352  2.19892e+22
-1.46622  2.30401e+22
-1.34891  2.41177e+22
-1.2316  2.52227e+22
-1.1143  2.63473e+22
-0.996995  2.7474e+22
-0.87969  2.85776e+22
-0.762385  2.96265e+22
-0.64508  3.05863e+22
-0.527775  3.14279e+22
-0.41047  3.21252e+22
-0.293165  3.26613e+22
-0.17586  3.30253e+22
-0.058555  3.3212e+22
0.05875  3.32186e+22
0.176055  3.30455e+22
0.29336  3.26932e+22
0.410665  3.21673e+22
0.52797  3.14778e+22
0.645275  3.06423e+22
0.76258  2.96853e+22
0.879885  2.86388e+22
0.99719  2.75355e+22
1.1145  2.64084e+22
1.2318  2.52826e+22
1.3491  2.41762e+22
1.46641  2.30956e+22
1.58371  2.20409e+22
1.70102  2.10103e+22
1.81832  1.99989e+22
1.93563  1.9008e+22
2.05294  1.80436e+22
2.17024  1.71167e+22
2.28754  1.62383e+22
2.40485  1.54161e+22
2.52216  1.46517e+22
2.63946  1.39376e+22
2.75677  1.32589e+22
2.87407  1.25935e+22
2.99137  1.19229e+22
3.10868  1.12319e+22
3.22599  1.05177e+22
3.34329  9.78864e+21
3.4606  9.06363e+21
3.5779  8.37047e+21
3.69521  7.73735e+21
3.81251  7.18844e+21
3.92982  6.73829e+21
4.04712  6.39026e+21
4.16443  6.13554e+21
4.28173  5.95626e+21
4.39903  5.83128e+21
4.51634  5.7385e+21
4.63364  5.66046e+21
4.75095  5.58652e+21
4.86825  5.51147e+21
4.98556  5.43759e+21
5.10286  5.36754e+21
5.22017  5.30457e+21
5.33748  5.25121e+21
5.45478  5.20626e+21
5.57209  5.16696e+21
5.68939  5.13131e+21
5.8067  5.0986e+21
5.924  5.07057e+21
6.0413  5.05275e+21
6.15861  5.05224e+21
6.27591  5.07504e+21
6.39322  5.124e+21
6.51052  5.197e+21
6.62783  5.28583e+21
6.74514  5.37857e+21
6.86244  5.46107e+21
6.97975  5.52106e+21
7.09705  5.55021e+21
7.21436  5.54734e+21
7.33166  5.51691e+21
7.44897  5.46531e+21
7.56627  5.39923e+21
7.68358  5.32115e+21
7.80088  5.22513e+21
7.91819  5.10109e+21
8.03549  4.93345e+21
8.1528  4.70891e+21
8.2701  4.42177e+21
8.38741  4.07774e+21
8.50471  3.69593e+21
8.62202  3.30624e+21
8.73932  2.94407e+21
8.85662  2.64216e+21
8.97393  2.42248e+21
9.09123  2.29069e+21
9.20854  2.23455e+21
9.32584  2.22743e+21
9.44315  2.23508e+21
9.56045  2.2247e+21
9.67776  2.17448e+21
9.79506  2.07775e+21
9.91237  1.94484e+21
10.0297  1.79921e+21
10.147  1.66988e+21
10.2643  1.58222e+21
10.3816  1.55086e+21
10.4989  1.57513e+21
10.6162  1.63947e+21
10.7335  1.71865e+21
10.8508  1.78441e+21
10.9681  1.81431e+21
11.0854  1.79724e+21
11.2027  1.73651e+21
11.32  1.64827e+21
11.4373  1.55597e+21
11.5546  1.48396e+21
11.6719  1.45057e+21
11.7893  1.46341e+21
11.9066  1.51755e+21
12.0239  1.598e+21
12.1412  1.68351e+21
12.2585  1.75254e+21
12.3758  1.78836e+21
12.4931  1.78257e+21
12.6104  1.73615e+21
12.7277  1.65771e+21
12.845  1.56153e+21
12.9623  1.4627e+21
13.0796  1.37513e+21
13.1969  1.30869e+21
13.3142  1.26855e+21
13.4315  1.25578e+21
13.5488  1.26891e+21
13.6661  1.30424e+21
13.7834  1.35757e+21
13.9007  1.42429e+21
14.018  1.49933e+21
14.1354  1.57652e+21
14.2527  1.6495e+21
14.37  1.71187e+21
14.4873  1.75819e+21
14.6046  1.78576e+21
14.7219  1.79578e+21
14.8392  1.79377e+21
14.9565  1.78846e+21
15.0738  1.79105e+21
15.1911  1.81083e+21
15.3084  1.85355e+21
15.4257  1.91852e+21
15.543  1.99766e+21
15.6603  2.07699e+21
15.7776  2.13983e+21
15.8949  2.17098e+21
16.0122  2.16128e+21
16.1295  2.11121e+21
16.2468  2.03103e+21
16.3641  1.94009e+21
16.4815  1.86118e+21
16.5988  1.81537e+21
16.7161  1.81518e+21
16.8334  1.8605e+21
16.9507  1.9376e+21
17.068  2.02202e+21
17.1853  2.08439e+21
17.3026  2.09819e+21
17.4199  2.04722e+21
17.5372  1.93037e+21
17.6545  1.76297e+21
17.7718  1.57322e+21
17.8891  1.39589e+21
18.0064  1.26289e+21
18.1237  1.19648e+21
18.241  1.20303e+21
18.3583  1.27254e+21
18.4756  1.38128e+21
18.5929  1.49881e+21
18.7102  1.59548e+21
18.8275  1.64946e+21
18.9449  1.65181e+21
19.0622  1.60702e+21
19.1795  1.53079e+21
19.2968  1.44444e+21
19.4141  1.36975e+21
19.5314  1.32316e+21
19.6487  1.31297e+21
19.766  1.33866e+21
19.8833  1.39191e+21
20.0006  1.46062e+21
20.1179  1.53126e+21
20.2352  1.59185e+21
20.3525  1.63413e+21
20.4698  1.65335e+21
20.5871  1.64897e+21
20.7044  1.62281e+21
20.8217  1.57955e+21
20.939  1.52557e+21
21.0563  1.4682e+21
21.1736  1.41538e+21
21.291  1.37468e+21
21.4083  1.35082e+21
21.5256  1.34536e+21
21.6429  1.35435e+21
21.7602  1.37006e+21
21.8775  1.38028e+21
21.9948  1.37297e+21
22.1121  1.33819e+21
22.2294  1.27202e+21
22.3467  1.17811e+21
22.464  1.06791e+21
22.5813  9.58918e+20
22.6986  8.70283e+20
22.8159  8.18806e+20
22.9332  8.14437e+20
23.0505  8.57213e+20
23.1678  9.37014e+20
23.2851  1.03553e+21
23.4024  1.13043e+21
23.5198  1.20039e+21
23.6371  1.23013e+21
23.7544  1.21387e+21
23.8717  1.15672e+21
23.989  1.07279e+21
24.1063  9.82225e+20
24.2236  9.06102e+20
24.3409  8.61294e+20
24.4582  8.56768e+20
24.5755  8.91424e+20
24.6928  9.54896e+20
24.8101  1.02967e+21
24.9274  1.09554e+21
25.0447  1.13449e+21
25.162  1.13445e+21
25.2793  1.09151e+21
25.3966  1.01152e+21
25.5139  9.07417e+20
25.6312  7.96805e+20
25.7485  6.97627e+20
25.8658  6.24738e+20
25.9832  5.87149e+20
26.1005  5.86221e+20
26.2178  6.17128e+20
26.3351  6.69932e+20
26.4524  7.32172e+20
26.5697  7.91452e+20
26.687  8.37634e+20
26.8043  8.63886e+20
26.9216  8.67153e+20
27.0389  8.48211e+20
27.1562  8.11063e+20
27.2735  7.62818e+20
27.3908  7.12408e+20
27.5081  6.70542e+20
27.6254  6.48093e+20
27.7427  6.54444e+20
27.86  6.95196e+20
27.9773  7.70309e+20
28.0946  8.72651e+20
28.212  9.8841e+20
28.3293  1.09895e+21
28.4466  1.18405e+21
28.5639  1.22767e+21
28.6812  1.22129e+21
28.7985  1.1676e+21
28.9158  1.08075e+21
29.0331  9.83636e+20
29.1504  9.01964e+20
29.2677  8.58029e+20
29.385  8.64132e+20
29.5023  9.18936e+20
29.6196  1.0069e+21
29.7369  1.10207e+21
29.8542  1.17508e+21
29.9715  1.20083e+21
30.0888  1.16618e+21
30.2061  1.07349e+21
30.3234  9.40492e+20
30.4407  7.96576e+20
30.558  6.74402e+20
30.6754  6.0221e+20
30.7927  5.96115e+20
30.91  6.56669e+20
31.0273  7.68975e+20
31.1446  9.07195e+20
31.2619  1.04145e+21
31.3792  1.14582e+21
31.4965  1.20345e+21
31.6138  1.21139e+21
31.7311  1.1794e+21
31.8484  1.1264e+21
31.9657  1.07568e+21
32.083  1.04828e+21
32.2003  1.05852e+21
32.3176  1.11153e+21
32.4349  1.20261e+21
32.5522  1.31928e+21
32.6695  1.44496e+21
32.7868  1.56219e+21
32.9042  1.65625e+21
33.0215  1.71743e+21
33.1388  1.74154e+21
33.2561  1.7306e+21
33.3734  1.69102e+21
33.4907  1.63261e+21
33.608  1.56703e+21
33.7253  1.50592e+21
33.8426  1.45945e+21
33.9599  1.43433e+21
34.0772  1.4333e+21
34.1945  1.45424e+21
34.3118  1.48985e+21
34.4291  1.52945e+21
34.5464  1.56006e+21
34.6637  1.56888e+21
34.781  1.54642e+21
34.8983  1.48882e+21
35.0156  1.39888e+21
35.1329  1.28721e+21
35.2503  1.16998e+21
35.3676  1.06656e+21
35.4849  9.96077e+20
35.6022  9.72465e+20
35.7195  1.00184e+21
35.8368  1.08039e+21
35.9541  1.19445e+21
36.0714  1.323e+21
36.1887  1.44148e+21
36.306  1.52768e+21
36.4233  1.56615e+21
36.5406  1.55203e+21
36.6579  1.49284e+21
36.7752  1.40618e+21
36.8925  1.31602e+21
37.0098  1.24728e+21
37.1271  1.21962e+21
37.2444  1.24214e+21
37.3617  1.31236e+21
37.479  1.41583e+21
37.5964  1.53039e+21
37.7137  1.63183e+21
37.831  1.69929e+21
37.9483  1.72173e+21
38.0656  1.69872e+21
38.1829  1.64085e+21
38.3002  1.56703e+21
38.4175  1.49842e+21
38.5348  1.45456e+21
38.6521  1.44745e+21
38.7694  1.47978e+21
38.8867  1.54564e+21
39.004  1.6312e+21
39.1213  1.71939e+21
39.2386  1.79324e+21
39.3559  1.83937e+21
39.4732  1.8501e+21
39.5905  1.82483e+21
39.7078  1.76845e+21
39.8251  1.69172e+21
39.9425  1.60841e+21
40.0598  1.53338e+21
40.1771  1.48122e+21
40.2944  1.46247e+21
40.4117  1.48269e+21
40.529  1.54022e+21
40.6463  1.62599e+21
40.7636  1.7237e+21
40.8809  1.81238e+21
40.9982  1.87098e+21
41.1155  1.8824e+21
41.2328  1.83813e+21
41.3501  1.74114e+21
41.4674  1.60671e+21
41.5847  1.45839e+21
41.702  1.32463e+21
41.8193  1.23053e+21
41.9366  1.19237e+21
42.0539  1.21315e+21
42.1712  1.28175e+21
42.2885  1.376e+21
42.4059  1.46772e+21
42.5232  1.5306e+21
42.6405  1.54715e+21
42.7578  1.51236e+21
42.8751  1.43436e+21
42.9924  1.3325e+21
43.1097  1.2312e+21
43.227  1.15287e+21
43.3443  1.11267e+21
43.4616  1.11481e+21
43.5789  1.15259e+21
43.6962  1.2109e+21
43.8135  1.27144e+21
43.9308  1.31779e+21
44.0481  1.34009e+21
44.1654  1.33658e+21
44.2827  1.31336e+21
44.4  1.28116e+21
44.5173  1.25233e+21
44.6347  1.23651e+21
44.752  1.2386e+21
44.8693  1.25781e+21
44.9866  1.28875e+21
45.1039  1.32405e+21
45.2212  1.35684e+21
45.3385  1.38279e+21
45.4558  1.40119e+21
45.5731  1.41391e+21
45.6904  1.42436e+21
45.8077  1.43497e+21
45.925  1.44604e+21
46.0423  1.45508e+21
46.1596  1.45757e+21
46.2769  1.44877e+21
46.3942  1.42606e+21
46.5115  1.39052e+21
46.6288  1.34781e+21
46.7461  1.30707e+21
46.8634  1.27855e+21
46.9808  1.27091e+21
47.0981  1.28697e+21
47.2154  1.32281e+21
47.3327  1.36729e+21
47.45  1.40446e+21
47.5673  1.41727e+21
47.6846  1.39341e+21
47.8019  1.32862e+21
47.9192  1.22955e+21
48.0365  1.11254e+21
48.1538  1.0009e+21
48.2711  9.18315e+20
48.3884  8.82625e+20
48.5057  9.00388e+20
48.623  9.64829e+20
48.7403  1.05663e+21
48.8576  1.14915e+21
48.9749  1.21546e+21
49.0922  1.23541e+21
49.2095  1.20163e+21
49.3269  1.12186e+21
49.4442  1.01602e+21
49.5615  9.11313e+20
49.6788  8.34139e+20
49.7961  8.0303e+20
49.9134  8.23708e+20
50.0307  8.88142e+20
50.148  9.77766e+20
50.2653  1.06896e+21
50.3826  1.14042e+21
50.4999  1.17885e+21
50.6172  1.18194e+21
50.7345  1.15764e+21
50.8518  1.12056e+21
