#S 1 spectral density
#N 2
#UFWHM 27.9186
#L  abscissas [um]  spectral density
-58.5938  2.94759e+20
-58.4764  2.66633e+20
-58.3591  2.35084e+20
-58.2418  2.04374e+20
-58.1245  1.7859e+20
-58.0072  1.60714e+20
-57.8899  1.51915e+20
-57.7726  1.5133e+20
-57.6553  1.5642e+20
-57.538  1.63459e+20
-57.4207  1.68779e+20
-57.3034  1.69353e+20
-57.1861  1.63824e+20
-57.0688  1.52808e+20
-56.9515  1.38605e+20
-56.8342  1.24614e+20
-56.7169  1.14503e+20
-56.5996  1.11137e+20
-56.4823  1.15838e+20
-56.365  1.27991e+20
-56.2477  1.45139e+20
-56.1303  1.63688e+20
-56.013  1.7978e+20
-55.8957  1.90222e+20
-55.7784  1.93556e+20
-55.6611  1.90182e+20
-55.5438  1.82535e+20
-55.4265  1.74189e+20
-55.3092  1.69074e+20
-55.1919  1.70387e+20
-55.0746  1.79451e+20
-54.9573  1.9582e+20
-54.84  2.16815e+20
-54.7227  2.38676e+20
-54.6054  2.5726e+20
-54.4881  2.69303e+20
-54.3708  2.73288e+20
-54.2535  2.69794e+20
-54.1362  2.61426e+20
-54.0189  2.51816e+20
-53.9016  2.44934e+20
-53.7842  2.43709e+20
-53.6669  2.49425e+20
-53.5496  2.6128e+20
-53.4323  2.76693e+20
-53.315  2.92411e+20
-53.1977  3.05189e+20
-53.0804  3.13177e+20
-52.9631  3.16399e+20
-52.8458  3.16804e+20
-52.7285  3.18027e+20
-52.6112  3.23821e+20
-52.4939  3.37313e+20
-52.3766  3.59713e+20
-52.2593  3.89668e+20
-52.142  4.23535e+20
-52.0247  4.56185e+20
-51.9074  4.82113e+20
-51.7901  4.96916e+20
-51.6728  4.98892e+20
-51.5555  4.88893e+20
-51.4381  4.70832e+20
-51.3208  4.50265e+20
-51.2035  4.33184e+20
-51.0862  4.24627e+20
-50.9689  4.2723e+20
-50.8516  4.40604e+20
-50.7343  4.61548e+20
-50.617  4.85244e+20
-50.4997  5.06082e+20
-50.3824  5.19589e+20
-50.2651  5.23194e+20
-50.1478  5.17189e+20
-50.0305  5.0405e+20
-49.9132  4.87868e+20
-49.7959  4.72874e+20
-49.6786  4.6235e+20
-49.5613  4.57675e+20
-49.444  4.582e+20
-49.3267  4.61394e+20
-49.2094  4.63984e+20
-49.092  4.62982e+20
-48.9747  4.5697e+20
-48.8574  4.46379e+20
-48.7401  4.33414e+20
-48.6228  4.21781e+20
-48.5055  4.15121e+20
-48.3882  4.15953e+20
-48.2709  4.25039e+20
-48.1536  4.40333e+20
-48.0363  4.58178e+20
-47.919  4.73402e+20
-47.8017  4.81099e+20
-47.6844  4.77834e+20
-47.5671  4.62566e+20
-47.4498  4.36778e+20
-47.3325  4.04612e+20
-47.2152  3.71142e+20
-47.0979  3.41729e+20
-46.9806  3.20186e+20
-46.8633  3.08225e+20
-46.7459  3.05004e+20
-46.6286  3.07539e+20
-46.5113  3.11661e+20
-46.394  3.13175e+20
-46.2767  3.09214e+20
-46.1594  2.98881e+20
-46.0421  2.83534e+20
-45.9248  2.66376e+20
-45.8075  2.51445e+20
-45.6902  2.42409e+20
-45.5729  2.41751e+20
-45.4556  2.49818e+20
-45.3383  2.64718e+20
-45.221  2.83067e+20
-45.1037  3.00766e+20
-44.9864  3.14094e+20
-44.8691  3.21029e+20
-44.7518  3.21498e+20
-44.6345  3.17622e+20
-44.5172  3.1323e+20
-44.3998  3.1285e+20
-44.2825  3.20619e+20
-44.1652  3.38996e+20
-44.0479  3.68409e+20
-43.9306  4.06938e+20
-43.8133  4.50735e+20
-43.696  4.94953e+20
-43.5787  5.34857e+20
-43.4614  5.66719e+20
-43.3441  5.88832e+20
-43.2268  6.01333e+20
-43.1095  6.06273e+20
-42.9922  6.07132e+20
-42.8749  6.07022e+20
-42.7576  6.08918e+20
-42.6403  6.14346e+20
-42.523  6.23251e+20
-42.4057  6.34394e+20
-42.2884  6.46047e+20
-42.171  6.56186e+20
-42.0537  6.63976e+20
-41.9364  6.69442e+20
-41.8191  6.74023e+20
-41.7018  6.79939e+20
-41.5845  6.89414e+20
-41.4672  7.04157e+20
-41.3499  7.24388e+20
-41.2326  7.48915e+20
-41.1153  7.74586e+20
-40.998  7.97749e+20
-40.8807  8.14502e+20
-40.7634  8.21884e+20
-40.6461  8.19082e+20
-40.5288  8.072e+20
-40.4115  7.8939e+20
-40.2942  7.70243e+20
-40.1769  7.54636e+20
-40.0596  7.46498e+20
-39.9423  7.47711e+20
-39.825  7.58012e+20
-39.7076  7.74703e+20
-39.5903  7.93497e+20
-39.473  8.09319e+20
-39.3557  8.17852e+20
-39.2384  8.16537e+20
-39.1211  8.04929e+20
-39.0038  7.84755e+20
-38.8865  7.5982e+20
-38.7692  7.33995e+20
-38.6519  7.11169e+20
-38.5346  6.93494e+20
-38.4173  6.81413e+20
-38.3  6.73334e+20
-38.1827  6.66786e+20
-38.0654  6.58889e+20
-37.9481  6.47893e+20
-37.8308  6.33201e+20
-37.7135  6.1665e+20
-37.5962  6.01063e+20
-37.4789  5.90355e+20
-37.3615  5.87833e+20
-37.2442  5.95346e+20
-37.1269  6.12476e+20
-37.0096  6.36306e+20
-36.8923  6.62419e+20
-36.775  6.85254e+20
-36.6577  6.99884e+20
-36.5404  7.03293e+20
-36.4231  6.94575e+20
-36.3058  6.75662e+20
-36.1885  6.50405e+20
-36.0712  6.23809e+20
-35.9539  6.00353e+20
-35.8366  5.83134e+20
-35.7193  5.73185e+20
-35.602  5.69288e+20
-35.4847  5.68568e+20
-35.3674  5.67652e+20
-35.2501  5.63712e+20
-35.1328  5.5566e+20
-35.0154  5.44365e+20
-34.8981  5.32827e+20
-34.7808  5.25032e+20
-34.6635  5.24732e+20
-34.5462  5.34675e+20
-34.4289  5.55118e+20
-34.3116  5.83848e+20
-34.1943  6.16579e+20
-34.077  6.47948e+20
-33.9597  6.72926e+20
-33.8424  6.88199e+20
-33.7251  6.93178e+20
-33.6078  6.90395e+20
-33.4905  6.84584e+20
-33.3732  6.8225e+20
-33.2559  6.89601e+20
-33.1386  7.10865e+20
-33.0213  7.47833e+20
-32.904  7.98929e+20
-32.7867  8.59485e+20
-32.6693  9.23518e+20
-32.552  9.84058e+20
-32.4347  1.03574e+21
-32.3174  1.07514e+21
-32.2001  1.1014e+21
-32.0828  1.11639e+21
-31.9655  1.12367e+21
-31.8482  1.12727e+21
-31.7309  1.1305e+21
-31.6136  1.1357e+21
-31.4963  1.14336e+21
-31.379  1.15274e+21
-31.2617  1.16234e+21
-31.1444  1.17131e+21
-31.0271  1.17937e+21
-30.9098  1.18761e+21
-30.7925  1.19876e+21
-30.6752  1.21551e+21
-30.5579  1.24033e+21
-30.4406  1.27441e+21
-30.3232  1.3168e+21
-30.2059  1.36456e+21
-30.0886  1.41229e+21
-29.9713  1.4545e+21
-29.854  1.48575e+21
-29.7367  1.50228e+21
-29.6194  1.50279e+21
-29.5021  1.48909e+21
-29.3848  1.46493e+21
-29.2675  1.43598e+21
-29.1502  1.40768e+21
-29.0329  1.38489e+21
-28.9156  1.36956e+21
-28.7983  1.36197e+21
-28.681  1.35977e+21
-28.5637  1.35942e+21
-28.4464  1.35667e+21
-28.3291  1.3491e+21
-28.2118  1.33528e+21
-28.0944  1.31631e+21
-27.9771  1.29536e+21
-27.8598  1.2764e+21
-27.7425  1.26364e+21
-27.6252  1.25982e+21
-27.5079  1.26646e+21
-27.3906  1.28277e+21
-27.2733  1.3062e+21
-27.156  1.33372e+21
-27.0387  1.36213e+21
-26.9214  1.38993e+21
-26.8041  1.41728e+21
-26.6868  1.44642e+21
-26.5695  1.48142e+21
-26.4522  1.52649e+21
-26.3349  1.58556e+21
-26.2176  1.66098e+21
-26.1003  1.75217e+21
-25.983  1.85637e+21
-25.8657  1.96803e+21
-25.7483  2.08059e+21
-25.631  2.18737e+21
-25.5137  2.28244e+21
-25.3964  2.36254e+21
-25.2791  2.42573e+21
-25.1618  2.47333e+21
-25.0445  2.50761e+21
-24.9272  2.532e+21
-24.8099  2.54999e+21
-24.6926  2.56477e+21
-24.5753  2.57856e+21
-24.458  2.59383e+21
-24.3407  2.61301e+21
-24.2234  2.63956e+21
-24.1061  2.67822e+21
-23.9888  2.7349e+21
-23.8715  2.81614e+21
-23.7542  2.92807e+21
-23.6369  3.07531e+21
-23.5196  3.25923e+21
-23.4023  3.47777e+21
-23.2849  3.72476e+21
-23.1676  3.99017e+21
-23.0503  4.26246e+21
-22.933  4.52888e+21
-22.8157  4.77872e+21
-22.6984  5.00326e+21
-22.5811  5.19868e+21
-22.4638  5.36487e+21
-22.3465  5.50574e+21
-22.2292  5.62778e+21
-22.1119  5.73958e+21
-21.9946  5.849e+21
-21.8773  5.96412e+21
-21.76  6.09156e+21
-21.6427  6.23674e+21
-21.5254  6.40491e+21
-21.4081  6.60138e+21
-21.2908  6.83198e+21
-21.1735  7.10258e+21
-21.0561  7.41966e+21
-20.9388  7.78833e+21
-20.8215  8.2119e+21
-20.7042  8.69006e+21
-20.5869  9.21888e+21
-20.4696  9.79075e+21
-20.3523  1.03947e+22
-20.235  1.10178e+22
-20.1177  1.16471e+22
-20.0004  1.22717e+22
-19.8831  1.2883e+22
-19.7658  1.3476e+22
-19.6485  1.40512e+22
-19.5312  1.46101e+22
-19.4139  1.51579e+22
-19.2966  1.57014e+22
-19.1793  1.62463e+22
-19.062  1.67988e+22
-18.9447  1.73649e+22
-18.8274  1.79503e+22
-18.71  1.856e+22
-18.5927  1.92007e+22
-18.4754  1.98782e+22
-18.3581  2.05983e+22
-18.2408  2.13647e+22
-18.1235  2.21786e+22
-18.0062  2.30365e+22
-17.8889  2.39308e+22
-17.7716  2.48485e+22
-17.6543  2.57734e+22
-17.537  2.66875e+22
-17.4197  2.75733e+22
-17.3024  2.84154e+22
-17.1851  2.9204e+22
-17.0678  2.9934e+22
-16.9505  3.06066e+22
-16.8332  3.12285e+22
-16.7159  3.18085e+22
-16.5986  3.23581e+22
-16.4813  3.28877e+22
-16.364  3.34067e+22
-16.2466  3.39226e+22
-16.1293  3.444e+22
-16.012  3.49634e+22
-15.8947  3.54954e+22
-15.7774  3.60397e+22
-15.6601  3.65996e+22
-15.5428  3.71785e+22
-15.4255  3.77788e+22
-15.3082  3.84013e+22
-15.1909  3.90438e+22
-15.0736  3.97011e+22
-14.9563  4.03654e+22
-14.839  4.10265e+22
-14.7217  4.16744e+22
-14.6044  4.22998e+22
-14.4871  4.2896e+22
-14.3698  4.34596e+22
-14.2525  4.39922e+22
-14.1352  4.44971e+22
-14.0178  4.49811e+22
-13.9005  4.54511e+22
-13.7832  4.5914e+22
-13.6659  4.63746e+22
-13.5486  4.6837e+22
-13.4313  4.73031e+22
-13.314  4.77747e+22
-13.1967  4.82533e+22
-13.0794  4.87416e+22
-12.9621  4.92437e+22
-12.8448  4.9764e+22
-12.7275  5.03071e+22
-12.6102  5.08763e+22
-12.4929  5.14731e+22
-12.3756  5.20947e+22
-12.2583  5.27363e+22
-12.141  5.339e+22
-12.0237  5.4046e+22
-11.9064  5.46955e+22
-11.7891  5.53305e+22
-11.6718  5.59469e+22
-11.5544  5.65433e+22
-11.4371  5.71217e+22
-11.3198  5.76869e+22
-11.2025  5.82444e+22
-11.0852  5.87998e+22
-10.9679  5.93562e+22
-10.8506  5.99151e+22
-10.7333  6.04752e+22
-10.616  6.10343e+22
-10.4987  6.15887e+22
-10.3814  6.21348e+22
-10.2641  6.26715e+22
-10.1468  6.3198e+22
-10.0295  6.37158e+22
-9.91217  6.42274e+22
-9.79487  6.47349e+22
-9.67756  6.52404e+22
-9.56026  6.57445e+22
-9.44295  6.62465e+22
-9.32565  6.67443e+22
-9.20834  6.72357e+22
-9.09104  6.77188e+22
-8.97373  6.81929e+22
-8.85643  6.86591e+22
-8.73913  6.91201e+22
-8.62182  6.95795e+22
-8.50452  7.00411e+22
-8.38721  7.05074e+22
-8.26991  7.09791e+22
-8.1526  7.14546e+22
-8.03529  7.19301e+22
-7.91799  7.24002e+22
-7.80069  7.28584e+22
-7.68338  7.32999e+22
-7.56608  7.3721e+22
-7.44877  7.41212e+22
-7.33146  7.45017e+22
-7.21416  7.48667e+22
-7.09685  7.52207e+22
-6.97955  7.55686e+22
-6.86224  7.59142e+22
-6.74494  7.62592e+22
-6.62763  7.66032e+22
-6.51033  7.69449e+22
-6.39302  7.72818e+22
-6.27572  7.76128e+22
-6.15842  7.79374e+22
-6.04111  7.82572e+22
-5.92381  7.8576e+22
-5.8065  7.88984e+22
-5.68919  7.9229e+22
-5.57189  7.95716e+22
-5.45458  7.99276e+22
-5.33728  8.02963e+22
-5.21997  8.06735e+22
-5.10267  8.1054e+22
-4.98536  8.14313e+22
-4.86806  8.18003e+22
-4.75075  8.21567e+22
-4.63345  8.24994e+22
-4.51614  8.28289e+22
-4.39884  8.31485e+22
-4.28154  8.34605e+22
-4.16423  8.37684e+22
-4.04692  8.4073e+22
-3.92962  8.43739e+22
-3.81231  8.46678e+22
-3.69501  8.4951e+22
-3.5777  8.52198e+22
-3.4604  8.54708e+22
-3.34309  8.57029e+22
-3.22579  8.59176e+22
-3.10849  8.61182e+22
-2.99118  8.63085e+22
-2.87387  8.6494e+22
-2.75657  8.66779e+22
-2.63926  8.68618e+22
-2.52196  8.70449e+22
-2.40465  8.7225e+22
-2.28735  8.73983e+22
-2.17005  8.75616e+22
-2.05274  8.77124e+22
-1.93544  8.7851e+22
-1.81813  8.79793e+22
-1.70083  8.81013e+22
-1.58352  8.82213e+22
-1.46622  8.83431e+22
-1.34891  8.84686e+22
-1.2316  8.85974e+22
-1.1143  8.87261e+22
-0.996995  8.88498e+22
-0.87969  8.89626e+22
-0.762385  8.90595e+22
-0.64508  8.91369e+22
-0.527775  8.9194e+22
-0.41047  8.92323e+22
-0.293165  8.92553e+22
-0.17586  8.92671e+22
-0.058555  8.92712e+22
0.05875  8.92694e+22
0.176055  8.9261e+22
0.29336  8.92436e+22
0.410665  8.92128e+22
0.52797  8.9165e+22
0.645275  8.90972e+22
0.76258  8.90085e+22
0.879885  8.89013e+22
0.99719  8.87797e+22
1.1145  8.86493e+22
1.2318  8.85163e+22
1.3491  8.83848e+22
1.46641  8.82572e+22
1.58371  8.81329e+22
1.70102  8.80092e+22
1.81832  8.78818e+22
1.93563  8.77459e+22
2.05294  8.75985e+22
2.17024  8.7438e+22
2.28754  8.72656e+22
2.40485  8.70838e+22
2.52216  8.68967e+22
2.63946  8.67075e+22
2.75677  8.65185e+22
2.87407  8.63295e+22
2.99137  8.61383e+22
3.10868  8.59407e+22
3.22599  8.5732e+22
3.34329  8.55079e+22
3.4606  8.52657e+22
3.5779  8.50054e+22
3.69521  8.47285e+22
3.81251  8.44386e+22
3.92982  8.41396e+22
4.04712  8.38354e+22
4.16443  8.35273e+22
4.28173  8.32155e+22
4.39903  8.28981e+22
4.51634  8.25716e+22
4.63364  8.22332e+22
4.75095  8.18806e+22
4.86825  8.15141e+22
4.98556  8.11366e+22
5.10286  8.07527e+22
5.22017  8.03685e+22
5.33748  7.99904e+22
5.45478  7.96233e+22
5.57209  7.92695e+22
5.68939  7.89294e+22
5.8067  7.86002e+22
5.924  7.82773e+22
6.0413  7.7956e+22
6.15861  7.7632e+22
6.27591  7.73022e+22
6.39322  7.69657e+22
6.51052  7.66238e+22
6.62783  7.62786e+22
6.74514  7.5932e+22
6.86244  7.55853e+22
6.97975  7.52381e+22
7.09705  7.48873e+22
7.21436  7.45288e+22
7.33166  7.41576e+22
7.44897  7.37688e+22
7.56627  7.33596e+22
7.68358  7.29288e+22
7.80088  7.24787e+22
7.91819  7.20136e+22
8.03549  7.1539e+22
8.1528  7.10611e+22
8.2701  7.05846e+22
8.38741  7.01128e+22
8.50471  6.96459e+22
8.62202  6.91832e+22
8.73932  6.87206e+22
8.85662  6.82549e+22
8.97393  6.77831e+22
9.09123  6.73031e+22
9.20854  6.68144e+22
9.32584  6.63184e+22
9.44315  6.58171e+22
9.56045  6.53125e+22
9.67776  6.4806e+22
9.79506  6.42976e+22
9.91237  6.37865e+22
10.0297  6.327e+22
10.147  6.27459e+22
10.2643  6.22125e+22
10.3816  6.16696e+22
10.4989  6.11178e+22
10.6162  6.05606e+22
10.7335  6.00009e+22
10.8508  5.94422e+22
10.9681  5.88862e+22
11.0854  5.8333e+22
11.2027  5.77803e+22
11.32  5.72227e+22
11.4373  5.6655e+22
11.5546  5.60714e+22
11.6719  5.54684e+22
11.7893  5.48447e+22
11.9066  5.42028e+22
12.0239  5.35492e+22
12.1412  5.28918e+22
12.2585  5.22407e+22
12.3758  5.1605e+22
12.4931  5.09918e+22
12.6104  5.04053e+22
12.7277  4.98465e+22
12.845  4.93133e+22
12.9623  4.8802e+22
13.0796  4.83077e+22
13.1969  4.78259e+22
13.3142  4.73528e+22
13.4315  4.6886e+22
13.5488  4.64234e+22
13.6661  4.59633e+22
13.7834  4.55027e+22
13.9007  4.50371e+22
14.018  4.45607e+22
14.1354  4.40668e+22
14.2527  4.35485e+22
14.37  4.30005e+22
14.4873  4.24205e+22
14.6046  4.1809e+22
14.7219  4.11707e+22
14.8392  4.05136e+22
14.9565  3.98474e+22
15.0738  3.91827e+22
15.1911  3.85284e+22
15.3084  3.78912e+22
15.4257  3.72752e+22
15.543  3.6681e+22
15.6603  3.61064e+22
15.7776  3.5549e+22
15.8949  3.5005e+22
16.0122  3.4471e+22
16.1295  3.39437e+22
16.2468  3.34202e+22
16.3641  3.28966e+22
16.4815  3.23666e+22
16.5988  3.18229e+22
16.7161  3.12559e+22
16.8334  3.06548e+22
16.9507  3.00092e+22
17.068  2.93106e+22
17.1853  2.85545e+22
17.3026  2.77425e+22
17.4199  2.6881e+22
17.5372  2.5982e+22
17.6545  2.5062e+22
17.7718  2.4139e+22
17.8891  2.32302e+22
18.0064  2.2351e+22
18.1237  2.15116e+22
18.241  2.07186e+22
18.3583  1.99735e+22
18.4756  1.92741e+22
18.5929  1.86154e+22
18.7102  1.79921e+22
18.8275  1.73978e+22
18.9449  1.68268e+22
19.0622  1.62734e+22
19.1795  1.57323e+22
19.2968  1.51973e+22
19.4141  1.4662e+22
19.5314  1.41198e+22
19.6487  1.35647e+22
19.766  1.29926e+22
19.8833  1.24014e+22
20.0006  1.1794e+22
20.1179  1.11758e+22
20.2352  1.05567e+22
20.3525  9.94876e+21
20.4698  9.36561e+21
20.5871  8.81919e+21
20.7044  8.31908e+21
20.8217  7.87196e+21
20.939  7.47998e+21
21.0563  7.14169e+21
21.1736  6.85293e+21
21.291  6.60758e+21
21.4083  6.39975e+21
21.5256  6.22271e+21
21.6429  6.07148e+21
21.7602  5.94078e+21
21.8775  5.82529e+21
21.9948  5.71906e+21
22.1121  5.61525e+21
22.2294  5.50574e+21
22.3467  5.38177e+21
22.464  5.23582e+21
22.5813  5.0621e+21
22.6986  4.85829e+21
22.8159  4.62589e+21
22.9332  4.37106e+21
23.0505  4.10349e+21
23.1678  3.83495e+21
23.2851  3.57807e+21
23.4024  3.34392e+21
23.5198  3.14092e+21
23.6371  2.97371e+21
23.7544  2.84233e+21
23.8717  2.74426e+21
23.989  2.67409e+21
24.1063  2.62538e+21
24.2236  2.5914e+21
24.3409  2.56749e+21
24.4582  2.54929e+21
24.5755  2.53387e+21
24.6928  2.51917e+21
24.8101  2.50295e+21
24.9274  2.4824e+21
25.0447  2.45421e+21
25.162  2.41506e+21
25.2793  2.36158e+21
25.3966  2.29194e+21
25.5139  2.20617e+21
25.6312  2.10675e+21
25.7485  1.99824e+21
25.8658  1.88701e+21
25.9832  1.77966e+21
26.1005  1.68266e+21
26.2178  1.60013e+21
26.3351  1.53385e+21
26.4524  1.48299e+21
26.5697  1.44439e+21
26.687  1.41387e+21
26.8043  1.38682e+21
26.9216  1.36011e+21
27.0389  1.33247e+21
27.1562  1.3044e+21
27.2735  1.27847e+21
27.3908  1.25756e+21
27.5081  1.24502e+21
27.6254  1.24262e+21
27.7427  1.25028e+21
27.86  1.26606e+21
27.9773  1.28647e+21
28.0946  1.3074e+21
28.212  1.32512e+21
28.3293  1.33753e+21
28.4466  1.34438e+21
28.5639  1.34777e+21
28.6812  1.35065e+21
28.7985  1.35684e+21
28.9158  1.3694e+21
29.0331  1.3894e+21
29.1504  1.41588e+21
29.2677  1.44542e+21
29.385  1.47286e+21
29.5023  1.4927e+21
29.6196  1.50002e+21
29.7369  1.4921e+21
29.8542  1.4684e+21
29.9715  1.4316e+21
30.0888  1.38607e+21
30.2061  1.33766e+21
30.3234  1.29178e+21
30.4407  1.25276e+21
30.558  1.22271e+21
30.6754  1.20167e+21
30.7927  1.18793e+21
30.91  1.17857e+21
31.0273  1.17079e+21
31.1446  1.16267e+21
31.2619  1.15359e+21
31.3792  1.14398e+21
31.4965  1.1352e+21
31.6138  1.12862e+21
31.7311  1.12426e+21
31.8484  1.12117e+21
31.9657  1.11648e+21
32.083  1.1066e+21
32.2003  1.08736e+21
32.3176  1.05629e+21
32.4349  1.01232e+21
32.5522  9.57132e+20
32.6695  8.9516e+20
32.7868  8.32545e+20
32.9042  7.7568e+20
33.0215  7.30517e+20
33.1388  7.00146e+20
33.2561  6.85134e+20
33.3734  6.82679e+20
33.4907  6.87418e+20
33.608  6.92967e+20
33.7253  6.93548e+20
33.8426  6.84876e+20
33.9599  6.65702e+20
34.0772  6.37788e+20
34.1945  6.05055e+20
34.3118  5.7302e+20
34.4291  5.46648e+20
34.5464  5.29748e+20
34.6637  5.23477e+20
34.781  5.2665e+20
34.8983  5.36082e+20
35.0156  5.47584e+20
35.1329  5.57626e+20
35.2503  5.63821e+20
35.3676  5.66067e+20
35.4849  5.66345e+20
35.6022  5.67602e+20
35.7195  5.73309e+20
35.8368  5.85852e+20
35.9541  6.05568e+20
36.0714  6.30691e+20
36.1887  6.57272e+20
36.306  6.80507e+20
36.4233  6.95624e+20
36.5406  6.99322e+20
36.6579  6.90905e+20
36.7752  6.7173e+20
36.8925  6.46302e+20
37.0098  6.19725e+20
37.1271  5.97471e+20
37.2444  5.83516e+20
37.3617  5.80004e+20
37.479  5.86201e+20
37.5964  5.99713e+20
37.7137  6.16652e+20
37.831  6.3337e+20
37.9483  6.47241e+20
38.0656  6.57268e+20
38.1829  6.64522e+20
38.3002  6.71484e+20
38.4175  6.80855e+20
38.5348  6.95099e+20
38.6521  7.15004e+20
38.7694  7.39397e+20
38.8867  7.65326e+20
39.004  7.88823e+20
39.1213  8.05899e+20
39.2386  8.13404e+20
39.3559  8.10592e+20
39.4732  7.98878e+20
39.5905  7.81886e+20
39.7078  7.6425e+20
39.8251  7.50929e+20
39.9425  7.45633e+20
40.0598  7.50076e+20
40.1771  7.63323e+20
40.2944  7.82158e+20
40.4117  8.01901e+20
40.529  8.177e+20
40.6463  8.2536e+20
40.7636  8.22578e+20
40.8809  8.09356e+20
40.9982  7.87933e+20
41.1155  7.61884e+20
41.2328  7.35554e+20
41.3501  7.12325e+20
41.4674  6.94678e+20
41.5847  6.82954e+20
41.702  6.76254e+20
41.8193  6.72145e+20
41.9366  6.68149e+20
42.0539  6.62253e+20
42.1712  6.53688e+20
42.2885  6.42828e+20
42.4059  6.31176e+20
42.5232  6.20663e+20
42.6405  6.13303e+20
42.7578  6.09679e+20
42.8751  6.09026e+20
42.9924  6.09166e+20
43.1097  6.07077e+20
43.227  5.99107e+20
43.3443  5.82506e+20
43.4616  5.5615e+20
43.5789  5.20507e+20
43.6962  4.78443e+20
43.8135  4.34167e+20
43.9308  3.92598e+20
44.0481  3.58064e+20
44.1654  3.33647e+20
44.2827  3.20062e+20
44.4  3.15872e+20
44.5173  3.17927e+20
44.6347  3.21802e+20
44.752  3.23331e+20
44.8693  3.19526e+20
44.9866  3.09162e+20
45.1039  2.93302e+20
45.2212  2.74752e+20
45.3385  2.57427e+20
45.4558  2.45107e+20
45.5731  2.40476e+20
45.6904  2.44442e+20
45.8077  2.55778e+20
45.925  2.71554e+20
46.0423  2.87917e+20
46.1596  3.01142e+20
46.2769  3.08863e+20
46.3942  3.10656e+20
46.5115  3.08124e+20
46.6288  3.0465e+20
46.7461  3.04412e+20
46.8634  3.11122e+20
46.9808  3.26796e+20
47.0981  3.51443e+20
47.2154  3.82421e+20
47.3327  4.15429e+20
47.45  4.45172e+20
47.5673  4.66838e+20
47.6846  4.77552e+20
47.8019  4.76508e+20
47.9192  4.65697e+20
48.0365  4.49307e+20
48.1538  4.32084e+20
48.2711  4.1879e+20
48.3884  4.12619e+20
48.5057  4.14553e+20
48.623  4.2317e+20
48.7403  4.35543e+20
48.8576  4.48147e+20
48.9749  4.57633e+20
49.0922  4.62301e+20
49.2095  4.62414e+20
49.3269  4.59958e+20
49.4442  4.58006e+20
49.5615  4.59463e+20
49.6788  4.66323e+20
49.7961  4.78476e+20
49.9134  4.93863e+20
50.0307  5.08854e+20
50.148  5.19147e+20
50.2653  5.21314e+20
50.3826  5.13629e+20
50.4999  4.97033e+20
50.6172  4.74794e+20
50.7345  4.52046e+20
50.8518  4.34201e+20
50.9691  4.25642e+20
