#S 1 spectral density
#N 2
#UFWHM 43.8721
#L  abscissas [um]  spectral density
-58.5938  2.65106e+20
-58.4764  2.50666e+20
-58.3591  2.37827e+20
-58.2418  2.29881e+20
-58.1245  2.2937e+20
-58.0072  2.37694e+20
-57.8899  2.54206e+20
-57.7726  2.76587e+20
-57.6553  3.00931e+20
-57.538  3.22733e+20
-57.4207  3.37695e+20
-57.3034  3.43e+20
-57.1861  3.37721e+20
-57.0688  3.23287e+20
-56.9515  3.02876e+20
-56.8342  2.81029e+20
-56.7169  2.62534e+20
-56.5996  2.51127e+20
-56.4823  2.48765e+20
-56.365  2.55081e+20
-56.2477  2.67607e+20
-56.1303  2.82398e+20
-56.013  2.94785e+20
-55.8957  3.00759e+20
-55.7784  2.97755e+20
-55.6611  2.853e+20
-55.5438  2.65025e+20
-55.4265  2.40022e+20
-55.3092  2.14248e+20
-55.1919  1.91055e+20
-55.0746  1.72785e+20
-54.9573  1.59932e+20
-54.84  1.51416e+20
-54.7227  1.44822e+20
-54.6054  1.37696e+20
-54.4881  1.28188e+20
-54.3708  1.15861e+20
-54.2535  1.02031e+20
-54.1362  8.95592e+19
-54.0189  8.19398e+19
-53.9016  8.23719e+19
-53.7842  9.27327e+19
-53.6669  1.12784e+20
-53.5496  1.40038e+20
-53.4323  1.7022e+20
-53.315  1.98185e+20
-53.1977  2.19196e+20
-53.0804  2.30129e+20
-52.9631  2.30277e+20
-52.8458  2.21311e+20
-52.7285  2.06977e+20
-52.6112  1.91838e+20
-52.4939  1.80136e+20
-52.3766  1.7462e+20
-52.2593  1.75713e+20
-52.142  1.81591e+20
-52.0247  1.88851e+20
-51.9074  1.93563e+20
-51.7901  1.92691e+20
-51.6728  1.85176e+20
-51.5555  1.72362e+20
-51.4381  1.57947e+20
-51.3208  1.46972e+20
-51.2035  1.44479e+20
-51.0862  1.54154e+20
-50.9689  1.77249e+20
-50.8516  2.11979e+20
-50.7343  2.53876e+20
-50.617  2.96981e+20
-50.4997  3.34998e+20
-50.3824  3.63147e+20
-50.2651  3.78931e+20
-50.1478  3.82874e+20
-50.0305  3.78047e+20
-49.9132  3.69143e+20
-49.7959  3.61061e+20
-49.6786  3.5744e+20
-49.5613  3.60019e+20
-49.444  3.68002e+20
-49.3267  3.78472e+20
-49.2094  3.87621e+20
-49.092  3.91741e+20
-48.9747  3.88484e+20
-48.8574  3.77506e+20
-48.7401  3.60559e+20
-48.6228  3.4098e+20
-48.5055  3.2245e+20
-48.3882  3.08219e+20
-48.2709  2.99771e+20
-48.1536  2.96597e+20
-48.0363  2.96453e+20
-47.919  2.95987e+20
-47.8017  2.92032e+20
-47.6844  2.82671e+20
-47.5671  2.67889e+20
-47.4498  2.49897e+20
-47.3325  2.32738e+20
-47.2152  2.20961e+20
-47.0979  2.18608e+20
-46.9806  2.27772e+20
-46.8633  2.48051e+20
-46.7459  2.76387e+20
-46.6286  3.07535e+20
-46.5113  3.35327e+20
-46.394  3.54222e+20
-46.2767  3.60343e+20
-46.1594  3.52603e+20
-46.0421  3.32782e+20
-45.9248  3.05155e+20
-45.8075  2.75155e+20
-45.6902  2.48404e+20
-45.5729  2.29133e+20
-45.4556  2.19501e+20
-45.3383  2.19196e+20
-45.221  2.25832e+20
-45.1037  2.3579e+20
-44.9864  2.45455e+20
-44.8691  2.51968e+20
-44.7518  2.5438e+20
-44.6345  2.5359e+20
-44.5172  2.52027e+20
-44.3998  2.52966e+20
-44.2825  2.59551e+20
-44.1652  2.73745e+20
-44.0479  2.95798e+20
-43.9306  3.24109e+20
-43.8133  3.55604e+20
-43.696  3.86335e+20
-43.5787  4.12797e+20
-43.4614  4.32277e+20
-43.3441  4.43909e+20
-43.2268  4.48401e+20
-43.1095  4.47882e+20
-42.9922  4.45404e+20
-42.8749  4.43554e+20
-42.7576  4.44113e+20
-42.6403  4.47492e+20
-42.523  4.52387e+20
-42.4057  4.56565e+20
-42.2884  4.57391e+20
-42.171  4.52687e+20
-42.0537  4.41619e+20
-41.9364  4.2483e+20
-41.8191  4.04799e+20
-41.7018  3.85017e+20
-41.5845  3.69516e+20
-41.4672  3.61479e+20
-41.3499  3.62688e+20
-41.2326  3.73082e+20
-41.1153  3.90354e+20
-40.998  4.11039e+20
-40.8807  4.30932e+20
-40.7634  4.46482e+20
-40.6461  4.55295e+20
-40.5288  4.57151e+20
-40.4115  4.53582e+20
-40.2942  4.47495e+20
-40.1769  4.42315e+20
-40.0596  4.41054e+20
-39.9423  4.45063e+20
-39.825  4.54049e+20
-39.7076  4.65719e+20
-39.5903  4.76803e+20
-39.473  4.83511e+20
-39.3557  4.83162e+20
-39.2384  4.74832e+20
-39.1211  4.59655e+20
-39.0038  4.40983e+20
-38.8865  4.23277e+20
-38.7692  4.11328e+20
-38.6519  4.09021e+20
-38.5346  4.1801e+20
-38.4173  4.37802e+20
-38.3  4.6544e+20
-38.1827  4.96759e+20
-38.0654  5.26946e+20
-37.9481  5.52215e+20
-37.8308  5.70307e+20
-37.7135  5.81296e+20
-37.5962  5.87013e+20
-37.4789  5.90581e+20
-37.3615  5.95159e+20
-37.2442  6.03175e+20
-37.1269  6.15049e+20
-37.0096  6.2962e+20
-36.8923  6.4408e+20
-36.775  6.55088e+20
-36.6577  6.59867e+20
-36.5404  6.56991e+20
-36.4231  6.4717e+20
-36.3058  6.33218e+20
-36.1885  6.1906e+20
-36.0712  6.09169e+20
-35.9539  6.06825e+20
-35.8366  6.13297e+20
-35.7193  6.27346e+20
-35.602  6.45396e+20
-35.4847  6.62416e+20
-35.3674  6.73139e+20
-35.2501  6.73853e+20
-35.1328  6.63241e+20
-35.0154  6.42991e+20
-34.8981  6.17781e+20
-34.7808  5.9411e+20
-34.6635  5.79151e+20
-34.5462  5.7878e+20
-34.4289  5.96721e+20
-34.3116  6.33562e+20
-34.1943  6.87097e+20
-34.077  7.52738e+20
-33.9597  8.25125e+20
-33.8424  8.99323e+20
-33.7251  9.71993e+20
-33.6078  1.04217e+21
-33.4905  1.11051e+21
-33.3732  1.17943e+21
-33.2559  1.25172e+21
-33.1386  1.32946e+21
-33.0213  1.41349e+21
-32.904  1.50316e+21
-32.7867  1.59687e+21
-32.6693  1.69331e+21
-32.552  1.79176e+21
-32.4347  1.89419e+21
-32.3174  2.00486e+21
-32.2001  2.13065e+21
-32.0828  2.27946e+21
-31.9655  2.4596e+21
-31.8482  2.67735e+21
-31.7309  2.93618e+21
-31.6136  3.23502e+21
-31.4963  3.56922e+21
-31.379  3.93004e+21
-31.2617  4.3072e+21
-31.1444  4.68933e+21
-31.0271  5.06657e+21
-30.9098  5.43138e+21
-30.7925  5.77896e+21
-30.6752  6.10825e+21
-30.5579  6.42002e+21
-30.4406  6.71755e+21
-30.3232  7.00469e+21
-30.2059  7.28652e+21
-30.0886  7.56785e+21
-29.9713  7.85443e+21
-29.854  8.15302e+21
-29.7367  8.47165e+21
-29.6194  8.81908e+21
-29.5021  9.20428e+21
-29.3848  9.63671e+21
-29.2675  1.01227e+22
-29.1502  1.06654e+22
-29.0329  1.12638e+22
-28.9156  1.19103e+22
-28.7983  1.25934e+22
-28.681  1.32969e+22
-28.5637  1.40026e+22
-28.4464  1.46916e+22
-28.3291  1.53476e+22
-28.2118  1.5958e+22
-28.0944  1.65146e+22
-27.9771  1.70149e+22
-27.8598  1.7461e+22
-27.7425  1.78582e+22
-27.6252  1.8215e+22
-27.5079  1.85398e+22
-27.3906  1.8842e+22
-27.2733  1.91308e+22
-27.156  1.94143e+22
-27.0387  1.97014e+22
-26.9214  2e+22
-26.8041  2.03182e+22
-26.6868  2.06635e+22
-26.5695  2.10427e+22
-26.4522  2.14587e+22
-26.3349  2.19122e+22
-26.2176  2.23994e+22
-26.1003  2.29119e+22
-25.983  2.34377e+22
-25.8657  2.39624e+22
-25.7483  2.44706e+22
-25.631  2.49481e+22
-25.5137  2.53835e+22
-25.3964  2.57697e+22
-25.2791  2.61044e+22
-25.1618  2.63898e+22
-25.0445  2.66319e+22
-24.9272  2.68389e+22
-24.8099  2.70202e+22
-24.6926  2.71852e+22
-24.5753  2.73421e+22
-24.458  2.7498e+22
-24.3407  2.7659e+22
-24.2234  2.78302e+22
-24.1061  2.80163e+22
-23.9888  2.82221e+22
-23.8715  2.8451e+22
-23.7542  2.87061e+22
-23.6369  2.89884e+22
-23.5196  2.92962e+22
-23.4023  2.96255e+22
-23.2849  2.99695e+22
-23.1676  3.03196e+22
-23.0503  3.06672e+22
-22.933  3.10042e+22
-22.8157  3.13253e+22
-22.6984  3.16284e+22
-22.5811  3.1916e+22
-22.4638  3.21925e+22
-22.3465  3.2466e+22
-22.2292  3.27437e+22
-22.1119  3.30324e+22
-21.9946  3.33355e+22
-21.8773  3.36529e+22
-21.76  3.39807e+22
-21.6427  3.43123e+22
-21.5254  3.46394e+22
-21.4081  3.49537e+22
-21.2908  3.52489e+22
-21.1735  3.5521e+22
-21.0561  3.57694e+22
-20.9388  3.59961e+22
-20.8215  3.62059e+22
-20.7042  3.64043e+22
-20.5869  3.65971e+22
-20.4696  3.67899e+22
-20.3523  3.69875e+22
-20.235  3.71935e+22
-20.1177  3.74117e+22
-20.0004  3.76461e+22
-19.8831  3.79002e+22
-19.7658  3.81777e+22
-19.6485  3.84815e+22
-19.5312  3.88122e+22
-19.4139  3.91683e+22
-19.2966  3.95448e+22
-19.1793  3.99329e+22
-19.062  4.03216e+22
-18.9447  4.06981e+22
-18.8274  4.10505e+22
-18.71  4.13682e+22
-18.5927  4.16453e+22
-18.4754  4.18799e+22
-18.3581  4.20753e+22
-18.2408  4.22382e+22
-18.1235  4.2378e+22
-18.0062  4.25045e+22
-17.8889  4.26269e+22
-17.7716  4.2752e+22
-17.6543  4.28847e+22
-17.537  4.3027e+22
-17.4197  4.31803e+22
-17.3024  4.33451e+22
-17.1851  4.3523e+22
-17.0678  4.37163e+22
-16.9505  4.39286e+22
-16.8332  4.41635e+22
-16.7159  4.44235e+22
-16.5986  4.47093e+22
-16.4813  4.50188e+22
-16.364  4.53466e+22
-16.2466  4.56853e+22
-16.1293  4.6026e+22
-16.012  4.63602e+22
-15.8947  4.66811e+22
-15.7774  4.69849e+22
-15.6601  4.72713e+22
-15.5428  4.75428e+22
-15.4255  4.78039e+22
-15.3082  4.80599e+22
-15.1909  4.83153e+22
-15.0736  4.85727e+22
-14.9563  4.88325e+22
-14.839  4.9093e+22
-14.7217  4.93514e+22
-14.6044  4.96052e+22
-14.4871  4.98527e+22
-14.3698  5.00942e+22
-14.2525  5.0332e+22
-14.1352  5.05697e+22
-14.0178  5.08118e+22
-13.9005  5.10621e+22
-13.7832  5.13226e+22
-13.6659  5.15936e+22
-13.5486  5.18734e+22
-13.4313  5.21583e+22
-13.314  5.24448e+22
-13.1967  5.27302e+22
-13.0794  5.30128e+22
-12.9621  5.32941e+22
-12.8448  5.35762e+22
-12.7275  5.38625e+22
-12.6102  5.41562e+22
-12.4929  5.44585e+22
-12.3756  5.47675e+22
-12.2583  5.50791e+22
-12.141  5.53864e+22
-12.0237  5.56805e+22
-11.9064  5.59529e+22
-11.7891  5.61967e+22
-11.6718  5.64074e+22
-11.5544  5.65844e+22
-11.4371  5.67302e+22
-11.3198  5.68501e+22
-11.2025  5.69509e+22
-11.0852  5.70397e+22
-10.9679  5.7123e+22
-10.8506  5.72049e+22
-10.7333  5.72885e+22
-10.616  5.73757e+22
-10.4987  5.74675e+22
-10.3814  5.75652e+22
-10.2641  5.76709e+22
-10.1468  5.77876e+22
-10.0295  5.79184e+22
-9.91217  5.80664e+22
-9.79487  5.82333e+22
-9.67756  5.84186e+22
-9.56026  5.86193e+22
-9.44295  5.883e+22
-9.32565  5.90435e+22
-9.20834  5.92524e+22
-9.09104  5.94498e+22
-8.97373  5.96309e+22
-8.85643  5.97938e+22
-8.73913  5.99396e+22
-8.62182  6.00716e+22
-8.50452  6.01951e+22
-8.38721  6.03154e+22
-8.26991  6.0437e+22
-8.1526  6.05627e+22
-8.03529  6.06931e+22
-7.91799  6.08272e+22
-7.80069  6.0963e+22
-7.68338  6.10979e+22
-7.56608  6.12314e+22
-7.44877  6.13633e+22
-7.33146  6.14958e+22
-7.21416  6.16318e+22
-7.09685  6.17752e+22
-6.97955  6.19288e+22
-6.86224  6.20945e+22
-6.74494  6.22721e+22
-6.62763  6.24593e+22
-6.51033  6.26533e+22
-6.39302  6.28502e+22
-6.27572  6.3047e+22
-6.15842  6.32423e+22
-6.04111  6.3436e+22
-5.92381  6.363e+22
-5.8065  6.38269e+22
-5.68919  6.40288e+22
-5.57189  6.42366e+22
-5.45458  6.44489e+22
-5.33728  6.46614e+22
-5.21997  6.4868e+22
-5.10267  6.50609e+22
-4.98536  6.5233e+22
-4.86806  6.53783e+22
-4.75075  6.5494e+22
-4.63345  6.55809e+22
-4.51614  6.56431e+22
-4.39884  6.56872e+22
-4.28154  6.57213e+22
-4.16423  6.57534e+22
-4.04692  6.5789e+22
-3.92962  6.58319e+22
-3.81231  6.58827e+22
-3.69501  6.59398e+22
-3.5777  6.60005e+22
-3.4604  6.60619e+22
-3.34309  6.61212e+22
-3.22579  6.61781e+22
-3.10849  6.62326e+22
-2.99118  6.62861e+22
-2.87387  6.63397e+22
-2.75657  6.63938e+22
-2.63926  6.64469e+22
-2.52196  6.64959e+22
-2.40465  6.65365e+22
-2.28735  6.6564e+22
-2.17005  6.65746e+22
-2.05274  6.65664e+22
-1.93544  6.654e+22
-1.81813  6.64984e+22
-1.70083  6.64469e+22
-1.58352  6.63914e+22
-1.46622  6.63373e+22
-1.34891  6.62883e+22
-1.2316  6.62457e+22
-1.1143  6.62082e+22
-0.996995  6.6173e+22
-0.87969  6.61363e+22
-0.762385  6.60954e+22
-0.64508  6.60492e+22
-0.527775  6.5999e+22
-0.41047  6.59489e+22
-0.293165  6.59042e+22
-0.17586  6.58705e+22
-0.058555  6.58528e+22
0.05875  6.58532e+22
0.176055  6.58714e+22
0.29336  6.59043e+22
0.410665  6.59466e+22
0.52797  6.59927e+22
0.645275  6.60376e+22
0.76258  6.60786e+22
0.879885  6.61148e+22
0.99719  6.61482e+22
1.1145  6.61822e+22
1.2318  6.62198e+22
1.3491  6.62636e+22
1.46641  6.63137e+22
1.58371  6.63677e+22
1.70102  6.64207e+22
1.81832  6.64671e+22
1.93563  6.65011e+22
2.05294  6.65183e+22
2.17024  6.65163e+22
2.28754  6.6496e+22
2.40485  6.64601e+22
2.52216  6.64134e+22
2.63946  6.63604e+22
2.75677  6.63052e+22
2.87407  6.62503e+22
2.99137  6.61961e+22
3.10868  6.61417e+22
3.22599  6.60858e+22
3.34329  6.6027e+22
3.4606  6.59652e+22
3.5779  6.59017e+22
3.69521  6.58395e+22
3.81251  6.57814e+22
3.92982  6.57304e+22
4.04712  6.56874e+22
4.16443  6.56506e+22
4.28173  6.56157e+22
4.39903  6.55761e+22
4.51634  6.55238e+22
4.63364  6.5451e+22
4.75095  6.53523e+22
4.86825  6.52244e+22
4.98556  6.50683e+22
5.10286  6.48879e+22
5.22017  6.46898e+22
5.33748  6.44812e+22
5.45478  6.42698e+22
5.57209  6.40601e+22
5.68939  6.38553e+22
5.8067  6.36556e+22
5.924  6.34593e+22
6.0413  6.32636e+22
6.15861  6.30665e+22
6.27591  6.28668e+22
6.39322  6.26652e+22
6.51052  6.24643e+22
6.62783  6.22675e+22
6.74514  6.2079e+22
6.86244  6.19014e+22
6.97975  6.1736e+22
7.09705  6.15824e+22
7.21436  6.14383e+22
7.33166  6.13002e+22
7.44897  6.11646e+22
7.56627  6.10288e+22
7.68358  6.08919e+22
7.80088  6.07539e+22
7.91819  6.06168e+22
8.03549  6.04828e+22
8.1528  6.03535e+22
8.2701  6.02292e+22
8.38741  6.01083e+22
8.50471  5.99868e+22
8.62202  5.98599e+22
8.73932  5.97219e+22
8.85662  5.95679e+22
8.97393  5.93957e+22
9.09123  5.9205e+22
9.20854  5.89993e+22
9.32584  5.87843e+22
9.44315  5.8567e+22
9.56045  5.83554e+22
9.67776  5.81559e+22
9.79506  5.7973e+22
9.91237  5.78088e+22
10.0297  5.76629e+22
10.147  5.75337e+22
10.2643  5.74176e+22
10.3816  5.7312e+22
10.4989  5.72145e+22
10.6162  5.71231e+22
10.7335  5.70369e+22
10.8508  5.69544e+22
10.9681  5.6873e+22
11.0854  5.67892e+22
11.2027  5.66972e+22
11.32  5.65902e+22
11.4373  5.64612e+22
11.5546  5.63037e+22
11.6719  5.61135e+22
11.7893  5.58895e+22
11.9066  5.56343e+22
12.0239  5.53532e+22
12.1412  5.50545e+22
12.2585  5.47466e+22
12.3758  5.44378e+22
12.4931  5.41339e+22
12.6104  5.3838e+22
12.7277  5.35504e+22
12.845  5.32683e+22
12.9623  5.29885e+22
13.0796  5.27079e+22
13.1969  5.2424e+22
13.3142  5.21368e+22
13.4315  5.18485e+22
13.5488  5.15621e+22
13.6661  5.12816e+22
13.7834  5.10101e+22
13.9007  5.07494e+22
14.018  5.04982e+22
14.1354  5.02549e+22
14.2527  5.00152e+22
14.37  4.97752e+22
14.4873  4.95316e+22
14.6046  4.9283e+22
14.7219  4.90295e+22
14.8392  4.87733e+22
14.9565  4.85163e+22
15.0738  4.8261e+22
15.1911  4.80075e+22
15.3084  4.77541e+22
15.4257  4.74973e+22
15.543  4.72321e+22
15.6603  4.69531e+22
15.7776  4.66567e+22
15.8949  4.63413e+22
16.0122  4.60091e+22
16.1295  4.56655e+22
16.2468  4.53183e+22
16.3641  4.49765e+22
16.4815  4.46493e+22
16.5988  4.43435e+22
16.7161  4.40632e+22
16.8334  4.38098e+22
16.9507  4.35814e+22
17.068  4.3375e+22
17.1853  4.31865e+22
17.3026  4.30129e+22
17.4199  4.28519e+22
17.5372  4.27021e+22
17.6545  4.25626e+22
17.7718  4.24323e+22
17.8891  4.23075e+22
18.0064  4.21833e+22
18.1237  4.20519e+22
18.241  4.19035e+22
18.3583  4.17288e+22
18.4756  4.15192e+22
18.5929  4.1269e+22
18.7102  4.09773e+22
18.8275  4.06474e+22
18.9449  4.02871e+22
19.0622  3.99074e+22
19.1795  3.95208e+22
19.2968  3.91392e+22
19.4141  3.87725e+22
19.5314  3.84283e+22
19.6487  3.81093e+22
19.766  3.78167e+22
19.8833  3.75485e+22
20.0006  3.73014e+22
20.1179  3.70723e+22
20.2352  3.68577e+22
20.3525  3.6654e+22
20.4698  3.64581e+22
20.5871  3.62661e+22
20.7044  3.60727e+22
20.8217  3.58729e+22
20.939  3.56607e+22
21.0563  3.54304e+22
21.1736  3.51782e+22
21.291  3.4903e+22
21.4083  3.46064e+22
21.5256  3.42931e+22
21.6429  3.39704e+22
21.7602  3.36464e+22
21.8775  3.33289e+22
21.9948  3.30233e+22
22.1121  3.27319e+22
22.2294  3.24526e+22
22.3467  3.21804e+22
22.464  3.19081e+22
22.5813  3.16276e+22
22.6986  3.1332e+22
22.8159  3.10178e+22
22.9332  3.06843e+22
23.0505  3.03355e+22
23.1678  2.99779e+22
23.2851  2.96207e+22
23.4024  2.92727e+22
23.5198  2.89426e+22
23.6371  2.86362e+22
23.7544  2.83567e+22
23.8717  2.81048e+22
23.989  2.78788e+22
24.1063  2.76756e+22
24.2236  2.74909e+22
24.3409  2.73202e+22
24.4582  2.71586e+22
24.5755  2.70003e+22
24.6928  2.68383e+22
24.8101  2.6665e+22
24.9274  2.6471e+22
25.0447  2.62466e+22
25.162  2.59824e+22
25.2793  2.56705e+22
25.3966  2.53065e+22
25.5139  2.489e+22
25.6312  2.44259e+22
25.7485  2.3923e+22
25.8658  2.3395e+22
25.9832  2.28569e+22
26.1005  2.23243e+22
26.2178  2.18115e+22
26.3351  2.1329e+22
26.4524  2.08834e+22
26.5697  2.04766e+22
26.687  2.01073e+22
26.8043  1.97702e+22
26.9216  1.94579e+22
27.0389  1.9163e+22
27.1562  1.8877e+22
27.2735  1.85907e+22
27.3908  1.8296e+22
27.5081  1.79839e+22
27.6254  1.76451e+22
27.7427  1.72704e+22
27.86  1.68515e+22
27.9773  1.6381e+22
28.0946  1.58555e+22
28.212  1.52748e+22
28.3293  1.46441e+22
28.4466  1.39737e+22
28.5639  1.32786e+22
28.6812  1.25754e+22
28.7985  1.18834e+22
28.9158  1.12199e+22
29.0331  1.05991e+22
29.1504  1.00307e+22
29.2677  9.51908e+21
29.385  9.06343e+21
29.5023  8.65909e+21
29.6196  8.29819e+21
29.7369  7.97143e+21
29.8542  7.67008e+21
29.9715  7.38523e+21
30.0888  7.10956e+21
30.2061  6.83717e+21
30.3234  6.56256e+21
30.4407  6.28066e+21
30.558  5.98702e+21
30.6754  5.67815e+21
30.7927  5.35166e+21
30.91  5.00721e+21
31.0273  4.64793e+21
31.1446  4.27925e+21
31.2619  3.90992e+21
31.3792  3.5502e+21
31.4965  3.21145e+21
31.6138  2.90296e+21
31.7311  2.63193e+21
31.8484  2.40151e+21
31.9657  2.21076e+21
32.083  2.0551e+21
32.2003  1.92713e+21
32.3176  1.81843e+21
32.4349  1.72145e+21
32.5522  1.63011e+21
32.6695  1.54129e+21
32.7868  1.4538e+21
32.9042  1.3691e+21
33.0215  1.28849e+21
33.1388  1.21349e+21
33.2561  1.14419e+21
33.3734  1.07949e+21
33.4907  1.01697e+21
33.608  9.54059e+20
33.7253  8.88878e+20
33.8426  8.21348e+20
33.9599  7.53344e+20
34.0772  6.88897e+20
34.1945  6.33041e+20
34.3118  5.9091e+20
34.4291  5.66213e+20
34.5464  5.60009e+20
34.6637  5.70418e+20
34.781  5.92634e+20
34.8983  6.2029e+20
35.0156  6.46096e+20
35.1329  6.64203e+20
35.2503  6.71133e+20
35.3676  6.66428e+20
35.4849  6.52486e+20
35.6022  6.3411e+20
35.7195  6.16762e+20
35.8368  6.05182e+20
35.9541  6.02352e+20
36.0714  6.08611e+20
36.1887  6.21665e+20
36.306  6.3766e+20
36.4233  6.51995e+20
36.5406  6.60895e+20
36.6579  6.62077e+20
36.7752  6.55539e+20
36.8925  6.43199e+20
37.0098  6.28256e+20
37.1271  6.13921e+20
37.2444  6.02636e+20
37.3617  5.9493e+20
37.479  5.89717e+20
37.5964  5.84249e+20
37.7137  5.75287e+20
37.831  5.60261e+20
37.9483  5.38021e+20
38.0656  5.09455e+20
38.1829  4.77547e+20
38.3002  4.46756e+20
38.4175  4.21773e+20
38.5348  4.06376e+20
38.6521  4.02516e+20
38.7694  4.09721e+20
38.8867  4.25065e+20
39.004  4.44128e+20
39.1213  4.62008e+20
39.2386  4.74489e+20
39.3559  4.79194e+20
39.4732  4.7591e+20
39.5905  4.66628e+20
39.7078  4.5478e+20
39.8251  4.44231e+20
39.9425  4.37967e+20
40.0598  4.37519e+20
40.1771  4.4229e+20
40.2944  4.49864e+20
40.4117  4.56747e+20
40.529  4.59383e+20
40.6463  4.55163e+20
40.7636  4.43168e+20
40.8809  4.24877e+20
40.9982  4.03425e+20
41.1155  3.82786e+20
41.2328  3.67269e+20
41.3501  3.60039e+20
41.4674  3.62507e+20
41.5847  3.73819e+20
41.702  3.91488e+20
41.8193  4.11733e+20
41.9366  4.30567e+20
42.0539  4.44945e+20
42.1712  4.53131e+20
42.2885  4.55254e+20
42.4059  4.52873e+20
42.5232  4.48549e+20
42.6405  4.44821e+20
42.7578  4.43537e+20
42.8751  4.4511e+20
42.9924  4.48226e+20
43.1097  4.50705e+20
43.227  4.49537e+20
43.3443  4.42027e+20
43.4616  4.26749e+20
43.5789  4.03698e+20
43.6962  3.74702e+20
43.8135  3.43054e+20
43.9308  3.12602e+20
44.0481  2.86823e+20
44.1654  2.68121e+20
44.2827  2.57251e+20
44.4  2.53094e+20
44.5173  2.52964e+20
44.6347  2.53757e+20
44.752  2.5248e+20
44.8693  2.47337e+20
44.9866  2.38415e+20
45.1039  2.2756e+20
45.2212  2.17984e+20
45.3385  2.13436e+20
45.4558  2.17049e+20
45.5731  2.30342e+20
45.6904  2.52585e+20
45.8077  2.80783e+20
45.925  3.10141e+20
46.0423  3.35071e+20
46.1596  3.50586e+20
46.2769  3.5339e+20
46.3942  3.42896e+20
46.5115  3.21148e+20
46.6288  2.92706e+20
46.7461  2.63221e+20
46.8634  2.38504e+20
46.9808  2.22869e+20
47.0981  2.18382e+20
47.2154  2.24534e+20
47.3327  2.38478e+20
47.45  2.56003e+20
47.5673  2.72687e+20
47.6846  2.85355e+20
47.8019  2.9252e+20
47.9192  2.94855e+20
48.0365  2.94767e+20
48.1538  2.9562e+20
48.2711  3.00219e+20
48.3884  3.10305e+20
48.5057  3.25707e+20
48.623  3.44324e+20
48.7403  3.6285e+20
48.8576  3.77754e+20
48.9749  3.86236e+20
49.0922  3.87299e+20
49.2095  3.82011e+20
49.3269  3.73167e+20
49.4442  3.6457e+20
49.5615  3.59611e+20
49.6788  3.60428e+20
49.7961  3.66856e+20
49.9134  3.76374e+20
50.0307  3.8464e+20
50.148  3.86707e+20
50.2653  3.78439e+20
50.3826  3.57676e+20
50.4999  3.24887e+20
50.6172  2.83595e+20
50.7345  2.3943e+20
50.8518  1.98826e+20
50.9691  1.67429e+20
