#S 1 spectral density
#N 2
#UFWHM 38.0068
#L  abscissas [um]  spectral density
-58.5938  2.09045e+20
-58.4764  2.06201e+20
-58.3591  2.01719e+20
-58.2418  1.98222e+20
-58.1245  1.98059e+20
-58.0072  2.02591e+20
-57.8899  2.11569e+20
-57.7726  2.23275e+20
-57.6553  2.34811e+20
-57.538  2.42683e+20
-57.4207  2.43869e+20
-57.3034  2.36654e+20
-57.1861  2.21239e+20
-57.0688  1.99904e+20
-56.9515  1.76612e+20
-56.8342  1.56366e+20
-56.7169  1.44021e+20
-56.5996  1.43111e+20
-56.4823  1.55269e+20
-56.365  1.79501e+20
-56.2477  2.12555e+20
-56.1303  2.49611e+20
-56.013  2.85112e+20
-55.8957  3.14327e+20
-55.7784  3.33947e+20
-55.6611  3.42911e+20
-55.5438  3.42337e+20
-55.4265  3.3517e+20
-55.3092  3.24973e+20
-55.1919  3.15181e+20
-55.0746  3.0801e+20
-54.9573  3.03895e+20
-54.84  3.01818e+20
-54.7227  2.99292e+20
-54.6054  2.9375e+20
-54.4881  2.83306e+20
-54.3708  2.67376e+20
-54.2535  2.47265e+20
-54.1362  2.25766e+20
-54.0189  2.06478e+20
-53.9016  1.92846e+20
-53.7842  1.87e+20
-53.6669  1.89239e+20
-53.5496  1.97677e+20
-53.4323  2.08716e+20
-53.315  2.18071e+20
-53.1977  2.21785e+20
-53.0804  2.17599e+20
-52.9631  2.05346e+20
-52.8458  1.87265e+20
-52.7285  1.67418e+20
-52.6112  1.50432e+20
-52.4939  1.40377e+20
-52.3766  1.39497e+20
-52.2593  1.47515e+20
-52.142  1.61686e+20
-52.0247  1.77495e+20
-51.9074  1.8983e+20
-51.7901  1.94433e+20
-51.6728  1.89122e+20
-51.5555  1.7432e+20
-51.4381  1.53012e+20
-51.3208  1.29904e+20
-51.2035  1.10087e+20
-51.0862  9.77959e+19
-50.9689  9.49761e+19
-50.8516  1.01123e+20
-50.7343  1.13302e+20
-50.617  1.27112e+20
-50.4997  1.38052e+20
-50.3824  1.42929e+20
-50.2651  1.40815e+20
-50.1478  1.33392e+20
-50.0305  1.24563e+20
-49.9132  1.19396e+20
-49.7959  1.22741e+20
-49.6786  1.37864e+20
-49.5613  1.65482e+20
-49.444  2.0352e+20
-49.3267  2.47559e+20
-49.2094  2.92153e+20
-49.092  3.31781e+20
-48.9747  3.62449e+20
-48.8574  3.82319e+20
-48.7401  3.91987e+20
-48.6228  3.9394e+20
-48.5055  3.9132e+20
-48.3882  3.87366e+20
-48.2709  3.83853e+20
-48.1536  3.809e+20
-48.0363  3.77119e+20
-47.919  3.70183e+20
-47.8017  3.57938e+20
-47.6844  3.3946e+20
-47.5671  3.15563e+20
-47.4498  2.89212e+20
-47.3325  2.64796e+20
-47.2152  2.4706e+20
-47.0979  2.40142e+20
-46.9806  2.45942e+20
-46.8633  2.6388e+20
-46.7459  2.9066e+20
-46.6286  3.20732e+20
-46.5113  3.4787e+20
-46.394  3.66436e+20
-46.2767  3.72503e+20
-46.1594  3.6511e+20
-46.0421  3.46177e+20
-45.9248  3.19921e+20
-45.8075  2.91926e+20
-45.6902  2.67663e+20
-45.5729  2.51073e+20
-45.4556  2.44018e+20
-45.3383  2.45528e+20
-45.221  2.52593e+20
-45.1037  2.60893e+20
-44.9864  2.65859e+20
-44.8691  2.64075e+20
-44.7518  2.53892e+20
-44.6345  2.35737e+20
-44.5172  2.11968e+20
-44.3998  1.85934e+20
-44.2825  1.61243e+20
-44.1652  1.40699e+20
-44.0479  1.25669e+20
-43.9306  1.16016e+20
-43.8133  1.10188e+20
-43.696  1.06098e+20
-43.5787  1.01829e+20
-43.4614  9.63358e+19
-43.3441  8.99788e+19
-43.2268  8.4564e+19
-43.1095  8.28361e+19
-42.9922  8.78499e+19
-42.8749  1.01838e+20
-42.7576  1.25758e+20
-42.6403  1.58577e+20
-42.523  1.97449e+20
-42.4057  2.38094e+20
-42.2884  2.75833e+20
-42.171  3.06341e+20
-42.0537  3.26802e+20
-41.9364  3.36158e+20
-41.8191  3.35516e+20
-41.7018  3.27545e+20
-41.5845  3.15746e+20
-41.4672  3.03616e+20
-41.3499  2.93567e+20
-41.2326  2.86755e+20
-41.1153  2.82557e+20
-40.998  2.79355e+20
-40.8807  2.75184e+20
-40.7634  2.685e+20
-40.6461  2.58991e+20
-40.5288  2.48076e+20
-40.4115  2.38606e+20
-40.2942  2.34378e+20
-40.1769  2.39108e+20
-40.0596  2.55422e+20
-39.9423  2.83849e+20
-39.825  3.22803e+20
-39.7076  3.68428e+20
-39.5903  4.15407e+20
-39.473  4.58101e+20
-39.3557  4.91912e+20
-39.2384  5.14153e+20
-39.1211  5.24479e+20
-39.0038  5.25158e+20
-38.8865  5.2006e+20
-38.7692  5.13511e+20
-38.6519  5.09561e+20
-38.5346  5.1025e+20
-38.4173  5.15616e+20
-38.3  5.23672e+20
-38.1827  5.30932e+20
-38.0654  5.33574e+20
-37.9481  5.28677e+20
-37.8308  5.14648e+20
-37.7135  4.92362e+20
-37.5962  4.64201e+20
-37.4789  4.33978e+20
-37.3615  4.05453e+20
-37.2442  3.81527e+20
-37.1269  3.63386e+20
-37.0096  3.50487e+20
-36.8923  3.40845e+20
-36.775  3.31788e+20
-36.6577  3.21257e+20
-36.5404  3.08621e+20
-36.4231  2.94902e+20
-36.3058  2.8331e+20
-36.1885  2.77834e+20
-36.0712  2.82694e+20
-35.9539  3.00516e+20
-35.8366  3.31866e+20
-35.7193  3.74372e+20
-35.602  4.23021e+20
-35.4847  4.71218e+20
-35.3674  5.12196e+20
-35.2501  5.40441e+20
-35.1328  5.52995e+20
-35.0154  5.50063e+20
-34.8981  5.34995e+20
-34.7808  5.13122e+20
-34.6635  4.90788e+20
-34.5462  4.73449e+20
-34.4289  4.645e+20
-34.3116  4.64891e+20
-34.1943  4.72755e+20
-34.077  4.84384e+20
-33.9597  4.95653e+20
-33.8424  5.02826e+20
-33.7251  5.04039e+20
-33.6078  4.99828e+20
-33.4905  4.92339e+20
-33.3732  4.85306e+20
-33.2559  4.82419e+20
-33.1386  4.86406e+20
-33.0213  4.98102e+20
-32.904  5.16476e+20
-32.7867  5.38678e+20
-32.6693  5.61428e+20
-32.552  5.81779e+20
-32.4347  5.98648e+20
-32.3174  6.12966e+20
-32.2001  6.27953e+20
-32.0828  6.48428e+20
-31.9655  6.79261e+20
-31.8482  7.24581e+20
-31.7309  7.85891e+20
-31.6136  8.61655e+20
-31.4963  9.4756e+20
-31.379  1.03656e+21
-31.2617  1.12091e+21
-31.1444  1.19302e+21
-31.0271  1.24735e+21
-30.9098  1.28117e+21
-30.7925  1.29474e+21
-30.6752  1.29136e+21
-30.5579  1.27617e+21
-30.4406  1.2556e+21
-30.3232  1.23591e+21
-30.2059  1.22283e+21
-30.0886  1.22151e+21
-29.9713  1.23647e+21
-29.854  1.27218e+21
-29.7367  1.33387e+21
-29.6194  1.42702e+21
-29.5021  1.55802e+21
-29.3848  1.73286e+21
-29.2675  1.95629e+21
-29.1502  2.23008e+21
-29.0329  2.55281e+21
-28.9156  2.91866e+21
-28.7983  3.31784e+21
-28.681  3.73765e+21
-28.5637  4.16372e+21
-28.4464  4.58213e+21
-28.3291  4.98121e+21
-28.2118  5.3532e+21
-28.0944  5.69478e+21
-27.9771  6.007e+21
-27.8598  6.29477e+21
-27.7425  6.56572e+21
-27.6252  6.82841e+21
-27.5079  7.09198e+21
-27.3906  7.36366e+21
-27.2733  7.6508e+21
-27.156  7.95888e+21
-27.0387  8.29321e+21
-26.9214  8.65881e+21
-26.8041  9.06063e+21
-26.6868  9.50347e+21
-26.5695  9.99158e+21
-26.4522  1.05272e+22
-26.3349  1.11105e+22
-26.2176  1.17374e+22
-26.1003  1.24008e+22
-25.983  1.30903e+22
-25.8657  1.37932e+22
-25.7483  1.44956e+22
-25.631  1.51851e+22
-25.5137  1.58516e+22
-25.3964  1.64876e+22
-25.2791  1.70909e+22
-25.1618  1.76619e+22
-25.0445  1.82043e+22
-24.9272  1.87234e+22
-24.8099  1.92244e+22
-24.6926  1.97129e+22
-24.5753  2.01928e+22
-24.458  2.06667e+22
-24.3407  2.11376e+22
-24.2234  2.16076e+22
-24.1061  2.20793e+22
-23.9888  2.25567e+22
-23.8715  2.30432e+22
-23.7542  2.35425e+22
-23.6369  2.40569e+22
-23.5196  2.45866e+22
-23.4023  2.51286e+22
-23.2849  2.56777e+22
-23.1676  2.62256e+22
-23.0503  2.67633e+22
-22.933  2.72817e+22
-22.8157  2.77732e+22
-22.6984  2.82331e+22
-22.5811  2.86601e+22
-22.4638  2.90563e+22
-22.3465  2.94266e+22
-22.2292  2.97768e+22
-22.1119  3.0113e+22
-21.9946  3.04397e+22
-21.8773  3.07601e+22
-21.76  3.10744e+22
-21.6427  3.13819e+22
-21.5254  3.16815e+22
-21.4081  3.19718e+22
-21.2908  3.22532e+22
-21.1735  3.25278e+22
-21.0561  3.27993e+22
-20.9388  3.3072e+22
-20.8215  3.33506e+22
-20.7042  3.36379e+22
-20.5869  3.39352e+22
-20.4696  3.42409e+22
-20.3523  3.45516e+22
-20.235  3.48626e+22
-20.1177  3.51692e+22
-20.0004  3.5468e+22
-19.8831  3.57575e+22
-19.7658  3.60384e+22
-19.6485  3.63138e+22
-19.5312  3.65877e+22
-19.4139  3.68645e+22
-19.2966  3.71481e+22
-19.1793  3.744e+22
-19.062  3.77405e+22
-18.9447  3.80486e+22
-18.8274  3.83624e+22
-18.71  3.86805e+22
-18.5927  3.90027e+22
-18.4754  3.93301e+22
-18.3581  3.96658e+22
-18.2408  4.00127e+22
-18.1235  4.03741e+22
-18.0062  4.07505e+22
-17.8889  4.1141e+22
-17.7716  4.15409e+22
-17.6543  4.19438e+22
-17.537  4.23412e+22
-17.4197  4.27257e+22
-17.3024  4.30909e+22
-17.1851  4.3434e+22
-17.0678  4.37555e+22
-16.9505  4.40594e+22
-16.8332  4.43521e+22
-16.7159  4.46405e+22
-16.5986  4.49313e+22
-16.4813  4.52291e+22
-16.364  4.55357e+22
-16.2466  4.58504e+22
-16.1293  4.61709e+22
-16.012  4.64936e+22
-15.8947  4.68165e+22
-15.7774  4.71384e+22
-15.6601  4.74609e+22
-15.5428  4.77867e+22
-15.4255  4.81193e+22
-15.3082  4.84625e+22
-15.1909  4.88179e+22
-15.0736  4.91843e+22
-14.9563  4.95588e+22
-14.839  4.99356e+22
-14.7217  5.03079e+22
-14.6044  5.06695e+22
-14.4871  5.10155e+22
-14.3698  5.13433e+22
-14.2525  5.16533e+22
-14.1352  5.19481e+22
-14.0178  5.22314e+22
-13.9005  5.25071e+22
-13.7832  5.27788e+22
-13.6659  5.30475e+22
-13.5486  5.33134e+22
-13.4313  5.35751e+22
-13.314  5.3831e+22
-13.1967  5.408e+22
-13.0794  5.43231e+22
-12.9621  5.45629e+22
-12.8448  5.48034e+22
-12.7275  5.50499e+22
-12.6102  5.5307e+22
-12.4929  5.55785e+22
-12.3756  5.5865e+22
-12.2583  5.61655e+22
-12.141  5.64766e+22
-12.0237  5.67934e+22
-11.9064  5.71115e+22
-11.7891  5.74282e+22
-11.6718  5.77426e+22
-11.5544  5.80566e+22
-11.4371  5.8374e+22
-11.3198  5.86999e+22
-11.2025  5.90388e+22
-11.0852  5.93936e+22
-10.9679  5.97637e+22
-10.8506  6.01459e+22
-10.7333  6.05337e+22
-10.616  6.09187e+22
-10.4987  6.12922e+22
-10.3814  6.16464e+22
-10.2641  6.19759e+22
-10.1468  6.22784e+22
-10.0295  6.25548e+22
-9.91217  6.28083e+22
-9.79487  6.3044e+22
-9.67756  6.32676e+22
-9.56026  6.3484e+22
-9.44295  6.36974e+22
-9.32565  6.39106e+22
-9.20834  6.41255e+22
-9.09104  6.43435e+22
-8.97373  6.45663e+22
-8.85643  6.47957e+22
-8.73913  6.50342e+22
-8.62182  6.52834e+22
-8.50452  6.5545e+22
-8.38721  6.5818e+22
-8.26991  6.61007e+22
-8.1526  6.63877e+22
-8.03529  6.66734e+22
-7.91799  6.695e+22
-7.80069  6.7211e+22
-7.68338  6.74509e+22
-7.56608  6.76673e+22
-7.44877  6.78611e+22
-7.33146  6.80353e+22
-7.21416  6.81959e+22
-7.09685  6.83489e+22
-6.97955  6.85001e+22
-6.86224  6.86531e+22
-6.74494  6.88089e+22
-6.62763  6.89658e+22
-6.51033  6.91199e+22
-6.39302  6.92664e+22
-6.27572  6.94013e+22
-6.15842  6.9522e+22
-6.04111  6.96282e+22
-5.92381  6.97231e+22
-5.8065  6.98116e+22
-5.68919  6.98998e+22
-5.57189  6.99941e+22
-5.45458  7.00994e+22
-5.33728  7.02191e+22
-5.21997  7.03534e+22
-5.10267  7.05017e+22
-4.98536  7.06612e+22
-4.86806  7.08293e+22
-4.75075  7.10042e+22
-4.63345  7.11849e+22
-4.51614  7.13709e+22
-4.39884  7.15635e+22
-4.28154  7.17619e+22
-4.16423  7.19656e+22
-4.04692  7.21711e+22
-3.92962  7.23736e+22
-3.81231  7.25662e+22
-3.69501  7.27422e+22
-3.5777  7.28954e+22
-3.4604  7.30219e+22
-3.34309  7.3121e+22
-3.22579  7.31952e+22
-3.10849  7.32506e+22
-2.99118  7.32942e+22
-2.87387  7.33346e+22
-2.75657  7.33787e+22
-2.63926  7.34311e+22
-2.52196  7.34942e+22
-2.40465  7.35677e+22
-2.28735  7.3649e+22
-2.17005  7.37353e+22
-2.05274  7.38238e+22
-1.93544  7.39136e+22
-1.81813  7.40053e+22
-1.70083  7.41006e+22
-1.58352  7.42019e+22
-1.46622  7.43109e+22
-1.34891  7.44275e+22
-1.2316  7.45497e+22
-1.1143  7.46728e+22
-0.996995  7.47913e+22
-0.87969  7.48987e+22
-0.762385  7.49899e+22
-0.64508  7.50617e+22
-0.527775  7.51135e+22
-0.41047  7.51474e+22
-0.293165  7.51677e+22
-0.17586  7.51783e+22
-0.058555  7.51831e+22
0.05875  7.51843e+22
0.176055  7.51806e+22
0.29336  7.51693e+22
0.410665  7.51458e+22
0.52797  7.51055e+22
0.645275  7.50449e+22
0.76258  7.49631e+22
0.879885  7.48614e+22
0.99719  7.47444e+22
1.1145  7.46182e+22
1.2318  7.44893e+22
1.3491  7.43637e+22
1.46641  7.4245e+22
1.58371  7.41347e+22
1.70102  7.40318e+22
1.81832  7.39343e+22
1.93563  7.38398e+22
2.05294  7.37466e+22
2.17024  7.36547e+22
2.28754  7.35656e+22
2.40485  7.34823e+22
2.52216  7.34077e+22
2.63946  7.33433e+22
2.75677  7.32892e+22
2.87407  7.32423e+22
2.99137  7.31968e+22
3.10868  7.31455e+22
3.22599  7.30804e+22
3.34329  7.29946e+22
3.4606  7.28832e+22
3.5779  7.27454e+22
3.69521  7.25828e+22
3.81251  7.24001e+22
3.92982  7.22038e+22
4.04712  7.20009e+22
4.16443  7.17964e+22
4.28173  7.15947e+22
4.39903  7.13977e+22
4.51634  7.12057e+22
4.63364  7.10183e+22
4.75095  7.08352e+22
4.86825  7.06565e+22
4.98556  7.04847e+22
5.10286  7.03221e+22
5.22017  7.01717e+22
5.33748  7.00362e+22
5.45478  6.99162e+22
5.57209  6.98103e+22
5.68939  6.97145e+22
5.8067  6.96233e+22
5.924  6.953e+22
6.0413  6.94288e+22
6.15861  6.93153e+22
6.27591  6.91876e+22
6.39322  6.90468e+22
6.51052  6.88962e+22
6.62783  6.87405e+22
6.74514  6.85839e+22
6.86244  6.84296e+22
6.97975  6.82784e+22
7.09705  6.81277e+22
7.21436  6.7973e+22
7.33166  6.78079e+22
7.44897  6.76265e+22
7.56627  6.74237e+22
7.68358  6.71969e+22
7.80088  6.69469e+22
7.91819  6.66774e+22
8.03549  6.63943e+22
8.1528  6.61045e+22
8.2701  6.5815e+22
8.38741  6.55318e+22
8.50471  6.52584e+22
8.62202  6.49967e+22
8.73932  6.47467e+22
8.85662  6.45069e+22
8.97393  6.42754e+22
9.09123  6.40506e+22
9.20854  6.38309e+22
9.32584  6.36149e+22
9.44315  6.34011e+22
9.56045  6.31869e+22
9.67776  6.29689e+22
9.79506  6.27421e+22
9.91237  6.25011e+22
10.0297  6.22398e+22
10.147  6.19541e+22
10.2643  6.1641e+22
10.3816  6.13013e+22
10.4989  6.09386e+22
10.6162  6.05594e+22
10.7335  6.01722e+22
10.8508  5.97859e+22
10.9681  5.94081e+22
11.0854  5.90443e+22
11.2027  5.86963e+22
11.32  5.83629e+22
11.4373  5.80409e+22
11.5546  5.77248e+22
11.6719  5.74103e+22
11.7893  5.70937e+22
11.9066  5.67744e+22
12.0239  5.64538e+22
12.1412  5.61356e+22
12.2585  5.58246e+22
12.3758  5.5525e+22
12.4931  5.52396e+22
12.6104  5.49694e+22
12.7277  5.47122e+22
12.845  5.44643e+22
12.9623  5.4221e+22
13.0796  5.3978e+22
13.1969  5.37315e+22
13.3142  5.34795e+22
13.4315  5.32224e+22
13.5488  5.29608e+22
13.6661  5.2696e+22
13.7834  5.2429e+22
13.9007  5.21585e+22
14.018  5.18823e+22
14.1354  5.15966e+22
14.2527  5.12968e+22
14.37  5.09797e+22
14.4873  5.06435e+22
14.6046  5.02888e+22
14.7219  4.99193e+22
14.8392  4.95411e+22
14.9565  4.91607e+22
15.0738  4.87849e+22
15.1911  4.84186e+22
15.3084  4.80646e+22
15.4257  4.77226e+22
15.543  4.73904e+22
15.6603  4.70641e+22
15.7776  4.67404e+22
15.8949  4.64168e+22
16.0122  4.60924e+22
16.1295  4.5769e+22
16.2468  4.54492e+22
16.3641  4.51361e+22
16.4815  4.48314e+22
16.5988  4.45351e+22
16.7161  4.42445e+22
16.8334  4.39543e+22
16.9507  4.36576e+22
17.068  4.33475e+22
17.1853  4.30189e+22
17.3026  4.26689e+22
17.4199  4.22985e+22
17.5372  4.19116e+22
17.6545  4.15152e+22
17.7718  4.11173e+22
17.8891  4.07253e+22
18.0064  4.03447e+22
18.1237  3.99787e+22
18.241  3.96275e+22
18.3583  3.9289e+22
18.4756  3.89599e+22
18.5929  3.86371e+22
18.7102  3.83185e+22
18.8275  3.80032e+22
18.9449  3.76926e+22
19.0622  3.73881e+22
19.1795  3.70918e+22
19.2968  3.68044e+22
19.4141  3.65251e+22
19.5314  3.6251e+22
19.6487  3.59783e+22
19.766  3.57023e+22
19.8833  3.54189e+22
20.0006  3.51261e+22
20.1179  3.48235e+22
20.2352  3.45137e+22
20.3525  3.42008e+22
20.4698  3.38899e+22
20.5871  3.35851e+22
20.7044  3.32891e+22
20.8217  3.30029e+22
20.939  3.27242e+22
21.0563  3.24496e+22
21.1736  3.21743e+22
21.291  3.18943e+22
21.4083  3.16064e+22
21.5256  3.13093e+22
21.6429  3.10032e+22
21.7602  3.06895e+22
21.8775  3.03692e+22
21.9948  3.00428e+22
22.1121  2.97083e+22
22.2294  2.93617e+22
22.3467  2.89975e+22
22.464  2.86098e+22
22.5813  2.81922e+22
22.6986  2.77411e+22
22.8159  2.72563e+22
22.9332  2.67403e+22
23.0505  2.61997e+22
23.1678  2.56434e+22
23.2851  2.5081e+22
23.4024  2.45218e+22
23.5198  2.39737e+22
23.6371  2.34407e+22
23.7544  2.29249e+22
23.8717  2.2425e+22
23.989  2.19381e+22
24.1063  2.146e+22
24.2236  2.09877e+22
24.3409  2.0517e+22
24.4582  2.00456e+22
24.5755  1.95703e+22
24.6928  1.90888e+22
24.8101  1.85969e+22
24.9274  1.80903e+22
25.0447  1.75625e+22
25.162  1.70089e+22
25.2793  1.64243e+22
25.3966  1.5806e+22
25.5139  1.51555e+22
25.6312  1.44772e+22
25.7485  1.37802e+22
25.8658  1.30759e+22
25.9832  1.23781e+22
26.1005  1.17006e+22
26.2178  1.10555e+22
26.3351  1.04519e+22
26.4524  9.8957e+21
26.5697  9.38838e+21
26.687  8.9291e+21
26.8043  8.51451e+21
26.9216  8.13931e+21
27.0389  7.79863e+21
27.1562  7.48697e+21
27.2735  7.19932e+21
27.3908  6.92988e+21
27.5081  6.67283e+21
27.6254  6.42045e+21
27.7427  6.16483e+21
27.86  5.89721e+21
27.9773  5.60971e+21
28.0946  5.29578e+21
28.212  4.9527e+21
28.3293  4.58095e+21
28.4466  4.18615e+21
28.5639  3.77783e+21
28.6812  3.3684e+21
28.7985  2.97202e+21
28.9158  2.60158e+21
29.0331  2.26872e+21
29.1504  1.98106e+21
29.2677  1.7419e+21
29.385  1.55115e+21
29.5023  1.40545e+21
29.6196  1.29944e+21
29.7369  1.22689e+21
29.8542  1.18214e+21
29.9715  1.15989e+21
30.0888  1.1555e+21
30.2061  1.16506e+21
30.3234  1.18407e+21
30.4407  1.20757e+21
30.558  1.22964e+21
30.6754  1.24427e+21
30.7927  1.24544e+21
30.91  1.22884e+21
31.0273  1.19214e+21
31.1446  1.13626e+21
31.2619  1.06491e+21
31.3792  9.84344e+20
31.4965  9.01972e+20
31.6138  8.25205e+20
31.7311  7.59747e+20
31.8484  7.08884e+20
31.9657  6.72603e+20
32.083  6.48261e+20
32.2003  6.3153e+20
32.3176  6.17371e+20
32.4349  6.01698e+20
32.5522  5.82315e+20
32.6695  5.59078e+20
32.7868  5.34194e+20
32.9042  5.10921e+20
33.0215  4.92544e+20
33.1388  4.81432e+20
33.2561  4.78041e+20
33.3734  4.80886e+20
33.4907  4.86694e+20
33.608  4.91948e+20
33.7253  4.93194e+20
33.8426  4.88847e+20
33.9599  4.79411e+20
34.0772  4.67548e+20
34.1945  4.57046e+20
34.3118  4.52174e+20
34.4291  4.55923e+20
34.5464  4.69111e+20
34.6637  4.89844e+20
34.781  5.1367e+20
34.8983  5.3471e+20
35.0156  5.46662e+20
35.1329  5.44906e+20
35.2503  5.26959e+20
35.3676  4.93939e+20
35.4849  4.49884e+20
35.6022  4.01006e+20
35.7195  3.54186e+20
35.8368  3.15681e+20
35.9541  2.89537e+20
36.0714  2.77048e+20
36.1887  2.76807e+20
36.306  2.85395e+20
36.4233  2.98342e+20
36.5406  3.11828e+20
36.6579  3.23457e+20
36.7752  3.32638e+20
36.8925  3.40833e+20
37.0098  3.50532e+20
37.1271  3.64315e+20
37.2444  3.83809e+20
37.3617  4.09087e+20
37.479  4.38187e+20
37.5964  4.67941e+20
37.7137  4.9433e+20
37.831  5.14094e+20
37.9483  5.2535e+20
38.0656  5.28125e+20
38.1829  5.24608e+20
38.3002  5.18209e+20
38.4175  5.12715e+20
38.5348  5.1099e+20
38.6521  5.14153e+20
38.7694  5.21174e+20
38.8867  5.28844e+20
39.004  5.32807e+20
39.1213  5.2859e+20
39.2386  5.12876e+20
39.3559  4.84529e+20
39.4732  4.44969e+20
39.5905  3.98085e+20
39.7078  3.4935e+20
39.8251  3.04552e+20
39.9425  2.68694e+20
40.0598  2.44805e+20
40.1771  2.33651e+20
40.2944  2.33351e+20
40.4117  2.4056e+20
40.529  2.51245e+20
40.6463  2.61832e+20
40.7636  2.69981e+20
40.8809  2.75071e+20
40.9982  2.78216e+20
41.1155  2.81256e+20
41.2328  2.86411e+20
41.3501  2.94842e+20
41.4674  3.06426e+20
41.5847  3.19426e+20
41.702  3.30723e+20
41.8193  3.36552e+20
41.9366  3.33652e+20
42.0539  3.19877e+20
42.1712  2.95188e+20
42.2885  2.61463e+20
42.4059  2.22311e+20
42.5232  1.82441e+20
42.6405  1.46429e+20
42.7578  1.17895e+20
42.8751  9.87473e+19
42.9924  8.90046e+19
43.1097  8.69372e+19
43.227  8.98295e+19
43.3443  9.46933e+19
43.4616  9.93136e+19
43.5789  1.02612e+20
43.6962  1.05049e+20
43.8135  1.08269e+20
43.9308  1.14435e+20
44.0481  1.25502e+20
44.1654  1.42397e+20
44.2827  1.64601e+20
44.4  1.89994e+20
44.5173  2.1538e+20
44.6347  2.37111e+20
44.752  2.52329e+20
44.8693  2.59413e+20
44.9866  2.58931e+20
45.1039  2.5317e+20
45.2212  2.46126e+20
45.3385  2.42173e+20
45.4558  2.45016e+20
45.5731  2.56782e+20
45.6904  2.77151e+20
45.8077  3.03381e+20
45.925  3.30822e+20
46.0423  3.54032e+20
46.1596  3.68047e+20
46.2769  3.69507e+20
46.3942  3.57773e+20
46.5115  3.35085e+20
46.6288  3.05939e+20
46.7461  2.76343e+20
46.8634  2.52192e+20
46.9808  2.383e+20
47.0981  2.36901e+20
47.2154  2.4776e+20
47.3327  2.681e+20
47.45  2.93566e+20
47.5673  3.19523e+20
47.6846  3.4213e+20
47.8019  3.5914e+20
47.9192  3.70259e+20
48.0365  3.76821e+20
48.1538  3.81008e+20
48.2711  3.8468e+20
48.3884  3.88707e+20
48.5057  3.92417e+20
48.623  3.93464e+20
48.7403  3.88816e+20
48.8576  3.75521e+20
48.9749  3.51793e+20
49.0922  3.18026e+20
49.2095  2.76819e+20
49.3269  2.32774e+20
49.4442  1.91356e+20
49.5615  1.57759e+20
49.6788  1.35477e+20
49.7961  1.25422e+20
49.9134  1.25929e+20
50.0307  1.33018e+20
50.148  1.41573e+20
50.2653  1.46821e+20
50.3826  1.45593e+20
50.4999  1.37165e+20
50.6172  1.2351e+20
50.7345  1.08501e+20
50.8518  9.68546e+19
