#S 1 spectral density
#N 2
#UFWHM 22.6399
#L  abscissas [um]  spectral density
-58.5938  2.56178e+20
-58.4764  2.48152e+20
-58.3591  2.3948e+20
-58.2418  2.3317e+20
-58.1245  2.31636e+20
-58.0072  2.36292e+20
-57.8899  2.46854e+20
-57.7726  2.6127e+20
-57.6553  2.76207e+20
-57.538  2.8759e+20
-57.4207  2.91991e+20
-57.3034  2.87235e+20
-57.1861  2.73061e+20
-57.0688  2.51542e+20
-56.9515  2.26817e+20
-56.8342  2.03642e+20
-56.7169  1.87198e+20
-56.5996  1.81176e+20
-56.4823  1.87375e+20
-56.365  2.05033e+20
-56.2477  2.31016e+20
-56.1303  2.60748e+20
-56.013  2.88992e+20
-55.8957  3.11174e+20
-55.7784  3.24464e+20
-55.6611  3.2825e+20
-55.5438  3.24218e+20
-55.4265  3.15607e+20
-55.3092  3.06657e+20
-55.1919  3.01164e+20
-55.0746  3.01252e+20
-54.9573  3.07712e+20
-54.84  3.19013e+20
-54.7227  3.32607e+20
-54.6054  3.45156e+20
-54.4881  3.54095e+20
-54.3708  3.58073e+20
-54.2535  3.57554e+20
-54.1362  3.54505e+20
-54.0189  3.5179e+20
-53.9016  3.52155e+20
-53.7842  3.57222e+20
-53.6669  3.6712e+20
-53.5496  3.79806e+20
-53.4323  3.91901e+20
-53.315  3.99573e+20
-53.1977  3.99379e+20
-53.0804  3.89697e+20
-52.9631  3.71277e+20
-52.8458  3.46908e+20
-52.7285  3.21413e+20
-52.6112  2.99866e+20
-52.4939  2.86711e+20
-52.3766  2.8434e+20
-52.2593  2.92469e+20
-52.142  3.08135e+20
-52.0247  3.26689e+20
-51.9074  3.42591e+20
-51.7901  3.51276e+20
-51.6728  3.50251e+20
-51.5555  3.39678e+20
-51.4381  3.22347e+20
-51.3208  3.02859e+20
-51.2035  2.86173e+20
-51.0862  2.76464e+20
-50.9689  2.75772e+20
-50.8516  2.8343e+20
-50.7343  2.96464e+20
-50.617  3.10281e+20
-50.4997  3.20251e+20
-50.3824  3.22817e+20
-50.2651  3.16766e+20
-50.1478  3.03561e+20
-50.0305  2.86836e+20
-49.9132  2.71465e+20
-49.7959  2.6227e+20
-49.6786  2.62535e+20
-49.5613  2.7304e+20
-49.444  2.92202e+20
-49.3267  3.15972e+20
-49.2094  3.39362e+20
-49.092  3.576e+20
-48.9747  3.6737e+20
-48.8574  3.678e+20
-48.7401  3.6008e+20
-48.6228  3.47603e+20
-48.5055  3.34457e+20
-48.3882  3.24255e+20
-48.2709  3.19385e+20
-48.1536  3.19937e+20
-48.0363  3.24521e+20
-47.919  3.30228e+20
-47.8017  3.34025e+20
-47.6844  3.33848e+20
-47.5671  3.29272e+20
-47.4498  3.21551e+20
-47.3325  3.13789e+20
-47.2152  3.09383e+20
-47.0979  3.11314e+20
-46.9806  3.20833e+20
-46.8633  3.37094e+20
-46.7459  3.56956e+20
-46.6286  3.75736e+20
-46.5113  3.88277e+20
-46.394  3.90407e+20
-46.2767  3.80182e+20
-46.1594  3.58451e+20
-46.0421  3.28718e+20
-45.9248  2.97001e+20
-45.8075  2.69866e+20
-45.6902  2.53159e+20
-45.5729  2.51022e+20
-45.4556  2.64311e+20
-45.3383  2.91139e+20
-45.221  3.26695e+20
-45.1037  3.6483e+20
-44.9864  3.99271e+20
-44.8691  4.25145e+20
-44.7518  4.39666e+20
-44.6345  4.42668e+20
-44.5172  4.36409e+20
-44.3998  4.24685e+20
-44.2825  4.11967e+20
-44.1652  4.01826e+20
-44.0479  3.967e+20
-43.9306  3.97233e+20
-43.8133  4.02237e+20
-43.696  4.09702e+20
-43.5787  4.17443e+20
-43.4614  4.23586e+20
-43.3441  4.27561e+20
-43.2268  4.29979e+20
-43.1095  4.32415e+20
-42.9922  4.36918e+20
-42.8749  4.44995e+20
-42.7576  4.57234e+20
-42.6403  4.72857e+20
-42.523  4.89504e+20
-42.4057  5.04081e+20
-42.2884  5.133e+20
-42.171  5.14687e+20
-42.0537  5.07214e+20
-41.9364  4.91742e+20
-41.8191  4.70866e+20
-41.7018  4.48527e+20
-41.5845  4.28892e+20
-41.4672  4.15573e+20
-41.3499  4.10551e+20
-41.2326  4.13976e+20
-41.1153  4.23743e+20
-40.998  4.36477e+20
-40.8807  4.4811e+20
-40.7634  4.55154e+20
-40.6461  4.55502e+20
-40.5288  4.48814e+20
-40.4115  4.36826e+20
-40.2942  4.22581e+20
-40.1769  4.09558e+20
-40.0596  4.0087e+20
-39.9423  3.9775e+20
-39.825  4.00097e+20
-39.7076  4.05802e+20
-39.5903  4.11542e+20
-39.473  4.14115e+20
-39.3557  4.10895e+20
-39.2384  4.01373e+20
-39.1211  3.87029e+20
-39.0038  3.71284e+20
-38.8865  3.58831e+20
-38.7692  3.54127e+20
-38.6519  3.60649e+20
-38.5346  3.79394e+20
-38.4173  4.08938e+20
-38.3  4.45395e+20
-38.1827  4.83189e+20
-38.0654  5.16621e+20
-37.9481  5.41034e+20
-37.8308  5.53571e+20
-37.7135  5.5422e+20
-37.5962  5.45247e+20
-37.4789  5.30563e+20
-37.3615  5.14842e+20
-37.2442  5.01929e+20
-37.1269  4.94203e+20
-37.0096  4.92051e+20
-36.8923  4.94175e+20
-36.775  4.98153e+20
-36.6577  5.01413e+20
-36.5404  5.02486e+20
-36.4231  5.01016e+20
-36.3058  4.9841e+20
-36.1885  4.97041e+20
-36.0712  4.99403e+20
-35.9539  5.0709e+20
-35.8366  5.20079e+20
-35.7193  5.3634e+20
-35.602  5.52085e+20
-35.4847  5.62846e+20
-35.3674  5.64388e+20
-35.2501  5.54493e+20
-35.1328  5.33497e+20
-35.0154  5.0472e+20
-34.8981  4.74179e+20
-34.7808  4.48875e+20
-34.6635  4.35827e+20
-34.5462  4.4e+20
-34.4289  4.63079e+20
-34.3116  5.0309e+20
-34.1943  5.54947e+20
-34.077  6.10954e+20
-33.9597  6.62994e+20
-33.8424  7.04118e+20
-33.7251  7.29927e+20
-33.6078  7.39258e+20
-33.4905  7.34133e+20
-33.3732  7.19218e+20
-33.2559  7.00225e+20
-33.1386  6.82133e+20
-33.0213  6.69027e+20
-32.904  6.62218e+20
-32.7867  6.6132e+20
-32.6693  6.64345e+20
-32.552  6.68762e+20
-32.4347  6.72654e+20
-32.3174  6.75561e+20
-32.2001  6.78193e+20
-32.0828  6.82867e+20
-31.9655  6.92089e+20
-31.8482  7.07948e+20
-31.7309  7.30684e+20
-31.6136  7.58974e+20
-31.4963  7.89247e+20
-31.379  8.17163e+20
-31.2617  8.3809e+20
-31.1444  8.48498e+20
-31.0271  8.47024e+20
-30.9098  8.3469e+20
-30.7925  8.15131e+20
-30.6752  7.93229e+20
-30.5579  7.74071e+20
-30.4406  7.6235e+20
-30.3232  7.60346e+20
-30.2059  7.68115e+20
-30.0886  7.83157e+20
-29.9713  8.01525e+20
-29.854  8.18769e+20
-29.7367  8.31057e+20
-29.6194  8.36154e+20
-29.5021  8.33943e+20
-29.3848  8.26177e+20
-29.2675  8.15858e+20
-29.1502  8.05933e+20
-29.0329  7.99004e+20
-28.9156  7.95939e+20
-28.7983  7.95644e+20
-28.681  7.96166e+20
-28.5637  7.94781e+20
-28.4464  7.89187e+20
-28.3291  7.78921e+20
-28.2118  7.65493e+20
-28.0944  7.52348e+20
-27.9771  7.45007e+20
-27.8598  7.4874e+20
-27.7425  7.68399e+20
-27.6252  8.06213e+20
-27.5079  8.61828e+20
-27.3906  9.31532e+20
-27.2733  1.0091e+21
-27.156  1.08686e+21
-27.0387  1.1569e+21
-26.9214  1.21323e+21
-26.8041  1.25203e+21
-26.6868  1.27263e+21
-26.5695  1.27712e+21
-26.4522  1.27001e+21
-26.3349  1.25643e+21
-26.2176  1.2415e+21
-26.1003  1.22915e+21
-25.983  1.22159e+21
-25.8657  1.21925e+21
-25.7483  1.22136e+21
-25.631  1.22686e+21
-25.5137  1.23472e+21
-25.3964  1.24465e+21
-25.2791  1.25701e+21
-25.1618  1.27314e+21
-25.0445  1.29387e+21
-24.9272  1.31948e+21
-24.8099  1.34918e+21
-24.6926  1.38063e+21
-24.5753  1.41042e+21
-24.458  1.43519e+21
-24.3407  1.45229e+21
-24.2234  1.46033e+21
-24.1061  1.46139e+21
-23.9888  1.45959e+21
-23.8715  1.46139e+21
-23.7542  1.47396e+21
-23.6369  1.50485e+21
-23.5196  1.55866e+21
-23.4023  1.63752e+21
-23.2849  1.73959e+21
-23.1676  1.85919e+21
-23.0503  1.98841e+21
-22.933  2.11753e+21
-22.8157  2.2378e+21
-22.6984  2.34196e+21
-22.5811  2.42627e+21
-22.4638  2.48999e+21
-22.3465  2.53533e+21
-22.2292  2.56682e+21
-22.1119  2.58967e+21
-21.9946  2.6092e+21
-21.8773  2.62956e+21
-21.76  2.65389e+21
-21.6427  2.68397e+21
-21.5254  2.72145e+21
-21.4081  2.7683e+21
-21.2908  2.82723e+21
-21.1735  2.90119e+21
-21.0561  2.99459e+21
-20.9388  3.11073e+21
-20.8215  3.25181e+21
-20.7042  3.41737e+21
-20.5869  3.60397e+21
-20.4696  3.80523e+21
-20.3523  4.01226e+21
-20.235  4.21515e+21
-20.1177  4.40435e+21
-20.0004  4.57261e+21
-19.8831  4.71556e+21
-19.7658  4.83223e+21
-19.6485  4.9261e+21
-19.5312  5.00272e+21
-19.4139  5.06887e+21
-19.2966  5.13233e+21
-19.1793  5.19933e+21
-19.062  5.27499e+21
-18.9447  5.36352e+21
-18.8274  5.46823e+21
-18.71  5.59164e+21
-18.5927  5.73794e+21
-18.4754  5.91071e+21
-18.3581  6.11516e+21
-18.2408  6.35513e+21
-18.1235  6.63421e+21
-18.0062  6.95234e+21
-17.8889  7.3071e+21
-17.7716  7.69253e+21
-17.6543  8.09973e+21
-17.537  8.51938e+21
-17.4197  8.94229e+21
-17.3024  9.36065e+21
-17.1851  9.77164e+21
-17.0678  1.01758e+22
-16.9505  1.0577e+22
-16.8332  1.09832e+22
-16.7159  1.1402e+22
-16.5986  1.18417e+22
-16.4813  1.23075e+22
-16.364  1.28025e+22
-16.2466  1.33265e+22
-16.1293  1.38768e+22
-16.012  1.44509e+22
-15.8947  1.50449e+22
-15.7774  1.56576e+22
-15.6601  1.62893e+22
-15.5428  1.69419e+22
-15.4255  1.76186e+22
-15.3082  1.83222e+22
-15.1909  1.90538e+22
-15.0736  1.98126e+22
-14.9563  2.05954e+22
-14.839  2.13961e+22
-14.7217  2.22087e+22
-14.6044  2.30266e+22
-14.4871  2.38446e+22
-14.3698  2.46591e+22
-14.2525  2.54701e+22
-14.1352  2.62782e+22
-14.0178  2.70861e+22
-13.9005  2.78955e+22
-13.7832  2.87076e+22
-13.6659  2.9522e+22
-13.5486  3.0337e+22
-13.4313  3.11496e+22
-13.314  3.19571e+22
-13.1967  3.27584e+22
-13.0794  3.35534e+22
-12.9621  3.43453e+22
-12.8448  3.51382e+22
-12.7275  3.59371e+22
-12.6102  3.67464e+22
-12.4929  3.75687e+22
-12.3756  3.84029e+22
-12.2583  3.9245e+22
-12.141  4.00878e+22
-12.0237  4.09222e+22
-11.9064  4.17389e+22
-11.7891  4.25292e+22
-11.6718  4.32881e+22
-11.5544  4.40133e+22
-11.4371  4.47061e+22
-11.3198  4.53705e+22
-11.2025  4.60126e+22
-11.0852  4.66388e+22
-10.9679  4.72549e+22
-10.8506  4.78654e+22
-10.7333  4.84733e+22
-10.616  4.90817e+22
-10.4987  4.96926e+22
-10.3814  5.03083e+22
-10.2641  5.09331e+22
-10.1468  5.15706e+22
-10.0295  5.22264e+22
-9.91217  5.29045e+22
-9.79487  5.36065e+22
-9.67756  5.43323e+22
-9.56026  5.50789e+22
-9.44295  5.58391e+22
-9.32565  5.66037e+22
-9.20834  5.7363e+22
-9.09104  5.81072e+22
-8.97373  5.88283e+22
-8.85643  5.95217e+22
-8.73913  6.01865e+22
-8.62182  6.08249e+22
-8.50452  6.1441e+22
-8.38721  6.2041e+22
-8.26991  6.26314e+22
-8.1526  6.32173e+22
-8.03529  6.38034e+22
-7.91799  6.43919e+22
-7.80069  6.49853e+22
-7.68338  6.55841e+22
-7.56608  6.61899e+22
-7.44877  6.6805e+22
-7.33146  6.74303e+22
-7.21416  6.8068e+22
-7.09685  6.87185e+22
-6.97955  6.93806e+22
-6.86224  7.00517e+22
-6.74494  7.07253e+22
-6.62763  7.13949e+22
-6.51033  7.20526e+22
-6.39302  7.26911e+22
-6.27572  7.33057e+22
-6.15842  7.3894e+22
-6.04111  7.44574e+22
-5.92381  7.50003e+22
-5.8065  7.55287e+22
-5.68919  7.60494e+22
-5.57189  7.65683e+22
-5.45458  7.70886e+22
-5.33728  7.76106e+22
-5.21997  7.81311e+22
-5.10267  7.8645e+22
-4.98536  7.91452e+22
-4.86806  7.96263e+22
-4.75075  8.00839e+22
-4.63345  8.05167e+22
-4.51614  8.09261e+22
-4.39884  8.13163e+22
-4.28154  8.16921e+22
-4.16423  8.206e+22
-4.04692  8.24237e+22
-3.92962  8.27865e+22
-3.81231  8.31489e+22
-3.69501  8.35099e+22
-3.5777  8.38675e+22
-3.4604  8.42204e+22
-3.34309  8.45673e+22
-3.22579  8.4909e+22
-3.10849  8.52464e+22
-2.99118  8.55811e+22
-2.87387  8.59148e+22
-2.75657  8.62468e+22
-2.63926  8.65748e+22
-2.52196  8.68943e+22
-2.40465  8.71996e+22
-2.28735  8.74847e+22
-2.17005  8.77441e+22
-2.05274  8.79746e+22
-1.93544  8.81757e+22
-1.81813  8.83501e+22
-1.70083  8.85024e+22
-1.58352  8.86386e+22
-1.46622  8.87638e+22
-1.34891  8.88819e+22
-1.2316  8.89943e+22
-1.1143  8.90997e+22
-0.996995  8.9195e+22
-0.87969  8.92765e+22
-0.762385  8.93402e+22
-0.64508  8.93855e+22
-0.527775  8.94123e+22
-0.41047  8.94243e+22
-0.293165  8.9426e+22
-0.17586  8.94232e+22
-0.058555  8.94196e+22
0.05875  8.94178e+22
0.176055  8.94167e+22
0.29336  8.94143e+22
0.410665  8.94048e+22
0.52797  8.93834e+22
0.645275  8.93458e+22
0.76258  8.92898e+22
0.879885  8.9215e+22
0.99719  8.91245e+22
1.1145  8.90217e+22
1.2318  8.89102e+22
1.3491  8.87929e+22
1.46641  8.86698e+22
1.58371  8.85387e+22
1.70102  8.83943e+22
1.81832  8.82315e+22
1.93563  8.80444e+22
2.05294  8.78289e+22
2.17024  8.75837e+22
2.28754  8.73106e+22
2.40485  8.70135e+22
2.52216  8.66987e+22
2.63946  8.6372e+22
2.75677  8.60392e+22
2.87407  8.57039e+22
2.99137  8.53673e+22
3.10868  8.50292e+22
3.22599  8.46879e+22
3.34329  8.43416e+22
3.4606  8.39893e+22
3.5779  8.36311e+22
3.69521  8.32683e+22
3.81251  8.29028e+22
3.92982  8.25368e+22
4.04712  8.21702e+22
4.16443  8.18016e+22
4.28173  8.14279e+22
4.39903  8.10442e+22
4.51634  8.06442e+22
4.63364  8.02232e+22
4.75095  7.97781e+22
4.86825  7.93085e+22
4.98556  7.8817e+22
5.10286  7.83087e+22
5.22017  7.779e+22
5.33748  7.7267e+22
5.45478  7.67445e+22
5.57209  7.62239e+22
5.68939  7.57037e+22
5.8067  7.51793e+22
5.924  7.46442e+22
6.0413  7.40918e+22
6.15861  7.35165e+22
6.27591  7.29148e+22
6.39322  7.22872e+22
6.51052  7.16373e+22
6.62783  7.09711e+22
6.74514  7.02963e+22
6.86244  6.96205e+22
6.97975  6.89506e+22
7.09705  6.82907e+22
7.21436  6.76436e+22
7.33166  6.70094e+22
7.44897  6.63868e+22
7.56627  6.57743e+22
7.68358  6.51701e+22
7.80088  6.45725e+22
7.91819  6.39807e+22
8.03549  6.33934e+22
8.1528  6.28077e+22
8.2701  6.22208e+22
8.38741  6.16278e+22
8.50471  6.10223e+22
8.62202  6.03982e+22
8.73932  5.97499e+22
8.85662  5.90731e+22
8.97393  5.8368e+22
9.09123  5.76365e+22
9.20854  5.68851e+22
9.32584  5.61225e+22
9.44315  5.53588e+22
9.56045  5.46035e+22
9.67776  5.38652e+22
9.79506  5.3149e+22
9.91237  5.24574e+22
10.0297  5.17891e+22
10.147  5.11411e+22
10.2643  5.05089e+22
10.3816  4.98883e+22
10.4989  4.92745e+22
10.6162  4.86646e+22
10.7335  4.8056e+22
10.8508  4.74464e+22
10.9681  4.68327e+22
11.0854  4.62109e+22
11.2027  4.55763e+22
11.32  4.49221e+22
11.4373  4.42426e+22
11.5546  4.35327e+22
11.6719  4.27899e+22
11.7893  4.20141e+22
11.9066  4.12091e+22
12.0239  4.03819e+22
12.1412  3.95417e+22
12.2585  3.86977e+22
12.3758  3.78584e+22
12.4931  3.70294e+22
12.6104  3.62138e+22
12.7277  3.54103e+22
12.845  3.46156e+22
12.9623  3.38247e+22
13.0796  3.30326e+22
13.1969  3.22352e+22
13.3142  3.1431e+22
13.4315  3.062e+22
13.5488  2.98045e+22
13.6661  2.89873e+22
13.7834  2.81718e+22
13.9007  2.73588e+22
14.018  2.65486e+22
14.1354  2.57399e+22
14.2527  2.4931e+22
14.37  2.41195e+22
14.4873  2.33057e+22
14.6046  2.24904e+22
14.7219  2.1678e+22
14.8392  2.08741e+22
14.9565  2.00848e+22
15.0738  1.93164e+22
15.1911  1.85734e+22
15.3084  1.7858e+22
15.4257  1.71707e+22
15.543  1.6509e+22
15.6603  1.58695e+22
15.7776  1.52503e+22
15.8949  1.46496e+22
16.0122  1.40678e+22
16.1295  1.35073e+22
16.2468  1.29718e+22
16.3641  1.24641e+22
16.4815  1.19857e+22
16.5988  1.15361e+22
16.7161  1.1111e+22
16.8334  1.07039e+22
16.9507  1.03065e+22
17.068  9.91067e+21
17.1853  9.50976e+21
17.3026  9.10089e+21
17.4199  8.68525e+21
17.5372  8.2675e+21
17.6545  7.85582e+21
17.7718  7.46013e+21
17.8891  7.08973e+21
18.0064  6.75265e+21
18.1237  6.45292e+21
18.241  6.19274e+21
18.3583  5.97041e+21
18.4756  5.78203e+21
18.5929  5.62318e+21
18.7102  5.48945e+21
18.8275  5.37653e+21
18.9449  5.28148e+21
19.0622  5.20065e+21
19.1795  5.13131e+21
19.2968  5.06898e+21
19.4141  5.00749e+21
19.5314  4.93964e+21
19.6487  4.85862e+21
19.766  4.75762e+21
19.8833  4.63156e+21
20.0006  4.4794e+21
20.1179  4.30283e+21
20.2352  4.10757e+21
20.3525  3.90253e+21
20.4698  3.69742e+21
20.5871  3.50207e+21
20.7044  3.32421e+21
20.8217  3.16934e+21
20.939  3.03946e+21
21.0563  2.93373e+21
21.1736  2.84939e+21
21.291  2.78209e+21
21.4083  2.72847e+21
21.5256  2.68519e+21
21.6429  2.65016e+21
21.7602  2.62187e+21
21.8775  2.59874e+21
21.9948  2.57858e+21
22.1121  2.55785e+21
22.2294  2.53217e+21
22.3467  2.49595e+21
22.464  2.44402e+21
22.5813  2.37277e+21
22.6986  2.28095e+21
22.8159  2.17043e+21
22.9332  2.0469e+21
23.0505  1.91811e+21
23.1678  1.79373e+21
23.2851  1.68259e+21
23.4024  1.59188e+21
23.5198  1.52546e+21
23.6371  1.48382e+21
23.7544  1.46295e+21
23.8717  1.45716e+21
23.989  1.45856e+21
24.1063  1.46022e+21
24.2236  1.4564e+21
24.3409  1.44417e+21
24.4582  1.42298e+21
24.5755  1.39499e+21
24.6928  1.36336e+21
24.8101  1.33193e+21
24.9274  1.30353e+21
25.0447  1.27978e+21
25.162  1.26122e+21
25.2793  1.24706e+21
25.3966  1.2361e+21
25.5139  1.22746e+21
25.6312  1.22086e+21
25.7485  1.21699e+21
25.8658  1.21681e+21
25.9832  1.22147e+21
26.1005  1.23144e+21
26.2178  1.24516e+21
26.3351  1.25979e+21
26.4524  1.27086e+21
26.5697  1.27312e+21
26.687  1.26156e+21
26.8043  1.23281e+21
26.9216  1.18597e+21
27.0389  1.12303e+21
27.1562  1.04895e+21
27.2735  9.70817e+20
27.3908  8.96279e+20
27.5081  8.3241e+20
27.6254  7.84609e+20
27.7427  7.55093e+20
27.86  7.42724e+20
27.9773  7.44356e+20
28.0946  7.54671e+20
28.212  7.68196e+20
28.3293  7.80497e+20
28.4466  7.88666e+20
28.5639  7.92355e+20
28.6812  7.92889e+20
28.7985  7.92541e+20
28.9158  7.93793e+20
29.0331  7.98554e+20
29.1504  8.06819e+20
29.2677  8.1695e+20
29.385  8.26432e+20
29.5023  8.31798e+20
29.6196  8.30858e+20
29.7369  8.22707e+20
29.8542  8.08285e+20
29.9715  7.90584e+20
30.0888  7.73668e+20
30.2061  7.61986e+20
30.3234  7.58785e+20
30.4407  7.65422e+20
30.558  7.80959e+20
30.6754  8.01911e+20
30.7927  8.2357e+20
30.91  8.406e+20
31.0273  8.48552e+20
31.1446  8.4506e+20
31.2619  8.30015e+20
31.3792  8.05732e+20
31.4965  7.76225e+20
31.6138  7.46299e+20
31.7311  7.19967e+20
31.8484  6.99912e+20
31.9657  6.86857e+20
32.083  6.79679e+20
32.2003  6.76097e+20
32.3176  6.73652e+20
32.4349  6.70532e+20
32.5522  6.66428e+20
32.6695  6.62391e+20
32.7868  6.60608e+20
32.9042  6.63442e+20
33.0215  6.72484e+20
33.1388  6.8737e+20
33.2561  7.05896e+20
33.3734  7.23466e+20
33.4907  7.34691e+20
33.608  7.34293e+20
33.7253  7.18501e+20
33.8426  6.86422e+20
33.9599  6.40501e+20
34.0772  5.86307e+20
34.1945  5.31396e+20
34.3118  4.83893e+20
34.4291  4.50494e+20
34.5464  4.35355e+20
34.6637  4.38963e+20
34.781  4.58186e+20
34.8983  4.87127e+20
35.0156  5.18346e+20
35.1329  5.45092e+20
35.2503  5.62165e+20
35.3676  5.67348e+20
35.4849  5.61553e+20
35.6022  5.4776e+20
35.7195  5.30555e+20
35.8368  5.14505e+20
35.9541  5.02854e+20
36.0714  4.96959e+20
36.1887  4.96154e+20
36.306  4.98374e+20
36.4233  5.00986e+20
36.5406  5.01892e+20
36.6579  5.00206e+20
36.7752  4.96585e+20
36.8925  4.93191e+20
37.0098  4.92586e+20
37.1271  4.96876e+20
37.2444  5.0671e+20
37.3617  5.21063e+20
37.479  5.36803e+20
37.5964  5.49677e+20
37.7137  5.55093e+20
37.831  5.49624e+20
37.9483  5.31981e+20
38.0656  5.03285e+20
38.1829  4.67095e+20
38.3002  4.2897e+20
38.4175  3.94726e+20
38.5348  3.69328e+20
38.6521  3.55832e+20
38.7694  3.54693e+20
38.8867  3.63422e+20
39.004  3.78163e+20
39.1213  3.93985e+20
39.2386  4.06556e+20
39.3559  4.13155e+20
39.4732  4.13274e+20
39.5905  4.08534e+20
39.7078  4.0191e+20
39.8251  3.97049e+20
39.9425  3.96858e+20
40.0598  4.02666e+20
40.1771  4.13954e+20
40.2944  4.28275e+20
40.4117  4.42179e+20
40.529  4.52156e+20
40.6463  4.55636e+20
40.7636  4.5176e+20
40.8809  4.4173e+20
40.9982  4.28602e+20
41.1155  4.16348e+20
41.2328  4.09058e+20
41.3501  4.09561e+20
41.4674  4.18947e+20
41.5847  4.36119e+20
41.702  4.58175e+20
41.8193  4.80841e+20
41.9366  4.99985e+20
42.0539  5.12021e+20
42.1712  5.15252e+20
42.2885  5.09722e+20
42.4059  4.97352e+20
42.5232  4.81136e+20
42.6405  4.6466e+20
42.7578  4.50582e+20
42.8751  4.40513e+20
42.9924  4.34582e+20
43.1097  4.31627e+20
43.227  4.2967e+20
43.3443  4.2685e+20
43.4616  4.21938e+20
43.5789  4.14943e+20
43.6962  4.07007e+20
43.8135  4.00302e+20
43.9308  3.97035e+20
44.0481  3.98878e+20
44.1654  4.06217e+20
44.2827  4.17609e+20
44.4  4.29946e+20
44.5173  4.39285e+20
44.6347  4.41398e+20
44.752  4.33202e+20
44.8693  4.13526e+20
44.9866  3.83631e+20
45.1039  3.47291e+20
45.2212  3.10106e+20
45.3385  2.78276e+20
45.4558  2.57308e+20
45.5731  2.50704e+20
45.6904  2.59228e+20
45.8077  2.80626e+20
45.925  3.10126e+20
46.0423  3.41395e+20
46.1596  3.68111e+20
46.2769  3.85457e+20
46.3942  3.90859e+20
46.5115  3.845e+20
46.6288  3.69366e+20
46.7461  3.49898e+20
46.8634  3.31106e+20
46.9808  3.17108e+20
47.0981  3.1016e+20
47.2154  3.10393e+20
47.3327  3.15976e+20
47.45  3.23692e+20
47.5673  3.30233e+20
47.6846  3.33409e+20
47.8019  3.32336e+20
47.9192  3.27997e+20
48.0365  3.22954e+20
48.1538  3.2003e+20
48.2711  3.21461e+20
48.3884  3.28285e+20
48.5057  3.39501e+20
48.623  3.52231e+20
48.7403  3.62701e+20
48.8576  3.67277e+20
48.9749  3.63249e+20
49.0922  3.50071e+20
49.2095  3.29684e+20
49.3269  3.05976e+20
49.4442  2.83805e+20
49.5615  2.67841e+20
49.6788  2.61275e+20
49.7961  2.64902e+20
49.9134  2.76831e+20
50.0307  2.93232e+20
50.148  3.09095e+20
50.2653  3.19879e+20
50.3826  3.22657e+20
50.4999  3.17029e+20
50.6172  3.05099e+20
50.7345  2.90968e+20
50.8518  2.79506e+20
