#S 1 spectral density
#N 2
#UFWHM 16.3054
#L  abscissas [um]  spectral density
-58.5938  1.32531e+21
-58.4764  1.33703e+21
-58.3591  1.35176e+21
-58.2418  1.36874e+21
-58.1245  1.38734e+21
-58.0072  1.40582e+21
-57.8899  1.42222e+21
-57.7726  1.4339e+21
-57.6553  1.43879e+21
-57.538  1.43499e+21
-57.4207  1.42211e+21
-57.3034  1.40112e+21
-57.1861  1.37417e+21
-57.0688  1.34592e+21
-56.9515  1.32048e+21
-56.8342  1.30273e+21
-56.7169  1.29659e+21
-56.5996  1.30384e+21
-56.4823  1.32445e+21
-56.365  1.35599e+21
-56.2477  1.39389e+21
-56.1303  1.43284e+21
-56.013  1.46707e+21
-55.8957  1.49177e+21
-55.7784  1.50411e+21
-55.6611  1.50344e+21
-55.5438  1.49151e+21
-55.4265  1.47181e+21
-55.3092  1.44894e+21
-55.1919  1.4273e+21
-55.0746  1.41028e+21
-54.9573  1.39975e+21
-54.84  1.39606e+21
-54.7227  1.39748e+21
-54.6054  1.40152e+21
-54.4881  1.40567e+21
-54.3708  1.4076e+21
-54.2535  1.40599e+21
-54.1362  1.40093e+21
-54.0189  1.39281e+21
-53.9016  1.38279e+21
-53.7842  1.37208e+21
-53.6669  1.36092e+21
-53.5496  1.34915e+21
-53.4323  1.33631e+21
-53.315  1.32177e+21
-53.1977  1.30557e+21
-53.0804  1.28831e+21
-52.9631  1.27252e+21
-52.8458  1.26057e+21
-52.7285  1.2559e+21
-52.6112  1.26079e+21
-52.4939  1.2758e+21
-52.3766  1.30033e+21
-52.2593  1.33036e+21
-52.142  1.36091e+21
-52.0247  1.38614e+21
-51.9074  1.40048e+21
-51.7901  1.40041e+21
-51.6728  1.38526e+21
-51.5555  1.35714e+21
-51.4381  1.32114e+21
-51.3208  1.28371e+21
-51.2035  1.25144e+21
-51.0862  1.22975e+21
-50.9689  1.22142e+21
-50.8516  1.22638e+21
-50.7343  1.24165e+21
-50.617  1.2624e+21
-50.4997  1.28312e+21
-50.3824  1.29884e+21
-50.2651  1.30669e+21
-50.1478  1.3061e+21
-50.0305  1.29871e+21
-49.9132  1.28744e+21
-49.7959  1.27608e+21
-49.6786  1.26752e+21
-49.5613  1.26345e+21
-49.444  1.26382e+21
-49.3267  1.26696e+21
-49.2094  1.27053e+21
-49.092  1.27257e+21
-48.9747  1.27176e+21
-48.8574  1.26827e+21
-48.7401  1.26381e+21
-48.6228  1.2608e+21
-48.5055  1.26198e+21
-48.3882  1.26867e+21
-48.2709  1.28132e+21
-48.1536  1.29785e+21
-48.0363  1.31525e+21
-47.919  1.32959e+21
-47.8017  1.33697e+21
-47.6844  1.33577e+21
-47.5671  1.32528e+21
-47.4498  1.30784e+21
-47.3325  1.28734e+21
-47.2152  1.26832e+21
-47.0979  1.25528e+21
-46.9806  1.2511e+21
-46.8633  1.25645e+21
-46.7459  1.26986e+21
-46.6286  1.28745e+21
-46.5113  1.30462e+21
-46.394  1.31666e+21
-46.2767  1.32034e+21
-46.1594  1.31451e+21
-46.0421  1.30039e+21
-45.9248  1.28129e+21
-45.8075  1.2616e+21
-45.6902  1.24583e+21
-45.5729  1.23776e+21
-45.4556  1.23936e+21
-45.3383  1.25013e+21
-45.221  1.26787e+21
-45.1037  1.28932e+21
-44.9864  1.31032e+21
-44.8691  1.32764e+21
-44.7518  1.33937e+21
-44.6345  1.34481e+21
-44.5172  1.34506e+21
-44.3998  1.34251e+21
-44.2825  1.33941e+21
-44.1652  1.33788e+21
-44.0479  1.33923e+21
-43.9306  1.34352e+21
-43.8133  1.34977e+21
-43.696  1.35615e+21
-43.5787  1.36144e+21
-43.4614  1.36402e+21
-43.3441  1.36393e+21
-43.2268  1.36202e+21
-43.1095  1.35954e+21
-42.9922  1.35909e+21
-42.8749  1.3619e+21
-42.7576  1.36929e+21
-42.6403  1.38106e+21
-42.523  1.39578e+21
-42.4057  1.41135e+21
-42.2884  1.42526e+21
-42.171  1.43526e+21
-42.0537  1.44026e+21
-41.9364  1.44014e+21
-41.8191  1.43632e+21
-41.7018  1.43114e+21
-41.5845  1.42724e+21
-41.4672  1.42705e+21
-41.3499  1.43194e+21
-41.2326  1.44192e+21
-41.1153  1.45518e+21
-40.998  1.46877e+21
-40.8807  1.47946e+21
-40.7634  1.48409e+21
-40.6461  1.48049e+21
-40.5288  1.46805e+21
-40.4115  1.44823e+21
-40.2942  1.42335e+21
-40.1769  1.39698e+21
-40.0596  1.37286e+21
-39.9423  1.35367e+21
-39.825  1.34119e+21
-39.7076  1.33601e+21
-39.5903  1.33699e+21
-39.473  1.34283e+21
-39.3557  1.35194e+21
-39.2384  1.36315e+21
-39.1211  1.37638e+21
-39.0038  1.39156e+21
-38.8865  1.41015e+21
-38.7692  1.43223e+21
-38.6519  1.45824e+21
-38.5346  1.48693e+21
-38.4173  1.51592e+21
-38.3  1.54243e+21
-38.1827  1.56286e+21
-38.0654  1.57472e+21
-37.9481  1.57658e+21
-37.8308  1.56868e+21
-37.7135  1.55326e+21
-37.5962  1.53365e+21
-37.4789  1.51408e+21
-37.3615  1.49801e+21
-37.2442  1.48774e+21
-37.1269  1.48388e+21
-37.0096  1.48491e+21
-36.8923  1.48805e+21
-36.775  1.49006e+21
-36.6577  1.48804e+21
-36.5404  1.48079e+21
-36.4231  1.46855e+21
-36.3058  1.45369e+21
-36.1885  1.43993e+21
-36.0712  1.43119e+21
-35.9539  1.43093e+21
-35.8366  1.44066e+21
-35.7193  1.46045e+21
-35.602  1.48742e+21
-35.4847  1.51807e+21
-35.3674  1.54777e+21
-35.2501  1.57256e+21
-35.1328  1.58991e+21
-35.0154  1.59943e+21
-34.8981  1.60199e+21
-34.7808  1.59988e+21
-34.6635  1.59599e+21
-34.5462  1.59233e+21
-34.4289  1.58974e+21
-34.3116  1.5874e+21
-34.1943  1.58344e+21
-34.077  1.57494e+21
-33.9597  1.55993e+21
-33.8424  1.5372e+21
-33.7251  1.50773e+21
-33.6078  1.47448e+21
-33.4905  1.44147e+21
-33.3732  1.4141e+21
-33.2559  1.39666e+21
-33.1386  1.39193e+21
-33.0213  1.40077e+21
-32.904  1.4214e+21
-32.7867  1.45052e+21
-32.6693  1.48373e+21
-32.552  1.51658e+21
-32.4347  1.54625e+21
-32.3174  1.57128e+21
-32.2001  1.5925e+21
-32.0828  1.61169e+21
-31.9655  1.63195e+21
-31.8482  1.65539e+21
-31.7309  1.68287e+21
-31.6136  1.71334e+21
-31.4963  1.74431e+21
-31.379  1.77166e+21
-31.2617  1.79119e+21
-31.1444  1.79946e+21
-31.0271  1.79512e+21
-30.9098  1.77844e+21
-30.7925  1.75227e+21
-30.6752  1.72068e+21
-30.5579  1.68848e+21
-30.4406  1.65987e+21
-30.3232  1.63786e+21
-30.2059  1.62298e+21
-30.0886  1.61455e+21
-29.9713  1.61009e+21
-29.854  1.60688e+21
-29.7367  1.60249e+21
-29.6194  1.59566e+21
-29.5021  1.58711e+21
-29.3848  1.57839e+21
-29.2675  1.57225e+21
-29.1502  1.5715e+21
-29.0329  1.57799e+21
-28.9156  1.5921e+21
-28.7983  1.6127e+21
-28.681  1.6371e+21
-28.5637  1.66195e+21
-28.4464  1.6836e+21
-28.3291  1.7002e+21
-28.2118  1.71084e+21
-28.0944  1.71692e+21
-27.9771  1.72119e+21
-27.8598  1.72677e+21
-27.7425  1.73686e+21
-27.6252  1.75344e+21
-27.5079  1.77623e+21
-27.3906  1.80336e+21
-27.2733  1.83123e+21
-27.156  1.85553e+21
-27.0387  1.87193e+21
-26.9214  1.87771e+21
-26.8041  1.87233e+21
-26.6868  1.85699e+21
-26.5695  1.83587e+21
-26.4522  1.81355e+21
-26.3349  1.79531e+21
-26.2176  1.78507e+21
-26.1003  1.78524e+21
-25.983  1.79575e+21
-25.8657  1.81437e+21
-25.7483  1.83758e+21
-25.631  1.86098e+21
-25.5137  1.88055e+21
-25.3964  1.89316e+21
-25.2791  1.89758e+21
-25.1618  1.89417e+21
-25.0445  1.88429e+21
-24.9272  1.86996e+21
-24.8099  1.85342e+21
-24.6926  1.83613e+21
-24.5753  1.81919e+21
-24.458  1.80301e+21
-24.3407  1.78789e+21
-24.2234  1.77427e+21
-24.1061  1.76364e+21
-23.9888  1.75823e+21
-23.8715  1.76111e+21
-23.7542  1.77486e+21
-23.6369  1.80205e+21
-23.5196  1.84312e+21
-23.4023  1.89703e+21
-23.2849  1.9602e+21
-23.1676  2.02706e+21
-23.0503  2.09155e+21
-22.933  2.14713e+21
-22.8157  2.1892e+21
-22.6984  2.21485e+21
-22.5811  2.22457e+21
-22.4638  2.22128e+21
-22.3465  2.21009e+21
-22.2292  2.19737e+21
-22.1119  2.18904e+21
-21.9946  2.18984e+21
-21.8773  2.20264e+21
-21.76  2.22765e+21
-21.6427  2.26328e+21
-21.5254  2.30592e+21
-21.4081  2.35226e+21
-21.2908  2.39856e+21
-21.1735  2.44263e+21
-21.0561  2.48285e+21
-20.9388  2.51957e+21
-20.8215  2.55351e+21
-20.7042  2.58525e+21
-20.5869  2.61569e+21
-20.4696  2.64514e+21
-20.3523  2.67299e+21
-20.235  2.69959e+21
-20.1177  2.72487e+21
-20.0004  2.74995e+21
-19.8831  2.77728e+21
-19.7658  2.80982e+21
-19.6485  2.85139e+21
-19.5312  2.90486e+21
-19.4139  2.97246e+21
-19.2966  3.05475e+21
-19.1793  3.14975e+21
-19.062  3.25362e+21
-18.9447  3.36204e+21
-18.8274  3.46974e+21
-18.71  3.57258e+21
-18.5927  3.6684e+21
-18.4754  3.75653e+21
-18.3581  3.83925e+21
-18.2408  3.91951e+21
-18.1235  4.00219e+21
-18.0062  4.08998e+21
-17.8889  4.18617e+21
-17.7716  4.2911e+21
-17.6543  4.40385e+21
-17.537  4.52214e+21
-17.4197  4.64444e+21
-17.3024  4.76821e+21
-17.1851  4.8937e+21
-17.0678  5.02225e+21
-16.9505  5.15597e+21
-16.8332  5.29839e+21
-16.7159  5.45143e+21
-16.5986  5.61637e+21
-16.4813  5.79167e+21
-16.364  5.97409e+21
-16.2466  6.15818e+21
-16.1293  6.3375e+21
-16.012  6.50678e+21
-15.8947  6.66193e+21
-15.7774  6.80192e+21
-15.6601  6.92835e+21
-15.5428  7.04599e+21
-15.4255  7.16169e+21
-15.3082  7.28272e+21
-15.1909  7.41586e+21
-15.0736  7.56674e+21
-14.9563  7.73917e+21
-14.839  7.9341e+21
-14.7217  8.1523e+21
-14.6044  8.39239e+21
-14.4871  8.65302e+21
-14.3698  8.93241e+21
-14.2525  9.22982e+21
-14.1352  9.5428e+21
-14.0178  9.8693e+21
-13.9005  1.02051e+22
-13.7832  1.0544e+22
-13.6659  1.08788e+22
-13.5486  1.12013e+22
-13.4313  1.15039e+22
-13.314  1.17802e+22
-13.1967  1.20273e+22
-13.0794  1.22465e+22
-12.9621  1.24426e+22
-12.8448  1.26256e+22
-12.7275  1.28072e+22
-12.6102  1.29995e+22
-12.4929  1.32158e+22
-12.3756  1.34657e+22
-12.2583  1.37558e+22
-12.141  1.40891e+22
-12.0237  1.44657e+22
-11.9064  1.48829e+22
-11.7891  1.53367e+22
-11.6718  1.58225e+22
-11.5544  1.63358e+22
-11.4371  1.68737e+22
-11.3198  1.74321e+22
-11.2025  1.80088e+22
-11.0852  1.86007e+22
-10.9679  1.92041e+22
-10.8506  1.9816e+22
-10.7333  2.04327e+22
-10.616  2.10528e+22
-10.4987  2.16757e+22
-10.3814  2.23038e+22
-10.2641  2.29425e+22
-10.1468  2.35996e+22
-10.0295  2.42832e+22
-9.91217  2.50031e+22
-9.79487  2.57668e+22
-9.67756  2.65796e+22
-9.56026  2.74432e+22
-9.44295  2.83552e+22
-9.32565  2.931e+22
-9.20834  3.02994e+22
-9.09104  3.13134e+22
-8.97373  3.23422e+22
-8.85643  3.33777e+22
-8.73913  3.44125e+22
-8.62182  3.54401e+22
-8.50452  3.64576e+22
-8.38721  3.74604e+22
-8.26991  3.84464e+22
-8.1526  3.94112e+22
-8.03529  4.0352e+22
-7.91799  4.12648e+22
-7.80069  4.21477e+22
-7.68338  4.29987e+22
-7.56608  4.38197e+22
-7.44877  4.46144e+22
-7.33146  4.53885e+22
-7.21416  4.61497e+22
-7.09685  4.69069e+22
-6.97955  4.76679e+22
-6.86224  4.84398e+22
-6.74494  4.92259e+22
-6.62763  5.00288e+22
-6.51033  5.08483e+22
-6.39302  5.16817e+22
-6.27572  5.25269e+22
-6.15842  5.33805e+22
-6.04111  5.424e+22
-5.92381  5.51036e+22
-5.8065  5.59693e+22
-5.68919  5.68342e+22
-5.57189  5.7696e+22
-5.45458  5.85488e+22
-5.33728  5.93876e+22
-5.21997  6.02048e+22
-5.10267  6.09934e+22
-4.98536  6.17466e+22
-4.86806  6.24616e+22
-4.75075  6.3137e+22
-4.63345  6.37763e+22
-4.51614  6.43852e+22
-4.39884  6.49728e+22
-4.28154  6.55475e+22
-4.16423  6.61201e+22
-4.04692  6.66966e+22
-3.92962  6.72822e+22
-3.81231  6.7878e+22
-3.69501  6.84824e+22
-3.5777  6.90924e+22
-3.4604  6.97033e+22
-3.34309  7.03105e+22
-3.22579  7.09095e+22
-3.10849  7.1498e+22
-2.99118  7.20723e+22
-2.87387  7.26313e+22
-2.75657  7.3172e+22
-2.63926  7.36913e+22
-2.52196  7.4185e+22
-2.40465  7.46495e+22
-2.28735  7.50804e+22
-2.17005  7.54748e+22
-2.05274  7.58322e+22
-1.93544  7.61527e+22
-1.81813  7.64409e+22
-1.70083  7.67017e+22
-1.58352  7.69408e+22
-1.46622  7.71638e+22
-1.34891  7.73736e+22
-1.2316  7.75733e+22
-1.1143  7.77614e+22
-0.996995  7.79362e+22
-0.87969  7.80941e+22
-0.762385  7.82316e+22
-0.64508  7.83469e+22
-0.527775  7.84389e+22
-0.41047  7.85092e+22
-0.293165  7.85594e+22
-0.17586  7.85931e+22
-0.058555  7.86122e+22
0.05875  7.86183e+22
0.176055  7.86105e+22
0.29336  7.85883e+22
0.410665  7.8547e+22
0.52797  7.84855e+22
0.645275  7.8401e+22
0.76258  7.82936e+22
0.879885  7.81641e+22
0.99719  7.80157e+22
1.1145  7.78516e+22
1.2318  7.7675e+22
1.3491  7.74873e+22
1.46641  7.72892e+22
1.58371  7.70767e+22
1.70102  7.68456e+22
1.81832  7.65907e+22
1.93563  7.63057e+22
2.05294  7.59863e+22
2.17024  7.56298e+22
2.28754  7.52362e+22
2.40485  7.4807e+22
2.52216  7.43463e+22
2.63946  7.38573e+22
2.75677  7.33446e+22
2.87407  7.28122e+22
2.99137  7.22622e+22
3.10868  7.16965e+22
3.22599  7.11175e+22
3.34329  7.05279e+22
3.4606  6.99304e+22
3.5779  6.93303e+22
3.69521  6.87323e+22
3.81251  6.81405e+22
3.92982  6.75582e+22
4.04712  6.69862e+22
4.16443  6.64213e+22
4.28173  6.58588e+22
4.39903  6.529e+22
4.51634  6.47056e+22
4.63364  6.40956e+22
4.75095  6.34529e+22
4.86825  6.27713e+22
4.98556  6.20502e+22
5.10286  6.12902e+22
5.22017  6.04968e+22
5.33748  5.96763e+22
5.45478  5.88364e+22
5.57209  5.79835e+22
5.68939  5.71234e+22
5.8067  5.62607e+22
5.924  5.5398e+22
6.0413  5.45382e+22
6.15861  5.36833e+22
6.27591  5.28355e+22
6.39322  5.19982e+22
6.51052  5.11746e+22
6.62783  5.03671e+22
6.74514  4.95773e+22
6.86244  4.88042e+22
6.97975  4.80453e+22
7.09705  4.72946e+22
7.21436  4.65445e+22
7.33166  4.57868e+22
7.44897  4.50124e+22
7.56627  4.42149e+22
7.68358  4.33889e+22
7.80088  4.25316e+22
7.91819  4.16435e+22
8.03549  4.07264e+22
8.1528  3.9783e+22
8.2701  3.88168e+22
8.38741  3.78316e+22
8.50471  3.68294e+22
8.62202  3.58141e+22
8.73932  3.47879e+22
8.85662  3.37552e+22
8.97393  3.27219e+22
9.09123  3.16952e+22
9.20854  3.06841e+22
9.32584  2.9698e+22
9.44315  2.87462e+22
9.56045  2.78362e+22
9.67776  2.69725e+22
9.79506  2.61565e+22
9.91237  2.53852e+22
10.0297  2.46538e+22
10.147  2.39537e+22
10.2643  2.32768e+22
10.3816  2.2616e+22
10.4989  2.19638e+22
10.6162  2.13176e+22
10.7335  2.0676e+22
10.8508  2.00396e+22
10.9681  1.94109e+22
11.0854  1.87933e+22
11.2027  1.81897e+22
11.32  1.76029e+22
11.4373  1.70357e+22
11.5546  1.64914e+22
11.6719  1.59731e+22
11.7893  1.54848e+22
11.9066  1.50308e+22
12.0239  1.46159e+22
12.1412  1.42437e+22
12.2585  1.39165e+22
12.3758  1.36328e+22
12.4931  1.33882e+22
12.6104  1.31748e+22
12.7277  1.29817e+22
12.845  1.27956e+22
12.9623  1.26042e+22
13.0796  1.23961e+22
13.1969  1.21635e+22
13.3142  1.19025e+22
13.4315  1.16129e+22
13.5488  1.12988e+22
13.6661  1.09674e+22
13.7834  1.06268e+22
13.9007  1.02842e+22
14.018  9.94711e+21
14.1354  9.62105e+21
14.2527  9.30936e+21
14.37  9.01425e+21
14.4873  8.73785e+21
14.6046  8.48181e+21
14.7219  8.24692e+21
14.8392  8.03441e+21
14.9565  7.84546e+21
15.0738  7.67858e+21
15.1911  7.53187e+21
15.3084  7.4006e+21
15.4257  7.27875e+21
15.543  7.15862e+21
15.6603  7.03288e+21
15.7776  6.8959e+21
15.8949  6.74402e+21
16.0122  6.57647e+21
16.1295  6.39591e+21
16.2468  6.20669e+21
16.3641  6.01555e+21
16.4815  5.82831e+21
16.5988  5.64989e+21
16.7161  5.4835e+21
16.8334  5.32904e+21
16.9507  5.18575e+21
17.068  5.05063e+21
17.1853  4.9206e+21
17.3026  4.79413e+21
17.4199  4.67009e+21
17.5372  4.54935e+21
17.6545  4.43377e+21
17.7718  4.32529e+21
17.8891  4.22569e+21
18.0064  4.13489e+21
18.1237  4.05123e+21
18.241  3.97164e+21
18.3583  3.89222e+21
18.4756  3.80868e+21
18.5929  3.71788e+21
18.7102  3.61878e+21
18.8275  3.51217e+21
18.9449  3.40137e+21
19.0622  3.29076e+21
19.1795  3.18535e+21
19.2968  3.08984e+21
19.4141  3.00696e+21
19.5314  2.93791e+21
19.6487  2.8819e+21
19.766  2.83648e+21
19.8833  2.79865e+21
20.0006  2.76525e+21
20.1179  2.73396e+21
20.2352  2.70297e+21
20.3525  2.67215e+21
20.4698  2.64145e+21
20.5871  2.61097e+21
20.7044  2.58044e+21
20.8217  2.54949e+21
20.939  2.51654e+21
21.0563  2.48067e+21
21.1736  2.44094e+21
21.291  2.39762e+21
21.4083  2.35255e+21
21.5256  2.30828e+21
21.6429  2.26912e+21
21.7602  2.2386e+21
21.8775  2.21983e+21
21.9948  2.21381e+21
22.1121  2.21938e+21
22.2294  2.2328e+21
22.3467  2.24843e+21
22.464  2.25963e+21
22.5813  2.26036e+21
22.6986  2.2457e+21
22.8159  2.21342e+21
22.9332  2.16469e+21
23.0505  2.10286e+21
23.1678  2.0336e+21
23.2851  1.96344e+21
23.4024  1.89879e+21
23.5198  1.84436e+21
23.6371  1.80311e+21
23.7544  1.7757e+21
23.8717  1.76082e+21
23.989  1.75646e+21
24.1063  1.75957e+21
24.2236  1.76787e+21
24.3409  1.77979e+21
24.4582  1.79418e+21
24.5755  1.81101e+21
24.6928  1.82982e+21
24.8101  1.84976e+21
24.9274  1.86925e+21
25.0447  1.88606e+21
25.162  1.89766e+21
25.2793  1.90184e+21
25.3966  1.89702e+21
25.5139  1.88374e+21
25.6312  1.86359e+21
25.7485  1.84015e+21
25.8658  1.81819e+21
25.9832  1.80172e+21
26.1005  1.7943e+21
26.2178  1.79721e+21
26.3351  1.80978e+21
26.4524  1.82906e+21
26.5697  1.85032e+21
26.687  1.8685e+21
26.8043  1.87915e+21
26.9216  1.87929e+21
27.0389  1.86825e+21
27.1562  1.84771e+21
27.2735  1.82116e+21
27.3908  1.79289e+21
27.5081  1.7672e+21
27.6254  1.74681e+21
27.7427  1.73342e+21
27.86  1.72601e+21
27.9773  1.72188e+21
28.0946  1.71798e+21
28.212  1.71103e+21
28.3293  1.69891e+21
28.4466  1.68112e+21
28.5639  1.65883e+21
28.6812  1.63495e+21
28.7985  1.6126e+21
28.9158  1.5951e+21
29.0331  1.58441e+21
29.1504  1.58083e+21
29.2677  1.58357e+21
29.385  1.59009e+21
29.5023  1.59767e+21
29.6196  1.60401e+21
29.7369  1.60776e+21
29.8542  1.60931e+21
29.9715  1.61058e+21
30.0888  1.6143e+21
30.2061  1.62344e+21
30.3234  1.63957e+21
30.4407  1.66339e+21
30.558  1.69332e+21
30.6754  1.72587e+21
30.7927  1.75678e+21
30.91  1.78105e+21
31.0273  1.79514e+21
31.1446  1.79696e+21
31.2619  1.78663e+21
31.3792  1.76645e+21
31.4965  1.73992e+21
31.6138  1.71108e+21
31.7311  1.68339e+21
31.8484  1.6588e+21
31.9657  1.63754e+21
32.083  1.61823e+21
32.2003  1.59848e+21
32.3176  1.57556e+21
32.4349  1.54818e+21
32.5522  1.51638e+21
32.6695  1.48193e+21
32.7868  1.44859e+21
32.9042  1.42065e+21
33.0215  1.40229e+21
33.1388  1.39648e+21
33.2561  1.40388e+21
33.3734  1.42326e+21
33.4907  1.45087e+21
33.608  1.48256e+21
33.7253  1.51329e+21
33.8426  1.53927e+21
33.9599  1.55874e+21
34.0772  1.57138e+21
34.1945  1.57879e+21
34.3118  1.5833e+21
34.4291  1.58751e+21
34.5464  1.59266e+21
34.6637  1.59895e+21
34.781  1.6048e+21
34.8983  1.60773e+21
35.0156  1.60469e+21
35.1329  1.59373e+21
35.2503  1.5744e+21
35.3676  1.54786e+21
35.4849  1.51739e+21
35.6022  1.48716e+21
35.7195  1.46156e+21
35.8368  1.44417e+21
35.9541  1.43678e+21
36.0714  1.439e+21
36.1887  1.44854e+21
36.306  1.46159e+21
36.4233  1.47421e+21
36.5406  1.48332e+21
36.6579  1.48713e+21
36.7752  1.486e+21
36.8925  1.48215e+21
37.0098  1.4784e+21
37.1271  1.47831e+21
37.2444  1.4843e+21
37.3617  1.49675e+21
37.479  1.51492e+21
37.5964  1.5357e+21
37.7137  1.55532e+21
37.831  1.5697e+21
37.9483  1.57589e+21
38.0656  1.57233e+21
38.1829  1.55903e+21
38.3002  1.53827e+21
38.4175  1.51262e+21
38.5348  1.48505e+21
38.6521  1.45865e+21
38.7694  1.43473e+21
38.8867  1.41389e+21
39.004  1.39583e+21
39.1213  1.37979e+21
39.2386  1.36504e+21
39.3559  1.35198e+21
39.4732  1.34147e+21
39.5905  1.33529e+21
39.7078  1.33513e+21
39.8251  1.34242e+21
39.9425  1.35778e+21
40.0598  1.37996e+21
40.1771  1.40656e+21
40.2944  1.43397e+21
40.4117  1.45817e+21
40.529  1.47588e+21
40.6463  1.48482e+21
40.7636  1.48469e+21
40.8809  1.47678e+21
40.9982  1.46411e+21
41.1155  1.44997e+21
41.2328  1.43818e+21
41.3501  1.43086e+21
41.4674  1.42918e+21
41.5847  1.43234e+21
41.702  1.43812e+21
41.8193  1.44373e+21
41.9366  1.44658e+21
42.0539  1.44414e+21
42.1712  1.43607e+21
42.2885  1.42282e+21
42.4059  1.40656e+21
42.5232  1.38961e+21
42.6405  1.37485e+21
42.7578  1.36414e+21
42.8751  1.35814e+21
42.9924  1.35673e+21
43.1097  1.35825e+21
43.227  1.36065e+21
43.3443  1.36223e+21
43.4616  1.36154e+21
43.5789  1.35832e+21
43.6962  1.3533e+21
43.8135  1.34796e+21
43.9308  1.34387e+21
44.0481  1.34242e+21
44.1654  1.34414e+21
44.2827  1.34823e+21
44.4  1.35288e+21
44.5173  1.35556e+21
44.6347  1.354e+21
44.752  1.34629e+21
44.8693  1.33215e+21
44.9866  1.31275e+21
45.1039  1.29073e+21
45.2212  1.2697e+21
45.3385  1.25358e+21
45.4558  1.24535e+21
45.5731  1.2464e+21
45.6904  1.25621e+21
45.8077  1.27202e+21
45.925  1.29001e+21
46.0423  1.30533e+21
46.1596  1.31428e+21
46.2769  1.31439e+21
46.3942  1.30533e+21
46.5115  1.28922e+21
46.6288  1.27027e+21
46.7461  1.25282e+21
46.8634  1.24153e+21
46.9808  1.23931e+21
47.0981  1.24724e+21
47.2154  1.26347e+21
47.3327  1.28476e+21
47.45  1.30646e+21
47.5673  1.32381e+21
47.6846  1.33384e+21
47.8019  1.33476e+21
47.9192  1.32731e+21
48.0365  1.31424e+21
48.1538  1.29889e+21
48.2711  1.28504e+21
48.3884  1.27529e+21
48.5057  1.27096e+21
48.623  1.27121e+21
48.7403  1.27426e+21
48.8576  1.2777e+21
48.9749  1.2794e+21
49.0922  1.27819e+21
49.2095  1.27441e+21
49.3269  1.26981e+21
49.4442  1.26653e+21
49.5615  1.26671e+21
49.6788  1.27148e+21
49.7961  1.28022e+21
49.9134  1.29076e+21
50.0307  1.29991e+21
50.148  1.30401e+21
50.2653  1.30046e+21
50.3826  1.28833e+21
50.4999  1.26907e+21
50.6172  1.24667e+21
50.7345  1.22612e+21
