#S 1 spectral density
#N 2
#UFWHM 58.6525
#L  abscissas [um]  spectral density
-58.5938  3.92329e+20
-58.4764  3.53104e+20
-58.3591  3.17854e+20
-58.2418  2.90666e+20
-58.1245  2.74753e+20
-58.0072  2.71873e+20
-57.8899  2.82072e+20
-57.7726  3.03299e+20
-57.6553  3.31959e+20
-57.538  3.63476e+20
-57.4207  3.93192e+20
-57.3034  4.1707e+20
-57.1861  4.32568e+20
-57.0688  4.39133e+20
-56.9515  4.37822e+20
-56.8342  4.31157e+20
-56.7169  4.22386e+20
-56.5996  4.14645e+20
-56.4823  4.10418e+20
-56.365  4.10927e+20
-56.2477  4.16211e+20
-56.1303  4.25339e+20
-56.013  4.36948e+20
-55.8957  4.49729e+20
-55.7784  4.6318e+20
-55.6611  4.77657e+20
-55.5438  4.94087e+20
-55.4265  5.13868e+20
-55.3092  5.38104e+20
-55.1919  5.66682e+20
-55.0746  5.981e+20
-54.9573  6.29146e+20
-54.84  6.55608e+20
-54.7227  6.72419e+20
-54.6054  6.75275e+20
-54.4881  6.61477e+20
-54.3708  6.30361e+20
-54.2535  5.84139e+20
-54.1362  5.27365e+20
-54.0189  4.66373e+20
-53.9016  4.0795e+20
-53.7842  3.58528e+20
-53.6669  3.22943e+20
-53.5496  3.04018e+20
-53.4323  3.02616e+20
-53.315  3.17824e+20
-53.1977  3.47965e+20
-53.0804  3.91072e+20
-52.9631  4.45526e+20
-52.8458  5.10395e+20
-52.7285  5.85047e+20
-52.6112  6.68429e+20
-52.4939  7.58595e+20
-52.3766  8.52159e+20
-52.2593  9.43953e+20
-52.142  1.02748e+21
-52.0247  1.0961e+21
-51.9074  1.14378e+21
-51.7901  1.16652e+21
-51.6728  1.16342e+21
-51.5555  1.13699e+21
-51.4381  1.09299e+21
-51.3208  1.03916e+21
-51.2035  9.84142e+20
-51.0862  9.36169e+20
-50.9689  9.0125e+20
-50.8516  8.82841e+20
-50.7343  8.81631e+20
-50.617  8.96297e+20
-50.4997  9.24009e+20
-50.3824  9.61798e+20
-50.2651  1.00738e+21
-50.1478  1.05955e+21
-50.0305  1.1178e+21
-49.9132  1.18224e+21
-49.7959  1.25243e+21
-49.6786  1.3266e+21
-49.5613  1.40133e+21
-49.444  1.47188e+21
-49.3267  1.53253e+21
-49.2094  1.57776e+21
-49.092  1.60352e+21
-48.9747  1.60823e+21
-48.8574  1.59304e+21
-48.7401  1.56223e+21
-48.6228  1.52219e+21
-48.5055  1.4804e+21
-48.3882  1.44433e+21
-48.2709  1.41979e+21
-48.1536  1.41094e+21
-48.0363  1.41976e+21
-47.919  1.44634e+21
-47.8017  1.48955e+21
-47.6844  1.54823e+21
-47.5671  1.62129e+21
-47.4498  1.70795e+21
-47.3325  1.80797e+21
-47.2152  1.92056e+21
-47.0979  2.04351e+21
-46.9806  2.17312e+21
-46.8633  2.30378e+21
-46.7459  2.42803e+21
-46.6286  2.53716e+21
-46.5113  2.62345e+21
-46.394  2.68057e+21
-46.2767  2.70503e+21
-46.1594  2.69746e+21
-46.0421  2.66191e+21
-45.9248  2.60631e+21
-45.8075  2.54036e+21
-45.6902  2.47494e+21
-45.5729  2.42025e+21
-45.4556  2.38491e+21
-45.3383  2.37522e+21
-45.221  2.39473e+21
-45.1037  2.44493e+21
-44.9864  2.52532e+21
-44.8691  2.63423e+21
-44.7518  2.7694e+21
-44.6345  2.92792e+21
-44.5172  3.10622e+21
-44.3998  3.29995e+21
-44.2825  3.50369e+21
-44.1652  3.71025e+21
-44.0479  3.91138e+21
-43.9306  4.09839e+21
-43.8133  4.26245e+21
-43.696  4.39655e+21
-43.5787  4.49571e+21
-43.4614  4.55862e+21
-43.3441  4.58818e+21
-43.2268  4.59079e+21
-43.1095  4.57646e+21
-42.9922  4.55721e+21
-42.8749  4.54624e+21
-42.7576  4.5557e+21
-42.6403  4.59609e+21
-42.523  4.67532e+21
-42.4057  4.7978e+21
-42.2884  4.965e+21
-42.171  5.17539e+21
-42.0537  5.42494e+21
-41.9364  5.70754e+21
-41.8191  6.01599e+21
-41.7018  6.34131e+21
-41.5845  6.67308e+21
-41.4672  7.00088e+21
-41.3499  7.31263e+21
-41.2326  7.59681e+21
-41.1153  7.84246e+21
-40.998  8.04075e+21
-40.8807  8.18583e+21
-40.7634  8.27604e+21
-40.6461  8.31504e+21
-40.5288  8.31062e+21
-40.4115  8.27571e+21
-40.2942  8.22589e+21
-40.1769  8.17849e+21
-40.0596  8.15027e+21
-39.9423  8.15609e+21
-39.825  8.2069e+21
-39.7076  8.30974e+21
-39.5903  8.46727e+21
-39.473  8.67782e+21
-39.3557  8.93678e+21
-39.2384  9.23753e+21
-39.1211  9.57153e+21
-39.0038  9.93e+21
-38.8865  1.03033e+22
-38.7692  1.06817e+22
-38.6519  1.10552e+22
-38.5346  1.14136e+22
-38.4173  1.17475e+22
-38.3  1.20484e+22
-38.1827  1.23101e+22
-38.0654  1.253e+22
-37.9481  1.27089e+22
-37.8308  1.28519e+22
-37.7135  1.29684e+22
-37.5962  1.30705e+22
-37.4789  1.31711e+22
-37.3615  1.32832e+22
-37.2442  1.34177e+22
-37.1269  1.35814e+22
-37.0096  1.37781e+22
-36.8923  1.4006e+22
-36.775  1.4261e+22
-36.6577  1.45362e+22
-36.5404  1.48236e+22
-36.4231  1.51154e+22
-36.3058  1.54042e+22
-36.1885  1.5684e+22
-36.0712  1.59493e+22
-35.9539  1.6196e+22
-35.8366  1.64195e+22
-35.7193  1.66165e+22
-35.602  1.67839e+22
-35.4847  1.69201e+22
-35.3674  1.70255e+22
-35.2501  1.71037e+22
-35.1328  1.71607e+22
-35.0154  1.72056e+22
-34.8981  1.72494e+22
-34.7808  1.73034e+22
-34.6635  1.73778e+22
-34.5462  1.74804e+22
-34.4289  1.76145e+22
-34.3116  1.77793e+22
-34.1943  1.79703e+22
-34.077  1.818e+22
-33.9597  1.83991e+22
-33.8424  1.8619e+22
-33.7251  1.88327e+22
-33.6078  1.90351e+22
-33.4905  1.92244e+22
-33.3732  1.94012e+22
-33.2559  1.95675e+22
-33.1386  1.97254e+22
-33.0213  1.98775e+22
-32.904  2.00251e+22
-32.7867  2.01685e+22
-32.6693  2.03077e+22
-32.552  2.0443e+22
-32.4347  2.05746e+22
-32.3174  2.07043e+22
-32.2001  2.08339e+22
-32.0828  2.0966e+22
-31.9655  2.11024e+22
-31.8482  2.12434e+22
-31.7309  2.13877e+22
-31.6136  2.15316e+22
-31.4963  2.16697e+22
-31.379  2.1796e+22
-31.2617  2.19051e+22
-31.1444  2.19926e+22
-31.0271  2.20577e+22
-30.9098  2.21025e+22
-30.7925  2.21325e+22
-30.6752  2.21554e+22
-30.5579  2.21805e+22
-30.4406  2.22169e+22
-30.3232  2.2272e+22
-30.2059  2.23516e+22
-30.0886  2.24585e+22
-29.9713  2.25931e+22
-29.854  2.27541e+22
-29.7367  2.29386e+22
-29.6194  2.31432e+22
-29.5021  2.33646e+22
-29.3848  2.35993e+22
-29.2675  2.38433e+22
-29.1502  2.40922e+22
-29.0329  2.43406e+22
-28.9156  2.45819e+22
-28.7983  2.4809e+22
-28.681  2.5015e+22
-28.5637  2.51942e+22
-28.4464  2.53423e+22
-28.3291  2.54594e+22
-28.2118  2.55484e+22
-28.0944  2.56155e+22
-27.9771  2.56698e+22
-27.8598  2.57223e+22
-27.7425  2.57827e+22
-27.6252  2.58604e+22
-27.5079  2.59606e+22
-27.3906  2.60861e+22
-27.2733  2.6236e+22
-27.156  2.64063e+22
-27.0387  2.65916e+22
-26.9214  2.67858e+22
-26.8041  2.69829e+22
-26.6868  2.71784e+22
-26.5695  2.7369e+22
-26.4522  2.75524e+22
-26.3349  2.77273e+22
-26.2176  2.78929e+22
-26.1003  2.80481e+22
-25.983  2.81921e+22
-25.8657  2.83243e+22
-25.7483  2.84446e+22
-25.631  2.85542e+22
-25.5137  2.8656e+22
-25.3964  2.87544e+22
-25.2791  2.88552e+22
-25.1618  2.89646e+22
-25.0445  2.90882e+22
-24.9272  2.923e+22
-24.8099  2.93914e+22
-24.6926  2.95713e+22
-24.5753  2.97654e+22
-24.458  2.99675e+22
-24.3407  3.01704e+22
-24.2234  3.03668e+22
-24.1061  3.05511e+22
-23.9888  3.07196e+22
-23.8715  3.08715e+22
-23.7542  3.10075e+22
-23.6369  3.11304e+22
-23.5196  3.12435e+22
-23.4023  3.13496e+22
-23.2849  3.14513e+22
-23.1676  3.155e+22
-23.0503  3.16461e+22
-22.933  3.17406e+22
-22.8157  3.18339e+22
-22.6984  3.19278e+22
-22.5811  3.2025e+22
-22.4638  3.21288e+22
-22.3465  3.22427e+22
-22.2292  3.23692e+22
-22.1119  3.25092e+22
-21.9946  3.26614e+22
-21.8773  3.28224e+22
-21.76  3.29864e+22
-21.6427  3.31468e+22
-21.5254  3.32971e+22
-21.4081  3.34326e+22
-21.2908  3.35503e+22
-21.1735  3.36503e+22
-21.0561  3.37359e+22
-20.9388  3.38121e+22
-20.8215  3.3885e+22
-20.7042  3.3961e+22
-20.5869  3.40452e+22
-20.4696  3.41409e+22
-20.3523  3.42501e+22
-20.235  3.43722e+22
-20.1177  3.45063e+22
-20.0004  3.46509e+22
-19.8831  3.48044e+22
-19.7658  3.49656e+22
-19.6485  3.51337e+22
-19.5312  3.53073e+22
-19.4139  3.54844e+22
-19.2966  3.56621e+22
-19.1793  3.58357e+22
-19.062  3.60002e+22
-18.9447  3.61501e+22
-18.8274  3.62811e+22
-18.71  3.63906e+22
-18.5927  3.64789e+22
-18.4754  3.65496e+22
-18.3581  3.66085e+22
-18.2408  3.66638e+22
-18.1235  3.6724e+22
-18.0062  3.67963e+22
-17.8889  3.68861e+22
-17.7716  3.69958e+22
-17.6543  3.71245e+22
-17.537  3.72692e+22
-17.4197  3.74249e+22
-17.3024  3.75864e+22
-17.1851  3.77496e+22
-17.0678  3.79111e+22
-16.9505  3.80694e+22
-16.8332  3.82241e+22
-16.7159  3.83754e+22
-16.5986  3.8523e+22
-16.4813  3.86656e+22
-16.364  3.88014e+22
-16.2466  3.89275e+22
-16.1293  3.90407e+22
-16.012  3.91394e+22
-15.8947  3.92234e+22
-15.7774  3.92947e+22
-15.6601  3.93581e+22
-15.5428  3.94198e+22
-15.4255  3.94863e+22
-15.3082  3.95644e+22
-15.1909  3.96581e+22
-15.0736  3.97689e+22
-14.9563  3.98959e+22
-14.839  4.00351e+22
-14.7217  4.01809e+22
-14.6044  4.03278e+22
-14.4871  4.04705e+22
-14.3698  4.06059e+22
-14.2525  4.07324e+22
-14.1352  4.08506e+22
-14.0178  4.09623e+22
-13.9005  4.10692e+22
-13.7832  4.1173e+22
-13.6659  4.1274e+22
-13.5486  4.13719e+22
-13.4313  4.14651e+22
-13.314  4.15524e+22
-13.1967  4.1633e+22
-13.0794  4.17079e+22
-12.9621  4.17791e+22
-12.8448  4.18501e+22
-12.7275  4.19248e+22
-12.6102  4.20066e+22
-12.4929  4.20977e+22
-12.3756  4.21979e+22
-12.2583  4.23048e+22
-12.141  4.24138e+22
-12.0237  4.25198e+22
-11.9064  4.26171e+22
-11.7891  4.27015e+22
-11.6718  4.2771e+22
-11.5544  4.28265e+22
-11.4371  4.28705e+22
-11.3198  4.29081e+22
-11.2025  4.29448e+22
-11.0852  4.29853e+22
-10.9679  4.30337e+22
-10.8506  4.30918e+22
-10.7333  4.31596e+22
-10.616  4.32362e+22
-10.4987  4.33196e+22
-10.3814  4.34081e+22
-10.2641  4.35012e+22
-10.1468  4.35987e+22
-10.0295  4.37019e+22
-9.91217  4.38118e+22
-9.79487  4.39291e+22
-9.67756  4.40534e+22
-9.56026  4.41824e+22
-9.44295  4.43125e+22
-9.32565  4.44391e+22
-9.20834  4.45569e+22
-9.09104  4.46614e+22
-8.97373  4.47499e+22
-8.85643  4.48218e+22
-8.73913  4.48783e+22
-8.62182  4.49229e+22
-8.50452  4.49601e+22
-8.38721  4.49944e+22
-8.26991  4.50296e+22
-8.1526  4.5068e+22
-8.03529  4.51102e+22
-7.91799  4.51556e+22
-7.80069  4.52025e+22
-7.68338  4.52492e+22
-7.56608  4.52949e+22
-7.44877  4.53396e+22
-7.33146  4.53846e+22
-7.21416  4.54321e+22
-7.09685  4.54839e+22
-6.97955  4.55416e+22
-6.86224  4.56058e+22
-6.74494  4.56748e+22
-6.62763  4.57461e+22
-6.51033  4.58161e+22
-6.39302  4.58813e+22
-6.27572  4.59393e+22
-6.15842  4.59894e+22
-6.04111  4.60326e+22
-5.92381  4.60725e+22
-5.8065  4.61131e+22
-5.68919  4.61591e+22
-5.57189  4.62145e+22
-5.45458  4.62808e+22
-5.33728  4.63578e+22
-5.21997  4.64428e+22
-5.10267  4.65311e+22
-4.98536  4.6618e+22
-4.86806  4.66984e+22
-4.75075  4.6769e+22
-4.63345  4.68285e+22
-4.51614  4.68773e+22
-4.39884  4.69173e+22
-4.28154  4.69516e+22
-4.16423  4.69825e+22
-4.04692  4.70114e+22
-3.92962  4.70382e+22
-3.81231  4.70617e+22
-3.69501  4.70791e+22
-3.5777  4.70884e+22
-3.4604  4.70876e+22
-3.34309  4.70767e+22
-3.22579  4.70577e+22
-3.10849  4.70338e+22
-2.99118  4.70094e+22
-2.87387  4.6989e+22
-2.75657  4.6976e+22
-2.63926  4.69724e+22
-2.52196  4.69779e+22
-2.40465  4.69909e+22
-2.28735  4.70085e+22
-2.17005  4.7028e+22
-2.05274  4.70473e+22
-1.93544  4.70656e+22
-1.81813  4.70841e+22
-1.70083  4.71048e+22
-1.58352  4.71303e+22
-1.46622  4.71628e+22
-1.34891  4.72027e+22
-1.2316  4.72493e+22
-1.1143  4.72992e+22
-0.996995  4.73484e+22
-0.87969  4.73925e+22
-0.762385  4.74274e+22
-0.64508  4.74513e+22
-0.527775  4.7464e+22
-0.41047  4.74676e+22
-0.293165  4.74658e+22
-0.17586  4.74625e+22
-0.058555  4.74609e+22
0.05875  4.74628e+22
0.176055  4.74678e+22
0.29336  4.74735e+22
0.410665  4.74763e+22
0.52797  4.74721e+22
0.645275  4.74579e+22
0.76258  4.74324e+22
0.879885  4.73965e+22
0.99719  4.73527e+22
1.1145  4.73056e+22
1.2318  4.72594e+22
1.3491  4.72179e+22
1.46641  4.71833e+22
1.58371  4.71559e+22
1.70102  4.71344e+22
1.81832  4.71161e+22
1.93563  4.70986e+22
2.05294  4.70801e+22
2.17024  4.70603e+22
2.28754  4.70405e+22
2.40485  4.70233e+22
2.52216  4.70121e+22
2.63946  4.70094e+22
2.75677  4.70165e+22
2.87407  4.70331e+22
2.99137  4.70565e+22
3.10868  4.70829e+22
3.22599  4.71077e+22
3.34329  4.71268e+22
3.4606  4.71373e+22
3.5779  4.7138e+22
3.69521  4.71296e+22
3.81251  4.71142e+22
3.92982  4.70941e+22
4.04712  4.70715e+22
4.16443  4.70471e+22
4.28173  4.70201e+22
4.39903  4.69885e+22
4.51634  4.69495e+22
4.63364  4.69001e+22
4.75095  4.6839e+22
4.86825  4.67662e+22
4.98556  4.66842e+22
5.10286  4.65974e+22
5.22017  4.65105e+22
5.33748  4.6429e+22
5.45478  4.63568e+22
5.57209  4.62959e+22
5.68939  4.62457e+22
5.8067  4.62038e+22
5.924  4.61657e+22
6.0413  4.61269e+22
6.15861  4.60832e+22
6.27591  4.60321e+22
6.39322  4.59733e+22
6.51052  4.59081e+22
6.62783  4.58395e+22
6.74514  4.57709e+22
6.86244  4.57057e+22
6.97975  4.56458e+22
7.09705  4.55916e+22
7.21436  4.55426e+22
7.33166  4.54968e+22
7.44897  4.5452e+22
7.56627  4.54066e+22
7.68358  4.53603e+22
7.80088  4.53132e+22
7.91819  4.52672e+22
8.03549  4.52242e+22
8.1528  4.51853e+22
8.2701  4.51509e+22
8.38741  4.51197e+22
8.50471  4.50885e+22
8.62202  4.50529e+22
8.73932  4.50084e+22
8.85662  4.49504e+22
8.97393  4.48762e+22
9.09123  4.47852e+22
9.20854  4.46788e+22
9.32584  4.45602e+22
9.44315  4.44344e+22
9.56045  4.43061e+22
9.67776  4.41798e+22
9.79506  4.40585e+22
9.91237  4.39436e+22
10.0297  4.38351e+22
10.147  4.37326e+22
10.2643  4.3635e+22
10.3816  4.35419e+22
10.4989  4.3454e+22
10.6162  4.33726e+22
10.7335  4.32996e+22
10.8508  4.32368e+22
10.9681  4.31846e+22
11.0854  4.31423e+22
11.2027  4.31068e+22
11.32  4.30739e+22
11.4373  4.30376e+22
11.5546  4.29929e+22
11.6719  4.29354e+22
11.7893  4.28627e+22
11.9066  4.27753e+22
12.0239  4.26763e+22
12.1412  4.257e+22
12.2585  4.24622e+22
12.3758  4.23583e+22
12.4931  4.22615e+22
12.6104  4.2174e+22
12.7277  4.2095e+22
12.845  4.20219e+22
12.9623  4.19513e+22
13.0796  4.18796e+22
13.1969  4.18038e+22
13.3142  4.17224e+22
13.4315  4.16355e+22
13.5488  4.15437e+22
13.6661  4.14486e+22
13.7834  4.13509e+22
13.9007  4.12508e+22
14.018  4.1147e+22
14.1354  4.10376e+22
14.2527  4.09203e+22
14.37  4.07939e+22
14.4873  4.06582e+22
14.6046  4.05152e+22
14.7219  4.03689e+22
14.8392  4.02249e+22
14.9565  4.00892e+22
15.0738  3.99666e+22
15.1911  3.98604e+22
15.3084  3.97711e+22
15.4257  3.96961e+22
15.543  3.96308e+22
15.6603  3.95687e+22
15.7776  3.95032e+22
15.8949  3.94287e+22
16.0122  3.93416e+22
16.1295  3.92405e+22
16.2468  3.9126e+22
16.3641  3.90003e+22
16.4815  3.88661e+22
16.5988  3.87256e+22
16.7161  3.85804e+22
16.8334  3.84307e+22
16.9507  3.82766e+22
17.068  3.8118e+22
17.1853  3.79555e+22
17.3026  3.77914e+22
17.4199  3.76297e+22
17.5372  3.74752e+22
17.6545  3.73336e+22
17.7718  3.72094e+22
17.8891  3.71052e+22
18.0064  3.70208e+22
18.1237  3.69531e+22
18.241  3.68958e+22
18.3583  3.68409e+22
18.4756  3.678e+22
18.5929  3.67055e+22
18.7102  3.66122e+22
18.8275  3.64974e+22
18.9449  3.63619e+22
19.0622  3.62087e+22
19.1795  3.60424e+22
19.2968  3.58682e+22
19.4141  3.56911e+22
19.5314  3.55148e+22
19.6487  3.53421e+22
19.766  3.51746e+22
19.8833  3.50137e+22
20.0006  3.48607e+22
20.1179  3.4717e+22
20.2352  3.45849e+22
20.3525  3.4466e+22
20.4698  3.43615e+22
20.5871  3.42708e+22
20.7044  3.41919e+22
20.8217  3.41204e+22
20.939  3.40504e+22
21.0563  3.39752e+22
21.1736  3.38886e+22
21.291  3.37857e+22
21.4083  3.36643e+22
21.5256  3.35252e+22
21.6429  3.33719e+22
21.7602  3.32101e+22
21.8775  3.30464e+22
21.9948  3.28873e+22
22.1121  3.27378e+22
22.2294  3.26004e+22
22.3467  3.24762e+22
22.464  3.23635e+22
22.5813  3.22595e+22
22.6986  3.21612e+22
22.8159  3.20659e+22
22.9332  3.19715e+22
23.0505  3.18772e+22
23.1678  3.17822e+22
23.2851  3.16864e+22
23.4024  3.15887e+22
23.5198  3.14868e+22
23.6371  3.13778e+22
23.7544  3.12581e+22
23.8717  3.11239e+22
23.989  3.09725e+22
24.1063  3.08037e+22
24.2236  3.0619e+22
24.3409  3.04227e+22
24.4582  3.02215e+22
24.5755  3.00222e+22
24.6928  2.98325e+22
24.8101  2.96576e+22
24.9274  2.95011e+22
25.0447  2.93633e+22
25.162  2.92422e+22
25.2793  2.91329e+22
25.3966  2.90299e+22
25.5139  2.89276e+22
25.6312  2.88207e+22
25.7485  2.87059e+22
25.8658  2.8581e+22
25.9832  2.84453e+22
26.1005  2.82991e+22
26.2178  2.81428e+22
26.3351  2.79771e+22
26.4524  2.78025e+22
26.5697  2.76198e+22
26.687  2.74301e+22
26.8043  2.72359e+22
26.9216  2.70408e+22
27.0389  2.68502e+22
27.1562  2.667e+22
27.2735  2.65063e+22
27.3908  2.63643e+22
27.5081  2.62467e+22
27.6254  2.61534e+22
27.7427  2.60808e+22
27.86  2.6022e+22
27.9773  2.59676e+22
28.0946  2.59074e+22
28.212  2.58312e+22
28.3293  2.57311e+22
28.4466  2.56019e+22
28.5639  2.54418e+22
28.6812  2.52522e+22
28.7985  2.50379e+22
28.9158  2.48048e+22
29.0331  2.45595e+22
29.1504  2.43091e+22
29.2677  2.4059e+22
29.385  2.38146e+22
29.5023  2.35798e+22
29.6196  2.3359e+22
29.7369  2.31559e+22
29.8542  2.29744e+22
29.9715  2.28178e+22
30.0888  2.2689e+22
30.2061  2.25891e+22
30.3234  2.25166e+22
30.4407  2.24679e+22
30.558  2.24366e+22
30.6754  2.24141e+22
30.7927  2.23912e+22
30.91  2.23586e+22
31.0273  2.23093e+22
31.1446  2.22386e+22
31.2619  2.21454e+22
31.3792  2.20317e+22
31.4965  2.19018e+22
31.6138  2.17614e+22
31.7311  2.16166e+22
31.8484  2.14722e+22
31.9657  2.1331e+22
32.083  2.1194e+22
32.2003  2.10609e+22
32.3176  2.09297e+22
32.4349  2.07986e+22
32.5522  2.06661e+22
32.6695  2.05313e+22
32.7868  2.0394e+22
32.9042  2.02542e+22
33.0215  2.01118e+22
33.1388  1.99656e+22
33.2561  1.98135e+22
33.3734  1.96526e+22
33.4907  1.94803e+22
33.608  1.92946e+22
33.7253  1.90951e+22
33.8426  1.8885e+22
33.9599  1.86691e+22
34.0772  1.84556e+22
34.1945  1.82533e+22
34.3118  1.80712e+22
34.4291  1.79161e+22
34.5464  1.77918e+22
34.6637  1.76978e+22
34.781  1.76293e+22
34.8983  1.75784e+22
35.0156  1.75344e+22
35.1329  1.74863e+22
35.2503  1.7424e+22
35.3676  1.73395e+22
35.4849  1.72277e+22
35.6022  1.70862e+22
35.7195  1.69154e+22
35.8368  1.6717e+22
35.9541  1.6494e+22
36.0714  1.62499e+22
36.1887  1.59886e+22
36.306  1.57144e+22
36.4233  1.54328e+22
36.5406  1.51499e+22
36.6579  1.48732e+22
36.7752  1.46105e+22
36.8925  1.43698e+22
37.0098  1.4157e+22
37.1271  1.39758e+22
37.2444  1.38254e+22
37.3617  1.37019e+22
37.479  1.35963e+22
37.5964  1.34971e+22
37.7137  1.33912e+22
37.831  1.32654e+22
37.9483  1.31087e+22
38.0656  1.29132e+22
38.1829  1.26755e+22
38.3002  1.23963e+22
38.4175  1.20794e+22
38.5348  1.17322e+22
38.6521  1.13636e+22
38.7694  1.09834e+22
38.8867  1.06016e+22
39.004  1.02283e+22
39.1213  9.87298e+21
39.2386  9.54566e+21
39.3559  9.25499e+21
39.4732  9.0091e+21
39.5905  8.81446e+21
39.7078  8.67478e+21
39.8251  8.59004e+21
39.9425  8.55611e+21
40.0598  8.5642e+21
40.1771  8.60133e+21
40.2944  8.65153e+21
40.4117  8.69695e+21
40.529  8.7208e+21
40.6463  8.7075e+21
40.7636  8.64643e+21
40.8809  8.53092e+21
40.9982  8.35985e+21
41.1155  8.13642e+21
41.2328  7.86825e+21
41.3501  7.56476e+21
41.4674  7.23742e+21
41.5847  6.89822e+21
41.702  6.55853e+21
41.8193  6.22904e+21
41.9366  5.91973e+21
42.0539  5.63919e+21
42.1712  5.39485e+21
42.2885  5.1921e+21
42.4059  5.03454e+21
42.5232  4.92267e+21
42.6405  4.85406e+21
42.7578  4.82228e+21
42.8751  4.81858e+21
42.9924  4.83118e+21
43.1097  4.84666e+21
43.227  4.85188e+21
43.3443  4.83541e+21
43.4616  4.78816e+21
43.5789  4.70513e+21
43.6962  4.58519e+21
43.8135  4.43102e+21
43.9308  4.24877e+21
44.0481  4.04621e+21
44.1654  3.83234e+21
44.2827  3.61591e+21
44.4  3.40516e+21
44.5173  3.2066e+21
44.6347  3.02573e+21
44.752  2.86697e+21
44.8693  2.73391e+21
44.9866  2.62973e+21
45.1039  2.55644e+21
45.2212  2.51534e+21
45.3385  2.50596e+21
45.4558  2.52584e+21
45.5731  2.56986e+21
45.6904  2.63056e+21
45.8077  2.69795e+21
45.925  2.76141e+21
46.0423  2.80995e+21
46.1596  2.83426e+21
46.2769  2.82798e+21
46.3942  2.78824e+21
46.5115  2.71584e+21
46.6288  2.61561e+21
46.7461  2.49448e+21
46.8634  2.36105e+21
46.9808  2.22352e+21
47.0981  2.08895e+21
47.2154  1.96298e+21
47.3327  1.84892e+21
47.45  1.74851e+21
47.5673  1.66268e+21
47.6846  1.59207e+21
47.8019  1.53747e+21
47.9192  1.49977e+21
48.0365  1.48015e+21
48.1538  1.47889e+21
48.2711  1.49501e+21
48.3884  1.52559e+21
48.5057  1.56554e+21
48.623  1.6081e+21
48.7403  1.64579e+21
48.8576  1.67116e+21
48.9749  1.67865e+21
49.0922  1.66502e+21
49.2095  1.63017e+21
49.3269  1.57654e+21
49.4442  1.50906e+21
49.5615  1.43324e+21
49.6788  1.35502e+21
49.7961  1.2787e+21
49.9134  1.20727e+21
50.0307  1.14212e+21
50.148  1.08356e+21
50.2653  1.03194e+21
50.3826  9.87902e+20
50.4999  9.52999e+20
50.6172  9.2996e+20
50.7345  9.21767e+20
50.8518  9.30733e+20
