#S 1 spectral density
#N 2
#UFWHM 46.4528
#L  abscissas [um]  spectral density
-58.5938  2.52175e+20
-58.4764  2.43491e+20
-58.3591  2.33352e+20
-58.2418  2.24767e+20
-58.1245  2.20331e+20
-58.0072  2.21522e+20
-57.8899  2.28239e+20
-57.7726  2.38645e+20
-57.6553  2.4966e+20
-57.538  2.57521e+20
-57.4207  2.58816e+20
-57.3034  2.51353e+20
-57.1861  2.34903e+20
-57.0688  2.11475e+20
-56.9515  1.84724e+20
-56.8342  1.5954e+20
-56.7169  1.40868e+20
-56.5996  1.32572e+20
-56.4823  1.36607e+20
-56.365  1.52611e+20
-56.2477  1.77969e+20
-56.1303  2.08521e+20
-56.013  2.39368e+20
-55.8957  2.66237e+20
-55.7784  2.86147e+20
-55.6611  2.98298e+20
-55.5438  3.03745e+20
-55.4265  3.05132e+20
-55.3092  3.05734e+20
-55.1919  3.0834e+20
-55.0746  3.14501e+20
-54.9573  3.24098e+20
-54.84  3.35224e+20
-54.7227  3.44876e+20
-54.6054  3.49962e+20
-54.4881  3.48163e+20
-54.3708  3.38691e+20
-54.2535  3.22682e+20
-54.1362  3.03132e+20
-54.0189  2.83784e+20
-53.9016  2.6844e+20
-53.7842  2.59676e+20
-53.6669  2.58293e+20
-53.5496  2.62861e+20
-53.4323  2.70334e+20
-53.315  2.76828e+20
-53.1977  2.7872e+20
-53.0804  2.74044e+20
-52.9631  2.62933e+20
-52.8458  2.47617e+20
-52.7285  2.32146e+20
-52.6112  2.21005e+20
-52.4939  2.18013e+20
-52.3766  2.25014e+20
-52.2593  2.41398e+20
-52.142  2.63858e+20
-52.0247  2.87499e+20
-51.9074  3.0673e+20
-51.7901  3.17073e+20
-51.6728  3.15931e+20
-51.5555  3.03707e+20
-51.4381  2.83267e+20
-51.3208  2.59478e+20
-51.2035  2.37514e+20
-51.0862  2.21857e+20
-50.9689  2.14728e+20
-50.8516  2.15872e+20
-50.7343  2.22601e+20
-50.617  2.30848e+20
-50.4997  2.36255e+20
-50.3824  2.35918e+20
-50.2651  2.29052e+20
-50.1478  2.17493e+20
-50.0305  2.05314e+20
-49.9132  1.97799e+20
-49.7959  1.99837e+20
-49.6786  2.14797e+20
-49.5613  2.43457e+20
-49.444  2.83817e+20
-49.3267  3.31579e+20
-49.2094  3.81128e+20
-49.092  4.27072e+20
-48.9747  4.65212e+20
-48.8574  4.93547e+20
-48.7401  5.12428e+20
-48.6228  5.23866e+20
-48.5055  5.30633e+20
-48.3882  5.35282e+20
-48.2709  5.39122e+20
-48.1536  5.41671e+20
-48.0363  5.41103e+20
-47.919  5.34744e+20
-47.8017  5.20296e+20
-47.6844  4.97028e+20
-47.5671  4.66107e+20
-47.4498  4.30951e+20
-47.3325  3.9683e+20
-47.2152  3.69313e+20
-47.0979  3.53355e+20
-46.9806  3.51687e+20
-46.8633  3.64299e+20
-46.7459  3.88214e+20
-46.6286  4.18154e+20
-46.5113  4.47662e+20
-46.394  4.70549e+20
-46.2767  4.82584e+20
-46.1594  4.81896e+20
-46.0421  4.69739e+20
-45.9248  4.49734e+20
-45.8075  4.2678e+20
-45.6902  4.05991e+20
-45.5729  3.91204e+20
-45.4556  3.84258e+20
-45.3383  3.84426e+20
-45.221  3.89136e+20
-45.1037  3.94487e+20
-44.9864  3.96453e+20
-44.8691  3.91928e+20
-44.7518  3.79738e+20
-44.6345  3.60401e+20
-44.5172  3.3624e+20
-44.3998  3.10395e+20
-44.2825  2.86165e+20
-44.1652  2.65999e+20
-44.0479  2.50772e+20
-43.9306  2.40013e+20
-43.8133  2.31996e+20
-43.696  2.24527e+20
-43.5787  2.15966e+20
-43.4614  2.05653e+20
-43.3441  1.94688e+20
-43.2268  1.85555e+20
-43.1095  1.8181e+20
-42.9922  1.87252e+20
-42.8749  2.04792e+20
-42.7576  2.35602e+20
-42.6403  2.78808e+20
-42.523  3.31199e+20
-42.4057  3.87928e+20
-42.2884  4.43376e+20
-42.171  4.92162e+20
-42.0537  5.30199e+20
-41.9364  5.55451e+20
-41.8191  5.6798e+20
-41.7018  5.6967e+20
-41.5845  5.63788e+20
-41.4672  5.53703e+20
-41.3499  5.42259e+20
-41.2326  5.31218e+20
-41.1153  5.20819e+20
-40.998  5.10559e+20
-40.8807  4.99481e+20
-40.7634  4.8706e+20
-40.6461  4.73852e+20
-40.5288  4.61933e+20
-40.4115  4.54382e+20
-40.2942  4.55095e+20
-40.1769  4.67493e+20
-40.0596  4.93705e+20
-39.9423  5.33647e+20
-39.825  5.8483e+20
-39.7076  6.4255e+20
-39.5903  7.0073e+20
-39.473  7.53014e+20
-39.3557  7.9424e+20
-39.2384  8.21435e+20
-39.1211  8.341e+20
-39.0038  8.34611e+20
-38.8865  8.27072e+20
-38.7692  8.16186e+20
-38.6519  8.06374e+20
-38.5346  8.00089e+20
-38.4173  7.97653e+20
-38.3  7.97167e+20
-38.1827  7.95244e+20
-38.0654  7.87776e+20
-37.9481  7.71509e+20
-37.8308  7.44516e+20
-37.7135  7.07111e+20
-37.5962  6.61339e+20
-37.4789  6.10699e+20
-37.3615  5.59005e+20
-37.2442  5.09614e+20
-37.1269  4.64524e+20
-37.0096  4.2456e+20
-36.8923  3.89786e+20
-36.775  3.59927e+20
-36.6577  3.35828e+20
-36.5404  3.19735e+20
-36.4231  3.16024e+20
-36.3058  3.30567e+20
-36.1885  3.69739e+20
-36.0712  4.39058e+20
-35.9539  5.41683e+20
-35.8366  6.76904e+20
-35.7193  8.3989e+20
-35.602  1.02168e+21
-35.4847  1.21046e+21
-35.3674  1.39331e+21
-35.2501  1.55789e+21
-35.1328  1.69455e+21
-35.0154  1.79739e+21
-34.8981  1.86499e+21
-34.7808  1.90004e+21
-34.6635  1.90829e+21
-34.5462  1.89771e+21
-34.4289  1.87729e+21
-34.3116  1.85602e+21
-34.1943  1.84275e+21
-34.077  1.84651e+21
-33.9597  1.87615e+21
-33.8424  1.9417e+21
-33.7251  2.05343e+21
-33.6078  2.22171e+21
-33.4905  2.45534e+21
-33.3732  2.76071e+21
-33.2559  3.1394e+21
-33.1386  3.58791e+21
-33.0213  4.09563e+21
-32.904  4.64702e+21
-32.7867  5.22147e+21
-32.6693  5.79704e+21
-32.552  6.35134e+21
-32.4347  6.86596e+21
-32.3174  7.32721e+21
-32.2001  7.72783e+21
-32.0828  8.06727e+21
-31.9655  8.35079e+21
-31.8482  8.58829e+21
-31.7309  8.79299e+21
-31.6136  8.97882e+21
-31.4963  9.16087e+21
-31.379  9.35266e+21
-31.2617  9.56779e+21
-31.1444  9.81741e+21
-31.0271  1.01123e+22
-30.9098  1.04608e+22
-30.7925  1.08691e+22
-30.6752  1.13399e+22
-30.5579  1.18714e+22
-30.4406  1.24571e+22
-30.3232  1.30855e+22
-30.2059  1.37408e+22
-30.0886  1.44035e+22
-29.9713  1.50535e+22
-29.854  1.56717e+22
-29.7367  1.62423e+22
-29.6194  1.67543e+22
-29.5021  1.72021e+22
-29.3848  1.75868e+22
-29.2675  1.79136e+22
-29.1502  1.81912e+22
-29.0329  1.84311e+22
-28.9156  1.8644e+22
-28.7983  1.88408e+22
-28.681  1.90311e+22
-28.5637  1.92231e+22
-28.4464  1.94241e+22
-28.3291  1.96413e+22
-28.2118  1.98815e+22
-28.0944  2.01511e+22
-27.9771  2.04558e+22
-27.8598  2.07996e+22
-27.7425  2.11832e+22
-27.6252  2.16046e+22
-27.5079  2.20571e+22
-27.3906  2.25305e+22
-27.2733  2.3013e+22
-27.156  2.34901e+22
-27.0387  2.39494e+22
-26.9214  2.43804e+22
-26.8041  2.4776e+22
-26.6868  2.51335e+22
-26.5695  2.54542e+22
-26.4522  2.57419e+22
-26.3349  2.60028e+22
-26.2176  2.62433e+22
-26.1003  2.64693e+22
-25.983  2.66852e+22
-25.8657  2.68941e+22
-25.7483  2.7098e+22
-25.631  2.72983e+22
-25.5137  2.74968e+22
-25.3964  2.76958e+22
-25.2791  2.7898e+22
-25.1618  2.81065e+22
-25.0445  2.83243e+22
-24.9272  2.85525e+22
-24.8099  2.87907e+22
-24.6926  2.90368e+22
-24.5753  2.92864e+22
-24.458  2.95346e+22
-24.3407  2.97769e+22
-24.2234  3.00095e+22
-24.1061  3.02313e+22
-23.9888  3.04438e+22
-23.8715  3.06504e+22
-23.7542  3.08563e+22
-23.6369  3.10668e+22
-23.5196  3.1286e+22
-23.4023  3.15155e+22
-23.2849  3.17548e+22
-23.1676  3.19999e+22
-23.0503  3.22456e+22
-22.933  3.24855e+22
-22.8157  3.27146e+22
-22.6984  3.29292e+22
-22.5811  3.31285e+22
-22.4638  3.33144e+22
-22.3465  3.34913e+22
-22.2292  3.36638e+22
-22.1119  3.38373e+22
-21.9946  3.40151e+22
-21.8773  3.41991e+22
-21.76  3.43887e+22
-21.6427  3.45827e+22
-21.5254  3.47785e+22
-21.4081  3.49747e+22
-21.2908  3.51709e+22
-21.1735  3.53685e+22
-21.0561  3.55705e+22
-20.9388  3.57807e+22
-20.8215  3.60027e+22
-20.7042  3.62391e+22
-20.5869  3.649e+22
-20.4696  3.67535e+22
-20.3523  3.7026e+22
-20.235  3.73021e+22
-20.1177  3.75767e+22
-20.0004  3.78463e+22
-19.8831  3.81084e+22
-19.7658  3.83631e+22
-19.6485  3.86129e+22
-19.5312  3.88599e+22
-19.4139  3.91075e+22
-19.2966  3.93572e+22
-19.1793  3.96088e+22
-19.062  3.98608e+22
-18.9447  4.01099e+22
-18.8274  4.03527e+22
-18.71  4.05869e+22
-18.5927  4.08117e+22
-18.4754  4.10288e+22
-18.3581  4.1242e+22
-18.2408  4.14568e+22
-18.1235  4.16779e+22
-18.0062  4.19094e+22
-17.8889  4.21531e+22
-17.7716  4.24073e+22
-17.6543  4.26683e+22
-17.537  4.29305e+22
-17.4197  4.31878e+22
-17.3024  4.34355e+22
-17.1851  4.36712e+22
-17.0678  4.38949e+22
-16.9505  4.41104e+22
-16.8332  4.43224e+22
-16.7159  4.45365e+22
-16.5986  4.47571e+22
-16.4813  4.49867e+22
-16.364  4.52246e+22
-16.2466  4.54679e+22
-16.1293  4.5712e+22
-16.012  4.59514e+22
-15.8947  4.61819e+22
-15.7774  4.64013e+22
-15.6601  4.66097e+22
-15.5428  4.68094e+22
-15.4255  4.70039e+22
-15.3082  4.71975e+22
-15.1909  4.73926e+22
-15.0736  4.75907e+22
-14.9563  4.77907e+22
-14.839  4.799e+22
-14.7217  4.81851e+22
-14.6044  4.83737e+22
-14.4871  4.85541e+22
-14.3698  4.87276e+22
-14.2525  4.88971e+22
-14.1352  4.90675e+22
-14.0178  4.92437e+22
-13.9005  4.94303e+22
-13.7832  4.96294e+22
-13.6659  4.98409e+22
-13.5486  5.00623e+22
-13.4313  5.0289e+22
-13.314  5.05158e+22
-13.1967  5.07385e+22
-13.0794  5.09543e+22
-12.9621  5.11633e+22
-12.8448  5.13672e+22
-12.7275  5.15697e+22
-12.6102  5.17745e+22
-12.4929  5.19844e+22
-12.3756  5.22002e+22
-12.2583  5.24205e+22
-12.141  5.26417e+22
-12.0237  5.28586e+22
-11.9064  5.30659e+22
-11.7891  5.32597e+22
-11.6718  5.34378e+22
-11.5544  5.36011e+22
-11.4371  5.37526e+22
-11.3198  5.38968e+22
-11.2025  5.40391e+22
-11.0852  5.41836e+22
-10.9679  5.43336e+22
-10.8506  5.44893e+22
-10.7333  5.46495e+22
-10.616  5.48123e+22
-10.4987  5.49748e+22
-10.3814  5.51352e+22
-10.2641  5.52939e+22
-10.1468  5.54517e+22
-10.0295  5.56122e+22
-9.91217  5.57786e+22
-9.79487  5.59543e+22
-9.67756  5.61406e+22
-9.56026  5.6337e+22
-9.44295  5.65403e+22
-9.32565  5.6746e+22
-9.20834  5.69482e+22
-9.09104  5.71419e+22
-8.97373  5.73228e+22
-8.85643  5.74896e+22
-8.73913  5.76424e+22
-8.62182  5.77841e+22
-8.50452  5.79182e+22
-8.38721  5.80485e+22
-8.26991  5.81777e+22
-8.1526  5.83072e+22
-8.03529  5.84357e+22
-7.91799  5.85616e+22
-7.80069  5.86818e+22
-7.68338  5.87938e+22
-7.56608  5.88969e+22
-7.44877  5.89917e+22
-7.33146  5.90812e+22
-7.21416  5.91691e+22
-7.09685  5.92602e+22
-6.97955  5.93583e+22
-6.86224  5.9466e+22
-6.74494  5.95837e+22
-6.62763  5.97094e+22
-6.51033  5.984e+22
-6.39302  5.99719e+22
-6.27572  6.01018e+22
-6.15842  6.02276e+22
-6.04111  6.03493e+22
-5.92381  6.04689e+22
-5.8065  6.05887e+22
-5.68919  6.07117e+22
-5.57189  6.08394e+22
-5.45458  6.09716e+22
-5.33728  6.11055e+22
-5.21997  6.12364e+22
-5.10267  6.13585e+22
-4.98536  6.1466e+22
-4.86806  6.15549e+22
-4.75075  6.16234e+22
-4.63345  6.1673e+22
-4.51614  6.17086e+22
-4.39884  6.17363e+22
-4.28154  6.1764e+22
-4.16423  6.17982e+22
-4.04692  6.18433e+22
-3.92962  6.19013e+22
-3.81231  6.19712e+22
-3.69501  6.20496e+22
-3.5777  6.21324e+22
-3.4604  6.22153e+22
-3.34309  6.22954e+22
-3.22579  6.23716e+22
-3.10849  6.24447e+22
-2.99118  6.25163e+22
-2.87387  6.25889e+22
-2.75657  6.26641e+22
-2.63926  6.27419e+22
-2.52196  6.28201e+22
-2.40465  6.28956e+22
-2.28735  6.29641e+22
-2.17005  6.30219e+22
-2.05274  6.30667e+22
-1.93544  6.30978e+22
-1.81813  6.31171e+22
-1.70083  6.31277e+22
-1.58352  6.31338e+22
-1.46622  6.31387e+22
-1.34891  6.31441e+22
-1.2316  6.31499e+22
-1.1143  6.31538e+22
-0.996995  6.3152e+22
-0.87969  6.31413e+22
-0.762385  6.31189e+22
-0.64508  6.3085e+22
-0.527775  6.3042e+22
-0.41047  6.29957e+22
-0.293165  6.29522e+22
-0.17586  6.2919e+22
-0.058555  6.29015e+22
0.05875  6.29024e+22
0.176055  6.29211e+22
0.29336  6.29542e+22
0.410665  6.29951e+22
0.52797  6.30373e+22
0.645275  6.3074e+22
0.76258  6.31011e+22
0.879885  6.3117e+22
0.99719  6.31226e+22
1.1145  6.31209e+22
1.2318  6.31156e+22
1.3491  6.31094e+22
1.46641  6.31042e+22
1.58371  6.3099e+22
1.70102  6.30911e+22
1.81832  6.30768e+22
1.93563  6.30524e+22
2.05294  6.30148e+22
2.17024  6.29632e+22
2.28754  6.28991e+22
2.40485  6.28255e+22
2.52216  6.27467e+22
2.63946  6.26668e+22
2.75677  6.25884e+22
2.87407  6.25128e+22
2.99137  6.24392e+22
3.10868  6.23654e+22
3.22599  6.22889e+22
3.34329  6.22082e+22
3.4606  6.21231e+22
3.5779  6.20353e+22
3.69521  6.19488e+22
3.81251  6.1868e+22
3.92982  6.17974e+22
4.04712  6.17397e+22
4.16443  6.1695e+22
4.28173  6.16607e+22
4.39903  6.16312e+22
4.51634  6.15995e+22
4.63364  6.15581e+22
4.75095  6.15011e+22
4.86825  6.14248e+22
4.98556  6.1329e+22
5.10286  6.1216e+22
5.22017  6.10909e+22
5.33748  6.0959e+22
5.45478  6.08261e+22
5.57209  6.06954e+22
5.68939  6.05691e+22
5.8067  6.04462e+22
5.924  6.03245e+22
6.0413  6.02011e+22
6.15861  6.00741e+22
6.27591  5.99423e+22
6.39322  5.98069e+22
6.51052  5.96708e+22
6.62783  5.95378e+22
6.74514  5.94117e+22
6.86244  5.92951e+22
6.97975  5.91888e+22
7.09705  5.90916e+22
7.21436  5.90002e+22
7.33166  5.89101e+22
7.44897  5.88168e+22
7.56627  5.87168e+22
7.68358  5.8608e+22
7.80088  5.84905e+22
7.91819  5.83664e+22
8.03549  5.82382e+22
8.1528  5.81085e+22
8.2701  5.79792e+22
8.38741  5.78501e+22
8.50471  5.77192e+22
8.62202  5.75833e+22
8.73932  5.74384e+22
8.85662  5.72807e+22
8.97393  5.71088e+22
9.09123  5.69224e+22
9.20854  5.67244e+22
9.32584  5.65191e+22
9.44315  5.63122e+22
9.56045  5.61087e+22
9.67776  5.5913e+22
9.79506  5.57269e+22
9.91237  5.55502e+22
10.0297  5.53809e+22
10.147  5.52162e+22
10.2643  5.50525e+22
10.3816  5.48881e+22
10.4989  5.47223e+22
10.6162  5.45561e+22
10.7335  5.43916e+22
10.8508  5.42317e+22
10.9681  5.40778e+22
11.0854  5.39305e+22
11.2027  5.37879e+22
11.32  5.36461e+22
11.4373  5.35001e+22
11.5546  5.33448e+22
11.6719  5.3176e+22
11.7893  5.29914e+22
11.9066  5.27918e+22
12.0239  5.258e+22
12.1412  5.23606e+22
12.2585  5.21389e+22
12.3758  5.192e+22
12.4931  5.17062e+22
12.6104  5.14983e+22
12.7277  5.12948e+22
12.845  5.10918e+22
12.9623  5.08855e+22
13.0796  5.06734e+22
13.1969  5.04535e+22
13.3142  5.02277e+22
13.4315  4.99989e+22
13.5488  4.97719e+22
13.6661  4.95518e+22
13.7834  4.93423e+22
13.9007  4.91456e+22
14.018  4.89607e+22
14.1354  4.87849e+22
14.2527  4.86133e+22
14.37  4.84412e+22
14.4873  4.82643e+22
14.6046  4.80803e+22
14.7219  4.78891e+22
14.8392  4.76926e+22
14.9565  4.74936e+22
15.0738  4.72955e+22
15.1911  4.70998e+22
15.3084  4.69065e+22
15.4257  4.6714e+22
15.543  4.65188e+22
15.6603  4.63167e+22
15.7776  4.61046e+22
15.8949  4.5881e+22
16.0122  4.56465e+22
16.1295  4.54045e+22
16.2468  4.51597e+22
16.3641  4.49172e+22
16.4815  4.46813e+22
16.5988  4.44542e+22
16.7161  4.42351e+22
16.8334  4.40209e+22
16.9507  4.38065e+22
17.068  4.35864e+22
17.1853  4.33559e+22
17.3026  4.31132e+22
17.4199  4.28589e+22
17.5372  4.25963e+22
17.6545  4.23311e+22
17.7718  4.20695e+22
17.8891  4.18164e+22
18.0064  4.15754e+22
18.1237  4.13463e+22
18.241  4.11267e+22
18.3583  4.09123e+22
18.4756  4.06974e+22
18.5929  4.04775e+22
18.7102  4.02493e+22
18.8275  4.00121e+22
18.9449  3.97672e+22
19.0622  3.95176e+22
19.1795  3.92664e+22
19.2968  3.90161e+22
19.4141  3.87677e+22
19.5314  3.85208e+22
19.6487  3.82728e+22
19.766  3.80208e+22
19.8833  3.77621e+22
20.0006  3.74955e+22
20.1179  3.72217e+22
20.2352  3.69441e+22
20.3525  3.66669e+22
20.4698  3.63959e+22
20.5871  3.61359e+22
20.7044  3.589e+22
20.8217  3.56593e+22
20.939  3.54427e+22
21.0563  3.52366e+22
21.1736  3.50373e+22
21.291  3.48413e+22
21.4083  3.46461e+22
21.5256  3.44509e+22
21.6429  3.42567e+22
21.7602  3.40659e+22
21.8775  3.38802e+22
21.9948  3.37013e+22
22.1121  3.35287e+22
22.2294  3.33595e+22
22.3467  3.31893e+22
22.464  3.30134e+22
22.5813  3.28262e+22
22.6986  3.26249e+22
22.8159  3.24085e+22
22.9332  3.21785e+22
23.0505  3.19395e+22
23.1678  3.16974e+22
23.2851  3.14579e+22
23.4024  3.12258e+22
23.5198  3.10036e+22
23.6371  3.07908e+22
23.7544  3.05841e+22
23.8717  3.03787e+22
23.989  3.01692e+22
24.1063  2.99508e+22
24.2236  2.97211e+22
24.3409  2.94796e+22
24.4582  2.92293e+22
24.5755  2.89744e+22
24.6928  2.872e+22
24.8101  2.84715e+22
24.9274  2.82325e+22
25.0447  2.80047e+22
25.162  2.77878e+22
25.2793  2.75799e+22
25.3966  2.7378e+22
25.5139  2.7179e+22
25.6312  2.69803e+22
25.7485  2.67792e+22
25.8658  2.65742e+22
25.9832  2.63633e+22
26.1005  2.61432e+22
26.2178  2.59101e+22
26.3351  2.56586e+22
26.4524  2.5382e+22
26.5697  2.50738e+22
26.687  2.47288e+22
26.8043  2.4344e+22
26.9216  2.39201e+22
27.0389  2.34624e+22
27.1562  2.29799e+22
27.2735  2.24847e+22
27.3908  2.1991e+22
27.5081  2.15124e+22
27.6254  2.1061e+22
27.7427  2.06453e+22
27.86  2.02706e+22
27.9773  1.99376e+22
28.0946  1.96438e+22
28.212  1.93844e+22
28.3293  1.91531e+22
28.4466  1.89425e+22
28.5639  1.87456e+22
28.6812  1.85541e+22
28.7985  1.83606e+22
28.9158  1.81558e+22
29.0331  1.79296e+22
29.1504  1.7671e+22
29.2677  1.73689e+22
29.385  1.70134e+22
29.5023  1.65974e+22
29.6196  1.61176e+22
29.7369  1.55765e+22
29.8542  1.49823e+22
29.9715  1.4348e+22
30.0888  1.36912e+22
30.2061  1.30316e+22
30.3234  1.23892e+22
30.4407  1.17811e+22
30.558  1.12218e+22
30.6754  1.072e+22
30.7927  1.02803e+22
30.91  9.90202e+21
31.0273  9.58109e+21
31.1446  9.31013e+21
31.2619  9.07994e+21
31.3792  8.87978e+21
31.4965  8.6977e+21
31.6138  8.52052e+21
31.7311  8.33403e+21
31.8484  8.12456e+21
31.9657  7.87762e+21
32.083  7.58233e+21
32.2003  7.23024e+21
32.3176  6.81823e+21
32.4349  6.34926e+21
32.5522  5.83314e+21
32.6695  5.28492e+21
32.7868  4.72464e+21
32.9042  4.17405e+21
33.0215  3.65449e+21
33.1388  3.18418e+21
33.2561  2.77662e+21
33.3734  2.43928e+21
33.4907  2.17361e+21
33.608  1.9759e+21
33.7253  1.83871e+21
33.8426  1.75266e+21
33.9599  1.70747e+21
34.0772  1.69321e+21
34.1945  1.70082e+21
34.3118  1.72175e+21
34.4291  1.74733e+21
34.5464  1.76909e+21
34.6637  1.77819e+21
34.781  1.76608e+21
34.8983  1.72587e+21
35.0156  1.65262e+21
35.1329  1.54525e+21
35.2503  1.40663e+21
35.3676  1.24409e+21
35.4849  1.06788e+21
35.6022  8.90874e+20
35.7195  7.25366e+20
35.8368  5.81914e+20
35.9541  4.67754e+20
36.0714  3.85895e+20
36.1887  3.35128e+20
36.306  3.11063e+20
36.4233  3.07606e+20
36.5406  3.18318e+20
36.6579  3.38065e+20
36.7752  3.63354e+20
36.8925  3.92868e+20
37.0098  4.26785e+20
37.1271  4.65648e+20
37.2444  5.09828e+20
37.3617  5.58314e+20
37.479  6.08643e+20
37.5964  6.57644e+20
37.7137  7.0128e+20
37.831  7.36573e+20
37.9483  7.61993e+20
38.0656  7.77845e+20
38.1829  7.8651e+20
38.3002  7.91487e+20
38.4175  7.96457e+20
38.5348  8.04132e+20
38.6521  8.15276e+20
38.7694  8.28529e+20
38.8867  8.40248e+20
39.004  8.45644e+20
39.1213  8.40258e+20
39.2386  8.20537e+20
39.3559  7.85422e+20
39.4732  7.36813e+20
39.5905  6.79021e+20
39.7078  6.18148e+20
39.8251  5.60789e+20
39.9425  5.12899e+20
40.0598  4.78193e+20
40.1771  4.5809e+20
40.2944  4.51359e+20
40.4117  4.55088e+20
40.529  4.65165e+20
40.6463  4.77909e+20
40.7636  4.90492e+20
40.8809  5.01619e+20
40.9982  5.11571e+20
41.1155  5.21159e+20
41.2328  5.31586e+20
41.3501  5.43067e+20
41.4674  5.54796e+20
41.5847  5.64403e+20
41.702  5.68657e+20
41.8193  5.63881e+20
41.9366  5.47267e+20
42.0539  5.17497e+20
42.1712  4.75534e+20
42.2885  4.2427e+20
42.4059  3.6846e+20
42.5232  3.13807e+20
42.6405  2.6558e+20
42.7578  2.27992e+20
42.8751  2.03104e+20
42.9924  1.90711e+20
43.1097  1.88763e+20
43.227  1.93852e+20
43.3443  2.02277e+20
43.4616  2.11045e+20
43.5789  2.18407e+20
43.6962  2.24304e+20
43.8135  2.30031e+20
43.9308  2.37693e+20
44.0481  2.49304e+20
44.1654  2.66066e+20
44.2827  2.87847e+20
44.4  3.1293e+20
44.5173  3.38513e+20
44.6347  3.61185e+20
44.752  3.78253e+20
44.8693  3.87932e+20
44.9866  3.90604e+20
45.1039  3.88271e+20
45.2212  3.84321e+20
45.3385  3.8263e+20
45.4558  3.86497e+20
45.5731  3.97602e+20
45.6904  4.15541e+20
45.8077  4.37465e+20
45.925  4.59022e+20
46.0423  4.75354e+20
46.1596  4.81926e+20
46.2769  4.76213e+20
46.3942  4.58329e+20
46.5115  4.31243e+20
46.6288  3.99975e+20
46.7461  3.70936e+20
46.8634  3.50122e+20
46.9808  3.42171e+20
47.0981  3.48829e+20
47.2154  3.69195e+20
47.3327  3.99647e+20
47.45  4.35004e+20
47.5673  4.69761e+20
47.6846  4.99225e+20
47.8019  5.20728e+20
47.9192  5.33623e+20
48.0365  5.39083e+20
48.1538  5.39659e+20
48.2711  5.37402e+20
48.3884  5.33707e+20
48.5057  5.28576e+20
48.623  5.2021e+20
48.7403  5.06081e+20
48.8576  4.8377e+20
48.9749  4.51852e+20
49.0922  4.10936e+20
49.2095  3.63807e+20
49.3269  3.15216e+20
49.4442  2.70548e+20
49.5615  2.34939e+20
49.6788  2.11887e+20
49.7961  2.02326e+20
49.9134  2.04366e+20
50.0307  2.13962e+20
50.148  2.25897e+20
50.2653  2.35291e+20
50.3826  2.38843e+20
50.4999  2.35722e+20
50.6172  2.27594e+20
50.7345  2.18209e+20
