#S 1 spectral density
#N 2
#UFWHM 22.6399
#L  abscissas [um]  spectral density
-58.5938  2.52544e+20
-58.4764  2.44627e+20
-58.3591  2.36466e+20
-58.2418  2.31017e+20
-58.1245  2.30616e+20
-58.0072  2.36565e+20
-57.8899  2.48457e+20
-57.7726  2.6411e+20
-57.6553  2.80079e+20
-57.538  2.92194e+20
-57.4207  2.96965e+20
-57.3034  2.92195e+20
-57.1861  2.77645e+20
-57.0688  2.55448e+20
-56.9515  2.2983e+20
-56.8342  2.05663e+20
-56.7169  1.88248e+20
-56.5996  1.81395e+20
-56.4823  1.86993e+20
-56.365  2.04349e+20
-56.2477  2.30358e+20
-56.1303  2.60434e+20
-56.013  2.89285e+20
-55.8957  3.12259e+20
-55.7784  3.26418e+20
-55.6611  3.31047e+20
-55.5438  3.27719e+20
-55.4265  3.19589e+20
-55.3092  3.10831e+20
-55.1919  3.05223e+20
-55.0746  3.04898e+20
-54.9573  3.10697e+20
-54.84  3.21169e+20
-54.7227  3.3386e+20
-54.6054  3.45542e+20
-54.4881  3.53755e+20
-54.3708  3.57236e+20
-54.2535  3.56516e+20
-54.1362  3.53591e+20
-54.0189  3.51331e+20
-53.9016  3.52442e+20
-53.7842  3.58477e+20
-53.6669  3.69477e+20
-53.5496  3.83288e+20
-53.4323  3.96422e+20
-53.315  4.04943e+20
-53.1977  4.05319e+20
-53.0804  3.95865e+20
-52.9631  3.77303e+20
-52.8458  3.52427e+20
-52.7285  3.26098e+20
-52.6112  3.03463e+20
-52.4939  2.89059e+20
-52.3766  2.85385e+20
-52.2593  2.92269e+20
-52.142  3.06852e+20
-52.0247  3.24564e+20
-51.9074  3.3993e+20
-51.7901  3.48403e+20
-51.6728  3.47491e+20
-51.5555  3.37316e+20
-51.4381  3.20599e+20
-51.3208  3.01868e+20
-51.2035  2.85983e+20
-51.0862  2.77036e+20
-50.9689  2.76985e+20
-50.8516  2.85103e+20
-50.7343  2.98379e+20
-50.617  3.12212e+20
-50.4997  3.2199e+20
-50.3824  3.24196e+20
-50.2651  3.17678e+20
-50.1478  3.03977e+20
-50.0305  2.86796e+20
-49.9132  2.71085e+20
-49.7959  2.61721e+20
-49.6786  2.62028e+20
-49.5613  2.72797e+20
-49.444  2.92427e+20
-49.3267  3.1683e+20
-49.2094  3.40956e+20
-49.092  3.59948e+20
-48.9747  3.70404e+20
-48.8574  3.71368e+20
-48.7401  3.63959e+20
-48.6228  3.51516e+20
-48.5055  3.38104e+20
-48.3882  3.27345e+20
-48.2709  3.21666e+20
-48.1536  3.21229e+20
-48.0363  3.24731e+20
-47.919  3.2937e+20
-47.8017  3.32214e+20
-47.6844  3.313e+20
-47.5671  3.26273e+20
-47.4498  3.18439e+20
-47.3325  3.10914e+20
-47.2152  3.07076e+20
-47.0979  3.0985e+20
-46.9806  3.20409e+20
-46.8633  3.37807e+20
-46.7459  3.58801e+20
-46.6286  3.78602e+20
-46.5113  3.91963e+20
-46.394  3.94653e+20
-46.2767  3.84688e+20
-46.1594  3.62907e+20
-46.0421  3.32841e+20
-45.9248  3.00557e+20
-45.8075  2.72689e+20
-45.6902  2.5517e+20
-45.5729  2.52224e+20
-45.4556  2.64789e+20
-45.3383  2.91037e+20
-45.221  3.26206e+20
-45.1037  3.64164e+20
-44.9864  3.98635e+20
-44.8691  4.24714e+20
-44.7518  4.39567e+20
-44.6345  4.42964e+20
-44.5172  4.37096e+20
-44.3998  4.25696e+20
-44.2825  4.13178e+20
-44.1652  4.03084e+20
-44.0479  3.97829e+20
-43.9306  3.98073e+20
-43.8133  4.02658e+20
-43.696  4.09622e+20
-43.5787  4.16847e+20
-43.4614  4.22527e+20
-43.3441  4.26158e+20
-43.2268  4.28414e+20
-43.1095  4.30906e+20
-42.9922  4.357e+20
-42.8749  4.44305e+20
-42.7576  4.57278e+20
-42.6403  4.73793e+20
-42.523  4.91424e+20
-42.4057  5.07e+20
-42.2884  5.17148e+20
-42.171  5.19315e+20
-42.0537  5.12401e+20
-41.9364  4.97213e+20
-41.8191  4.76307e+20
-41.7018  4.53614e+20
-41.5845  4.33315e+20
-41.4672  4.19061e+20
-41.3499  4.12891e+20
-41.2326  4.15043e+20
-41.1153  4.235e+20
-40.998  4.34981e+20
-40.8807  4.45517e+20
-40.7634  4.51692e+20
-40.6461  4.51466e+20
-40.5288  4.44529e+20
-40.4115  4.32624e+20
-40.2942  4.18773e+20
-40.1769  4.06399e+20
-40.0596  3.9855e+20
-39.9423  3.96376e+20
-39.825  3.99687e+20
-39.7076  4.06293e+20
-39.5903  4.12804e+20
-39.473  4.15963e+20
-39.3557  4.13124e+20
-39.2384  4.03777e+20
-39.1211  3.89426e+20
-39.0038  3.73534e+20
-38.8865  3.60843e+20
-38.7692  3.55877e+20
-38.6519  3.62165e+20
-38.5346  3.80748e+20
-38.4173  4.10235e+20
-38.3  4.46755e+20
-38.1827  4.84719e+20
-38.0654  5.18405e+20
-37.9481  5.43112e+20
-37.8308  5.55933e+20
-37.7135  5.56799e+20
-37.5962  5.47919e+20
-37.4789  5.33159e+20
-37.3615  5.17165e+20
-37.2442  5.03771e+20
-37.1269  4.95367e+20
-37.0096  4.92384e+20
-36.8923  4.93584e+20
-36.775  4.96622e+20
-36.6577  4.99021e+20
-36.5404  4.99408e+20
-36.4231  4.97508e+20
-36.3058  4.94807e+20
-36.1885  4.93718e+20
-36.0712  4.96744e+20
-35.9539  5.05457e+20
-35.8366  5.19766e+20
-35.7193  5.37552e+20
-35.602  5.54907e+20
-35.4847  5.67233e+20
-35.3674  5.70163e+20
-35.2501  5.61356e+20
-35.1328  5.41055e+20
-35.0154  5.1252e+20
-34.8981  4.81729e+20
-34.7808  4.55708e+20
-34.6635  4.41519e+20
-34.5462  4.44209e+20
-34.4289  4.6557e+20
-34.3116  5.03751e+20
-34.1943  5.53792e+20
-34.077  6.08114e+20
-33.9597  6.5871e+20
-33.8424  6.98711e+20
-33.7251  7.2377e+20
-33.6078  7.32739e+20
-33.4905  7.27633e+20
-33.3732  7.13068e+20
-33.2559  6.94676e+20
-33.1386  6.77355e+20
-33.0213  6.65084e+20
-32.904  6.59077e+20
-32.7867  6.58861e+20
-32.6693  6.62388e+20
-32.552  6.67099e+20
-32.4347  6.71078e+20
-32.3174  6.7391e+20
-32.2001  6.76366e+20
-32.0828  6.80858e+20
-31.9655  6.89985e+20
-31.8482  7.05929e+20
-31.7309  7.29004e+20
-31.6136  7.57921e+20
-31.4963  7.89112e+20
-31.379  8.18187e+20
-31.2617  8.40428e+20
-31.1444  8.52179e+20
-31.0271  8.51924e+20
-30.9098  8.40533e+20
-30.7925  8.21488e+20
-30.6752  7.99557e+20
-30.5579  7.79751e+20
-30.4406  7.66742e+20
-30.3232  7.62851e+20
-30.2059  7.68243e+20
-30.0886  7.80576e+20
-29.9713  7.9611e+20
-29.854  8.10622e+20
-29.7367  8.2052e+20
-29.6194  8.2378e+20
-29.5021  8.20461e+20
-29.3848  8.12445e+20
-29.2675  8.02767e+20
-29.1502  7.94355e+20
-29.0329  7.89697e+20
-28.9156  7.89484e+20
-28.7983  7.92389e+20
-28.681  7.96205e+20
-28.5637  7.97936e+20
-28.4464  7.95035e+20
-28.3291  7.86837e+20
-28.2118  7.7472e+20
-28.0944  7.62069e+20
-27.9771  7.5443e+20
-27.8598  7.57172e+20
-27.7425  7.75311e+20
-27.6252  8.11278e+20
-27.5079  8.6495e+20
-27.3906  9.32828e+20
-27.2733  1.00886e+21
-27.156  1.08553e+21
-27.0387  1.15497e+21
-26.9214  1.21118e+21
-26.8041  1.25028e+21
-26.6868  1.27145e+21
-26.5695  1.2766e+21
-26.4522  1.27006e+21
-26.3349  1.25679e+21
-26.2176  1.24175e+21
-26.1003  1.22878e+21
-25.983  1.22007e+21
-25.8657  1.21612e+21
-25.7483  1.21628e+21
-25.631  1.21971e+21
-25.5137  1.22565e+21
-25.3964  1.23406e+21
-25.2791  1.24558e+21
-25.1618  1.26177e+21
-25.0445  1.28364e+21
-24.9272  1.3115e+21
-24.8099  1.34453e+21
-24.6926  1.38018e+21
-24.5753  1.41477e+21
-24.458  1.44453e+21
-24.3407  1.46633e+21
-24.2234  1.47828e+21
-24.1061  1.482e+21
-23.9888  1.48115e+21
-23.8715  1.48188e+21
-23.7542  1.49117e+21
-23.6369  1.51655e+21
-23.5196  1.56278e+21
-23.4023  1.63231e+21
-23.2849  1.7238e+21
-23.1676  1.83215e+21
-23.0503  1.95014e+21
-22.933  2.06875e+21
-22.8157  2.17986e+21
-22.6984  2.27678e+21
-22.5811  2.35621e+21
-22.4638  2.41762e+21
-22.3465  2.46329e+21
-22.2292  2.49756e+21
-22.1119  2.52532e+21
-21.9946  2.55136e+21
-21.8773  2.57922e+21
-21.76  2.61136e+21
-21.6427  2.64892e+21
-21.5254  2.69293e+21
-21.4081  2.74492e+21
-21.2908  2.80725e+21
-21.1735  2.88279e+21
-21.0561  2.97599e+21
-20.9388  3.09039e+21
-20.8215  3.22858e+21
-20.7042  3.39054e+21
-20.5869  3.57334e+21
-20.4696  3.77103e+21
-20.3523  3.97509e+21
-20.235  4.17579e+21
-20.1177  4.36366e+21
-20.0004  4.53127e+21
-19.8831  4.67398e+21
-19.7658  4.79035e+21
-19.6485  4.88338e+21
-19.5312  4.95811e+21
-19.4139  5.02086e+21
-19.2966  5.07913e+21
-19.1793  5.13903e+21
-19.062  5.20581e+21
-18.9447  5.28406e+21
-18.8274  5.37767e+21
-18.71  5.48995e+21
-18.5927  5.62597e+21
-18.4754  5.79026e+21
-18.3581  5.98888e+21
-18.2408  6.2263e+21
-18.1235  6.50658e+21
-18.0062  6.82969e+21
-17.8889  7.19294e+21
-17.7716  7.58968e+21
-17.6543  8.00993e+21
-17.537  8.44306e+21
-17.4197  8.87834e+21
-17.3024  9.30635e+21
-17.1851  9.72269e+21
-17.0678  1.01266e+22
-16.9505  1.0521e+22
-16.8332  1.09131e+22
-16.7159  1.13107e+22
-16.5986  1.17225e+22
-16.4813  1.21547e+22
-16.364  1.26119e+22
-16.2466  1.3096e+22
-16.1293  1.36062e+22
-16.012  1.41422e+22
-15.8947  1.47021e+22
-15.7774  1.52868e+22
-15.6601  1.58976e+22
-15.5428  1.65376e+22
-15.4255  1.72102e+22
-15.3082  1.79176e+22
-15.1909  1.86603e+22
-15.0736  1.94358e+22
-14.9563  2.02392e+22
-14.839  2.10624e+22
-14.7217  2.18972e+22
-14.6044  2.27349e+22
-14.4871  2.35686e+22
-14.3698  2.43933e+22
-14.2525  2.52082e+22
-14.1352  2.60136e+22
-14.0178  2.68123e+22
-13.9005  2.76072e+22
-13.7832  2.84005e+22
-13.6659  2.91937e+22
-13.5486  2.99867e+22
-13.4313  3.07786e+22
-13.314  3.15684e+22
-13.1967  3.23567e+22
-13.0794  3.31445e+22
-12.9621  3.39356e+22
-12.8448  3.47346e+22
-12.7275  3.55461e+22
-12.6102  3.63739e+22
-12.4929  3.72193e+22
-12.3756  3.808e+22
-12.2583  3.89503e+22
-12.141  3.98217e+22
-12.0237  4.06833e+22
-11.9064  4.15247e+22
-11.7891  4.23362e+22
-11.6718  4.31121e+22
-11.5544  4.38498e+22
-11.4371  4.45507e+22
-11.3198  4.5219e+22
-11.2025  4.58615e+22
-11.0852  4.64854e+22
-10.9679  4.70972e+22
-10.8506  4.77025e+22
-10.7333  4.83049e+22
-10.616  4.89082e+22
-10.4987  4.95149e+22
-10.3814  5.01275e+22
-10.2641  5.07504e+22
-10.1468  5.13872e+22
-10.0295  5.20433e+22
-9.91217  5.27222e+22
-9.79487  5.34254e+22
-9.67756  5.41524e+22
-9.56026  5.48999e+22
-9.44295  5.56607e+22
-9.32565  5.64255e+22
-9.20834  5.71846e+22
-9.09104  5.79286e+22
-8.97373  5.86498e+22
-8.85643  5.93438e+22
-8.73913  6.001e+22
-8.62182  6.0651e+22
-8.50452  6.1271e+22
-8.38721  6.18762e+22
-8.26991  6.2473e+22
-8.1526  6.30663e+22
-8.03529  6.36605e+22
-7.91799  6.42573e+22
-7.80069  6.48586e+22
-7.68338  6.54646e+22
-7.56608  6.60764e+22
-7.44877  6.66957e+22
-7.33146  6.73234e+22
-7.21416  6.79614e+22
-7.09685  6.86102e+22
-6.97955  6.9269e+22
-6.86224  6.99352e+22
-6.74494  7.0603e+22
-6.62763  7.12665e+22
-6.51033  7.19181e+22
-6.39302  7.25513e+22
-6.27572  7.31618e+22
-6.15842  7.37476e+22
-6.04111  7.43103e+22
-5.92381  7.48547e+22
-5.8065  7.53865e+22
-5.68919  7.59126e+22
-5.57189  7.64383e+22
-5.45458  7.69669e+22
-5.33728  7.74979e+22
-5.21997  7.80278e+22
-5.10267  7.85511e+22
-4.98536  7.90605e+22
-4.86806  7.95502e+22
-4.75075  8.00155e+22
-4.63345  8.04552e+22
-4.51614  8.08705e+22
-4.39884  8.12658e+22
-4.28154  8.16459e+22
-4.16423  8.20174e+22
-4.04692  8.23843e+22
-3.92962  8.27498e+22
-3.81231  8.31146e+22
-3.69501  8.34777e+22
-3.5777  8.38372e+22
-3.4604  8.41917e+22
-3.34309  8.45399e+22
-3.22579  8.48826e+22
-3.10849  8.52205e+22
-2.99118  8.55555e+22
-2.87387  8.58889e+22
-2.75657  8.62204e+22
-2.63926  8.65477e+22
-2.52196  8.68664e+22
-2.40465  8.7171e+22
-2.28735  8.74555e+22
-2.17005  8.77147e+22
-2.05274  8.79456e+22
-1.93544  8.81476e+22
-1.81813  8.83237e+22
-1.70083  8.84786e+22
-1.58352  8.86179e+22
-1.46622  8.8747e+22
-1.34891  8.88695e+22
-1.2316  8.89867e+22
-1.1143  8.90971e+22
-0.996995  8.91976e+22
-0.87969  8.9284e+22
-0.762385  8.93523e+22
-0.64508  8.94018e+22
-0.527775  8.94323e+22
-0.41047  8.94472e+22
-0.293165  8.94512e+22
-0.17586  8.94498e+22
-0.058555  8.94469e+22
0.05875  8.94449e+22
0.176055  8.94429e+22
0.29336  8.94387e+22
0.410665  8.94267e+22
0.52797  8.94021e+22
0.645275  8.93607e+22
0.76258  8.93004e+22
0.879885  8.92209e+22
0.99719  8.91253e+22
1.1145  8.90175e+22
1.2318  8.89011e+22
1.3491  8.8779e+22
1.46641  8.86518e+22
1.58371  8.8517e+22
1.70102  8.83697e+22
1.81832  8.82047e+22
1.93563  8.8016e+22
2.05294  8.77998e+22
2.17024  8.75544e+22
2.28754  8.72816e+22
2.40485  8.69852e+22
2.52216  8.66712e+22
2.63946  8.63452e+22
2.75677  8.60131e+22
2.87407  8.56781e+22
2.99137  8.53417e+22
3.10868  8.50032e+22
3.22599  8.46613e+22
3.34329  8.4314e+22
3.4606  8.39603e+22
3.5779  8.36004e+22
3.69521  8.32358e+22
3.81251  8.28681e+22
3.92982  8.24996e+22
4.04712  8.21301e+22
4.16443  8.17583e+22
4.28173  8.13807e+22
4.39903  8.09924e+22
4.51634  8.0587e+22
4.63364  8.01597e+22
4.75095  7.97074e+22
4.86825  7.92296e+22
4.98556  7.87293e+22
5.10286  7.82115e+22
5.22017  7.76832e+22
5.33748  7.71508e+22
5.45478  7.66195e+22
5.57209  7.60911e+22
5.68939  7.55645e+22
5.8067  7.50354e+22
5.924  7.44977e+22
6.0413  7.39447e+22
6.15861  7.33708e+22
6.27591  7.27723e+22
6.39322  7.21495e+22
6.51052  7.15055e+22
6.62783  7.08456e+22
6.74514  7.0177e+22
6.86244  6.95069e+22
6.97975  6.88414e+22
7.09705  6.81844e+22
7.21436  6.75382e+22
7.33166  6.69029e+22
7.44897  6.62772e+22
7.56627  6.56598e+22
7.68358  6.50491e+22
7.80088  6.44439e+22
7.91819  6.38439e+22
8.03549  6.32483e+22
8.1528  6.26548e+22
8.2701  6.20608e+22
8.38741  6.14619e+22
8.50471  6.08519e+22
8.62202  6.02245e+22
8.73932  5.95741e+22
8.85662  5.88963e+22
8.97393  5.81908e+22
9.09123  5.74594e+22
9.20854  5.67082e+22
9.32584  5.59455e+22
9.44315  5.51814e+22
9.56045  5.44251e+22
9.67776  5.36856e+22
9.79506  5.2968e+22
9.91237  5.22751e+22
10.0297  5.16061e+22
10.147  5.09581e+22
10.2643  5.0327e+22
10.3816  4.97089e+22
10.4989  4.90988e+22
10.6162  4.84937e+22
10.7335  4.78907e+22
10.8508  4.72868e+22
10.9681  4.66783e+22
11.0854  4.60602e+22
11.2027  4.5427e+22
11.32  4.47711e+22
11.4373  4.4086e+22
11.5546  4.33662e+22
11.6719  4.26088e+22
11.7893  4.1814e+22
11.9066  4.09859e+22
12.0239  4.01325e+22
12.1412  3.9264e+22
12.2585  3.83911e+22
12.3758  3.75238e+22
12.4931  3.66694e+22
12.6104  3.58324e+22
12.7277  3.50128e+22
12.845  3.42082e+22
12.9623  3.34142e+22
13.0796  3.26258e+22
13.1969  3.18384e+22
13.3142  3.10497e+22
13.4315  3.02581e+22
13.5488  2.94643e+22
13.6661  2.86692e+22
13.7834  2.78745e+22
13.9007  2.70789e+22
14.018  2.62812e+22
14.1354  2.54793e+22
14.2527  2.46705e+22
14.37  2.38526e+22
14.4873  2.30265e+22
14.6046  2.21938e+22
14.7219  2.13606e+22
14.8392  2.05344e+22
14.9565  1.97233e+22
15.0738  1.89359e+22
15.1911  1.81786e+22
15.3084  1.74552e+22
15.4257  1.67674e+22
15.543  1.61135e+22
15.6603  1.54901e+22
15.7776  1.48947e+22
15.8949  1.43246e+22
16.0122  1.37786e+22
16.1295  1.32571e+22
16.2468  1.27616e+22
16.3641  1.22929e+22
16.4815  1.18505e+22
16.5988  1.14319e+22
16.7161  1.10318e+22
16.8334  1.06428e+22
16.9507  1.02563e+22
17.068  9.86431e+21
17.1853  9.46109e+21
17.3026  9.04489e+21
17.4199  8.6183e+21
17.5372  8.18759e+21
17.6545  7.76252e+21
17.7718  7.35445e+21
17.8891  6.97391e+21
18.0064  6.62984e+21
18.1237  6.32676e+21
18.241  6.067e+21
18.3583  5.84865e+21
18.4756  5.66725e+21
18.5929  5.51764e+21
18.7102  5.39448e+21
18.8275  5.29256e+21
18.9449  5.20811e+21
19.0622  5.13676e+21
19.1795  5.07529e+21
19.2968  5.01896e+21
19.4141  4.96162e+21
19.5314  4.89624e+21
19.6487  4.8164e+21
19.766  4.7158e+21
19.8833  4.58987e+21
20.0006  4.43805e+21
20.1179  4.26242e+21
20.2352  4.06893e+21
20.3525  3.86656e+21
20.4698  3.66489e+21
20.5871  3.47344e+21
20.7044  3.29954e+21
20.8217  3.14819e+21
20.939  3.02091e+21
21.0563  2.9164e+21
21.1736  2.83156e+21
21.291  2.76191e+21
21.4083  2.70407e+21
21.5256  2.65492e+21
21.6429  2.61278e+21
21.7602  2.57667e+21
21.8775  2.54565e+21
21.9948  2.51823e+21
22.1121  2.49152e+21
22.2294  2.46172e+21
22.3467  2.42371e+21
22.464  2.37257e+21
22.5813  2.30478e+21
22.6986  2.21894e+21
22.8159  2.11659e+21
22.9332  2.00293e+21
23.0505  1.88509e+21
23.1678  1.77205e+21
23.2851  1.67196e+21
23.4024  1.59135e+21
23.5198  1.53353e+21
23.6371  1.49856e+21
23.7544  1.48221e+21
23.8717  1.47869e+21
23.989  1.48022e+21
24.1063  1.48013e+21
24.2236  1.47304e+21
24.3409  1.4565e+21
24.4582  1.43044e+21
24.5755  1.39751e+21
24.6928  1.36133e+21
24.8101  1.32607e+21
24.9274  1.29481e+21
25.0447  1.26928e+21
25.162  1.25004e+21
25.2793  1.23617e+21
25.3966  1.22631e+21
25.5139  1.21931e+21
25.6312  1.21461e+21
25.7485  1.21267e+21
25.8658  1.21421e+21
25.9832  1.22021e+21
26.1005  1.23103e+21
26.2178  1.24512e+21
26.3351  1.25966e+21
26.4524  1.27032e+21
26.5697  1.272e+21
26.687  1.25988e+21
26.8043  1.23076e+21
26.9216  1.18388e+21
27.0389  1.12136e+21
27.1562  1.04818e+21
27.2735  9.71397e+20
27.3908  8.98566e+20
27.5081  8.36607e+20
27.6254  7.90716e+20
27.7427  7.62894e+20
27.86  7.51787e+20
27.9773  7.54071e+20
28.0946  7.64296e+20
28.212  7.76921e+20
28.3293  7.87533e+20
28.4466  7.93316e+20
28.5639  7.94091e+20
28.6812  7.91406e+20
28.7985  7.8779e+20
28.9158  7.85986e+20
29.0331  7.8815e+20
29.1504  7.94492e+20
29.2677  8.03508e+20
29.385  8.12759e+20
29.5023  8.18776e+20
29.6196  8.19287e+20
29.7369  8.13239e+20
29.8542  8.01377e+20
29.9715  7.86468e+20
30.0888  7.72344e+20
30.2061  7.63233e+20
30.3234  7.62198e+20
30.4407  7.70459e+20
30.558  7.87002e+20
30.6754  8.08325e+20
30.7927  8.29767e+20
30.91  8.46082e+20
31.0273  8.52958e+20
31.1446  8.48178e+20
31.2619  8.31789e+20
31.3792  8.06246e+20
31.4965  7.75674e+20
31.6138  7.44951e+20
31.7311  7.1812e+20
31.8484  6.97844e+20
31.9657  6.84796e+20
32.083  6.77768e+20
32.2003  6.74387e+20
32.3176  6.72094e+20
32.4349  6.68996e+20
32.5522  6.64724e+20
32.6695  6.60304e+20
32.7868  6.5793e+20
32.9042  6.60015e+20
33.0215  6.68215e+20
33.1388  6.82269e+20
33.2561  7.00068e+20
33.3734  7.1712e+20
33.4907  7.28121e+20
33.608  7.2786e+20
33.7253  7.12595e+20
33.8426  6.81433e+20
33.9599  6.36788e+20
34.0772  5.8416e+20
34.1945  5.31009e+20
34.3118  4.85352e+20
34.4291  4.53753e+20
34.5464  4.40243e+20
34.6637  4.45197e+20
34.781  4.65386e+20
34.8983  4.94846e+20
35.0156  5.26098e+20
35.1329  5.52404e+20
35.2503  5.68603e+20
35.3676  5.72563e+20
35.4849  5.65295e+20
35.6022  5.49911e+20
35.7195  5.31126e+20
35.8368  5.13633e+20
35.9541  5.00787e+20
36.0714  4.94021e+20
36.1887  4.92721e+20
36.306  4.94826e+20
36.4233  4.97678e+20
36.5406  4.99123e+20
36.6579  4.98194e+20
36.7752  4.95458e+20
36.8925  4.92979e+20
37.0098  4.93236e+20
37.1271  4.98261e+20
37.2444  5.08655e+20
37.3617  5.23368e+20
37.479  5.39274e+20
37.5964  5.52131e+20
37.7137  5.57396e+20
37.831  5.51687e+20
37.9483  5.33778e+20
38.0656  5.04837e+20
38.1829  4.68468e+20
38.3002  4.30264e+20
38.4175  3.96056e+20
38.5348  3.70802e+20
38.6521  3.57533e+20
38.7694  3.56667e+20
38.8867  3.6566e+20
39.004  3.80598e+20
39.1213  3.96498e+20
39.2386  4.0898e+20
39.3559  4.15291e+20
39.4732  4.14912e+20
39.5905  4.09476e+20
39.7078  4.01999e+20
39.8251  3.96183e+20
39.9425  3.95013e+20
40.0598  3.99901e+20
40.1771  4.10415e+20
40.2944  4.24186e+20
40.4117  4.37826e+20
40.529  4.47864e+20
40.6463  4.51738e+20
40.7636  4.48576e+20
40.8809  4.39528e+20
40.9982  4.27588e+20
41.1155  4.16634e+20
41.2328  4.10666e+20
41.3501  4.12413e+20
41.4674  4.22876e+20
41.5847  4.40886e+20
41.702  4.63488e+20
41.8193  4.86376e+20
41.9366  5.05421e+20
42.0539  5.17057e+20
42.1712  5.19632e+20
42.2885  5.13253e+20
42.4059  4.99917e+20
42.5232  4.82699e+20
42.6405  4.65269e+20
42.7578  4.50353e+20
42.8751  4.39626e+20
42.9924  4.33256e+20
43.1097  4.30096e+20
43.227  4.28164e+20
43.3443  4.25573e+20
43.4616  4.21043e+20
43.5789  4.14526e+20
43.6962  4.07093e+20
43.8135  4.00849e+20
43.9308  3.97943e+20
44.0481  4.00003e+20
44.1654  4.07393e+20
44.2827  4.1867e+20
44.4  4.3075e+20
44.5173  4.39733e+20
44.6347  4.41453e+20
44.752  4.32892e+20
44.8693  4.12943e+20
44.9866  3.8293e+20
45.1039  3.46664e+20
45.2212  3.09763e+20
45.3385  2.78424e+20
45.4558  2.58119e+20
45.5731  2.52297e+20
45.6904  2.61648e+20
45.8077  2.83831e+20
45.925  3.13997e+20
46.0423  3.45729e+20
46.1596  3.72647e+20
46.2769  3.89895e+20
46.3942  3.94888e+20
46.5115  3.87837e+20
46.6288  3.71772e+20
46.7461  3.51218e+20
46.8634  3.31278e+20
46.9808  3.16173e+20
47.0981  3.08265e+20
47.2154  3.07772e+20
47.3327  3.12936e+20
47.45  3.20574e+20
47.5673  3.27383e+20
47.6846  3.31145e+20
47.8019  3.30917e+20
47.9192  3.27595e+20
48.0365  3.23637e+20
48.1538  3.21764e+20
48.2711  3.2411e+20
48.3884  3.31631e+20
48.5057  3.43273e+20
48.623  3.56129e+20
48.7403  3.66432e+20
48.8576  3.70588e+20
48.9749  3.65944e+20
49.0922  3.52041e+20
49.2095  3.30904e+20
49.3269  3.06506e+20
49.4442  2.83779e+20
49.5615  2.67447e+20
49.6788  2.60731e+20
49.7961  2.64425e+20
49.9134  2.76614e+20
50.0307  2.9342e+20
50.148  3.09769e+20
50.2653  3.21041e+20
50.3826  3.24237e+20
50.4999  3.1889e+20
50.6172  3.07051e+20
50.7345  2.92791e+20
