#S 1 spectral density
#N 2
#UFWHM 22.288
#L  abscissas [um]  spectral density
-58.5938  2.4021e+20
-58.4764  2.319e+20
-58.3591  2.24973e+20
-58.2418  2.22306e+20
-58.1245  2.26001e+20
-58.0072  2.36997e+20
-57.8899  2.54438e+20
-57.7726  2.75625e+20
-57.6553  2.9664e+20
-57.538  3.12859e+20
-57.4207  3.20451e+20
-57.3034  3.17004e+20
-57.1861  3.02232e+20
-57.0688  2.78376e+20
-56.9515  2.49881e+20
-56.8342  2.22001e+20
-56.7169  2.00469e+20
-56.5996  1.89537e+20
-56.4823  1.91498e+20
-56.365  2.06015e+20
-56.2477  2.30211e+20
-56.1303  2.59587e+20
-56.013  2.88791e+20
-55.8957  3.13016e+20
-55.7784  3.2902e+20
-55.6611  3.35804e+20
-55.5438  3.34558e+20
-55.4265  3.28149e+20
-55.3092  3.20477e+20
-55.1919  3.15192e+20
-55.0746  3.14385e+20
-54.9573  3.18966e+20
-54.84  3.27668e+20
-54.7227  3.38257e+20
-54.6054  3.47805e+20
-54.4881  3.54145e+20
-54.3708  3.56275e+20
-54.2535  3.54945e+20
-54.1362  3.52273e+20
-54.0189  3.51193e+20
-53.9016  3.54347e+20
-53.7842  3.63149e+20
-53.6669  3.77427e+20
-53.5496  3.94738e+20
-53.4323  4.11294e+20
-53.315  4.22837e+20
-53.1977  4.25543e+20
-53.0804  4.17485e+20
-52.9631  3.99206e+20
-52.8458  3.7344e+20
-52.7285  3.45053e+20
-52.6112  3.19316e+20
-52.4939  3.00972e+20
-52.3766  2.92795e+20
-52.2593  2.94951e+20
-52.142  3.04916e+20
-52.0247  3.18431e+20
-51.9074  3.30328e+20
-51.7901  3.36258e+20
-51.6728  3.33894e+20
-51.5555  3.23399e+20
-51.4381  3.0744e+20
-51.3208  2.90458e+20
-51.2035  2.77086e+20
-51.0862  2.71202e+20
-50.9689  2.74485e+20
-50.8516  2.85936e+20
-50.7343  3.0228e+20
-50.617  3.18702e+20
-50.4997  3.30422e+20
-50.3824  3.33822e+20
-50.2651  3.27738e+20
-50.1478  3.13772e+20
-50.0305  2.95738e+20
-49.9132  2.78777e+20
-49.7959  2.67989e+20
-49.6786  2.66921e+20
-49.5613  2.76587e+20
-49.444  2.9555e+20
-49.3267  3.19831e+20
-49.2094  3.44427e+20
-49.092  3.64407e+20
-48.9747  3.76237e+20
-48.8574  3.78769e+20
-48.7401  3.72903e+20
-48.6228  3.61708e+20
-48.5055  3.4904e+20
-48.3882  3.38333e+20
-48.2709  3.31937e+20
-48.1536  3.30015e+20
-48.0363  3.31354e+20
-47.919  3.3334e+20
-47.8017  3.33305e+20
-47.6844  3.29604e+20
-47.5671  3.22176e+20
-47.4498  3.12626e+20
-47.3325  3.04298e+20
-47.2152  3.00714e+20
-47.0979  3.04827e+20
-46.9806  3.17763e+20
-46.8633  3.3838e+20
-46.7459  3.63202e+20
-46.6286  3.87097e+20
-46.5113  4.04472e+20
-46.394  4.10756e+20
-46.2767  4.03647e+20
-46.1594  3.83712e+20
-46.0421  3.54326e+20
-45.9248  3.21454e+20
-45.8075  2.91756e+20
-45.6902  2.71323e+20
-45.5729  2.64565e+20
-45.4556  2.72724e+20
-45.3383  2.94276e+20
-45.221  3.24831e+20
-45.1037  3.58576e+20
-44.9864  3.89532e+20
-44.8691  4.12988e+20
-44.7518  4.26251e+20
-44.6345  4.2911e+20
-44.5172  4.23686e+20
-44.3998  4.13566e+20
-44.2825  4.02939e+20
-44.1652  3.95116e+20
-44.0479  3.92207e+20
-43.9306  3.94657e+20
-43.8133  4.01099e+20
-43.696  4.09416e+20
-43.5787  4.17439e+20
-43.4614  4.23373e+20
-43.3441  4.26802e+20
-43.2268  4.28556e+20
-43.1095  4.30429e+20
-42.9922  4.34669e+20
-42.8749  4.43023e+20
-42.7576  4.56193e+20
-42.6403  4.73478e+20
-42.523  4.92498e+20
-42.4057  5.10057e+20
-42.2884  5.22666e+20
-42.171  5.27577e+20
-42.0537  5.23424e+20
-41.9364  5.10718e+20
-41.8191  4.91684e+20
-41.7018  4.69954e+20
-41.5845  4.49465e+20
-41.4672  4.33718e+20
-41.3499  4.24692e+20
-41.2326  4.22765e+20
-41.1153  4.26126e+20
-40.998  4.31857e+20
-40.8807  4.36468e+20
-40.7634  4.37031e+20
-40.6461  4.32055e+20
-40.5288  4.21681e+20
-40.4115  4.08036e+20
-40.2942  3.94387e+20
-40.1769  3.84198e+20
-40.0596  3.80405e+20
-39.9423  3.83886e+20
-39.825  3.93992e+20
-39.7076  4.07992e+20
-39.5903  4.21929e+20
-39.473  4.31913e+20
-39.3557  4.34799e+20
-39.2384  4.29653e+20
-39.1211  4.17702e+20
-39.0038  4.02301e+20
-38.8865  3.88257e+20
-38.7692  3.80334e+20
-38.6519  3.82404e+20
-38.5346  3.95957e+20
-38.4173  4.20114e+20
-38.3  4.51517e+20
-38.1827  4.84996e+20
-38.0654  5.15219e+20
-37.9481  5.37699e+20
-37.8308  5.49627e+20
-37.7135  5.50864e+20
-37.5962  5.43397e+20
-37.4789  5.30782e+20
-37.3615  5.17259e+20
-37.2442  5.06242e+20
-37.1269  4.99708e+20
-37.0096  4.97798e+20
-36.8923  4.9908e+20
-36.775  5.01183e+20
-36.6577  5.0177e+20
-36.5404  4.99773e+20
-36.4231  4.95302e+20
-36.3058  4.9038e+20
-36.1885  4.87866e+20
-36.0712  4.90705e+20
-35.9539  5.00768e+20
-35.8366  5.18083e+20
-35.7193  5.40466e+20
-35.602  5.63712e+20
-35.4847  5.82741e+20
-35.3674  5.92567e+20
-35.2501  5.90123e+20
-35.1328  5.74912e+20
-35.0154  5.49557e+20
-34.8981  5.19439e+20
-34.7808  4.91278e+20
-34.6635  4.71985e+20
-34.5462  4.66749e+20
-34.4289  4.77737e+20
-34.3116  5.03748e+20
-34.1943  5.40599e+20
-34.077  5.8163e+20
-33.9597  6.19817e+20
-33.8424  6.4921e+20
-33.7251  6.66247e+20
-33.6078  6.7036e+20
-33.4905  6.63919e+20
-33.3732  6.51539e+20
-33.2559  6.38555e+20
-33.1386  6.2933e+20
-33.0213  6.27021e+20
-32.904  6.31902e+20
-32.7867  6.42478e+20
-32.6693  6.55762e+20
-32.552  6.684e+20
-32.4347  6.77914e+20
-32.3174  6.83638e+20
-32.2001  6.86376e+20
-32.0828  6.88924e+20
-31.9655  6.9447e+20
-31.8482  7.05987e+20
-31.7309  7.24646e+20
-31.6136  7.49928e+20
-31.4963  7.78923e+20
-31.379  8.07652e+20
-31.2617  8.31497e+20
-31.1444  8.46605e+20
-31.0271  8.50951e+20
-30.9098  8.44678e+20
-30.7925  8.30378e+20
-30.6752  8.11921e+20
-30.5579  7.93487e+20
-30.4406  7.79119e+20
-30.3232  7.70791e+20
-30.2059  7.68729e+20
-30.0886  7.70953e+20
-29.9713  7.74521e+20
-29.854  7.76274e+20
-29.7367  7.73896e+20
-29.6194  7.66685e+20
-29.5021  7.55986e+20
-29.3848  7.44784e+20
-29.2675  7.36795e+20
-29.1502  7.35295e+20
-29.0329  7.42562e+20
-28.9156  7.58588e+20
-28.7983  7.80921e+20
-28.681  8.05878e+20
-28.5637  8.28747e+20
-28.4464  8.4522e+20
-28.3291  8.52994e+20
-28.2118  8.52098e+20
-28.0944  8.44971e+20
-27.9771  8.36747e+20
-27.8598  8.32916e+20
-27.7425  8.39156e+20
-27.6252  8.59001e+20
-27.5079  8.93827e+20
-27.3906  9.41786e+20
-27.2733  9.98479e+20
-27.156  1.05796e+21
-27.0387  1.11356e+21
-26.9214  1.16016e+21
-26.8041  1.19419e+21
-26.6868  1.21471e+21
-26.5695  1.22305e+21
-26.4522  1.22259e+21
-26.3349  1.21708e+21
-26.2176  1.21019e+21
-26.1003  1.20456e+21
-25.983  1.20136e+21
-25.8657  1.20041e+21
-25.7483  1.20081e+21
-25.631  1.20195e+21
-25.5137  1.20367e+21
-25.3964  1.20695e+21
-25.2791  1.21367e+21
-25.1618  1.22669e+21
-25.0445  1.24821e+21
-24.9272  1.27952e+21
-24.8099  1.32024e+21
-24.6926  1.36775e+21
-24.5753  1.41769e+21
-24.458  1.46497e+21
-24.3407  1.50463e+21
-24.2234  1.53256e+21
-24.1061  1.54797e+21
-23.9888  1.55212e+21
-23.8715  1.54919e+21
-23.7542  1.5446e+21
-23.6369  1.54517e+21
-23.5196  1.55581e+21
-23.4023  1.58002e+21
-23.2849  1.61851e+21
-23.1676  1.66906e+21
-23.0503  1.72785e+21
-22.933  1.78974e+21
-22.8157  1.85034e+21
-22.6984  1.90657e+21
-22.5811  1.95802e+21
-22.4638  2.00615e+21
-22.3465  2.0542e+21
-22.2292  2.10615e+21
-22.1119  2.1654e+21
-21.9946  2.23408e+21
-21.8773  2.31224e+21
-21.76  2.39818e+21
-21.6427  2.48865e+21
-21.5254  2.58043e+21
-21.4081  2.67136e+21
-21.2908  2.76085e+21
-21.1735  2.85001e+21
-21.0561  2.94267e+21
-20.9388  3.04308e+21
-20.8215  3.15559e+21
-20.7042  3.28303e+21
-20.5869  3.4258e+21
-20.4696  3.58163e+21
-20.3523  3.74554e+21
-20.235  3.91083e+21
-20.1177  4.07028e+21
-20.0004  4.2177e+21
-19.8831  4.34857e+21
-19.7658  4.46061e+21
-19.6485  4.55487e+21
-19.5312  4.63395e+21
-19.4139  4.70135e+21
-19.2966  4.76179e+21
-19.1793  4.81892e+21
-19.062  4.87642e+21
-18.9447  4.93809e+21
-18.8274  5.00814e+21
-18.71  5.09128e+21
-18.5927  5.19479e+21
-18.4754  5.32614e+21
-18.3581  5.4946e+21
-18.2408  5.70761e+21
-18.1235  5.97187e+21
-18.0062  6.2889e+21
-17.8889  6.6565e+21
-17.7716  7.06705e+21
-17.6543  7.50816e+21
-17.537  7.96553e+21
-17.4197  8.42368e+21
-17.3024  8.86789e+21
-17.1851  9.2881e+21
-17.0678  9.67855e+21
-16.9505  1.00379e+22
-16.8332  1.03706e+22
-16.7159  1.06836e+22
-16.5986  1.09865e+22
-16.4813  1.12886e+22
-16.364  1.15997e+22
-16.2466  1.19281e+22
-16.1293  1.2281e+22
-16.012  1.26661e+22
-15.8947  1.30897e+22
-15.7774  1.35598e+22
-15.6601  1.40837e+22
-15.5428  1.4668e+22
-15.4255  1.53179e+22
-15.3082  1.60348e+22
-15.1909  1.68157e+22
-15.0736  1.76528e+22
-14.9563  1.85342e+22
-14.839  1.94435e+22
-14.7217  2.0364e+22
-14.6044  2.12786e+22
-14.4871  2.21733e+22
-14.3698  2.30372e+22
-14.2525  2.38658e+22
-14.1352  2.4658e+22
-14.0178  2.54177e+22
-13.9005  2.61511e+22
-13.7832  2.68657e+22
-13.6659  2.75697e+22
-13.5486  2.82709e+22
-13.4313  2.89764e+22
-13.314  2.96928e+22
-13.1967  3.04272e+22
-13.0794  3.11857e+22
-12.9621  3.19753e+22
-12.8448  3.28015e+22
-12.7275  3.36681e+22
-12.6102  3.45755e+22
-12.4929  3.55208e+22
-12.3756  3.64956e+22
-12.2583  3.74878e+22
-12.141  3.84823e+22
-12.0237  3.94622e+22
-11.9064  4.04118e+22
-11.7891  4.13173e+22
-11.6718  4.21705e+22
-11.5544  4.29677e+22
-11.4371  4.37106e+22
-11.3198  4.44051e+22
-11.2025  4.50606e+22
-11.0852  4.56871e+22
-10.9679  4.62949e+22
-10.8506  4.68924e+22
-10.7333  4.74862e+22
-10.616  4.80822e+22
-10.4987  4.86842e+22
-10.3814  4.92952e+22
-10.2641  4.99193e+22
-10.1468  5.05594e+22
-10.0295  5.12194e+22
-9.91217  5.19017e+22
-9.79487  5.26064e+22
-9.67756  5.33323e+22
-9.56026  5.40754e+22
-9.44295  5.48289e+22
-9.32565  5.55845e+22
-9.20834  5.63337e+22
-9.09104  5.70692e+22
-8.97373  5.77852e+22
-8.85643  5.84794e+22
-8.73913  5.9153e+22
-8.62182  5.98096e+22
-8.50452  6.04543e+22
-8.38721  6.10928e+22
-8.26991  6.17307e+22
-8.1526  6.23706e+22
-8.03529  6.30147e+22
-7.91799  6.36618e+22
-7.80069  6.43107e+22
-7.68338  6.49584e+22
-7.56608  6.56036e+22
-7.44877  6.62458e+22
-7.33146  6.68848e+22
-7.21416  6.7522e+22
-7.09685  6.81584e+22
-6.97955  6.87947e+22
-6.86224  6.94305e+22
-6.74494  7.00627e+22
-6.62763  7.06884e+22
-6.51033  7.13034e+22
-6.39302  7.19041e+22
-6.27572  7.24889e+22
-6.15842  7.30579e+22
-6.04111  7.36143e+22
-5.92381  7.41633e+22
-5.8065  7.47106e+22
-5.68919  7.52624e+22
-5.57189  7.58225e+22
-5.45458  7.63924e+22
-5.33728  7.69696e+22
-5.21997  7.75484e+22
-5.10267  7.81214e+22
-4.98536  7.86794e+22
-4.86806  7.92153e+22
-4.75075  7.97235e+22
-4.63345  8.02021e+22
-4.51614  8.06523e+22
-4.39884  8.10784e+22
-4.28154  8.14858e+22
-4.16423  8.18813e+22
-4.04692  8.22694e+22
-3.92962  8.26536e+22
-3.81231  8.30349e+22
-3.69501  8.34121e+22
-3.5777  8.37836e+22
-3.4604  8.41475e+22
-3.34309  8.45023e+22
-3.22579  8.48487e+22
-3.10849  8.51873e+22
-2.99118  8.552e+22
-2.87387  8.58486e+22
-2.75657  8.61731e+22
-2.63926  8.64921e+22
-2.52196  8.6802e+22
-2.40465  8.70983e+22
-2.28735  8.73763e+22
-2.17005  8.76316e+22
-2.05274  8.78621e+22
-1.93544  8.80681e+22
-1.81813  8.82528e+22
-1.70083  8.84211e+22
-1.58352  8.85785e+22
-1.46622  8.87301e+22
-1.34891  8.88784e+22
-1.2316  8.90241e+22
-1.1143  8.91647e+22
-0.996995  8.92957e+22
-0.87969  8.94121e+22
-0.762385  8.95087e+22
-0.64508  8.95838e+22
-0.527775  8.96366e+22
-0.41047  8.96698e+22
-0.293165  8.96877e+22
-0.17586  8.96954e+22
-0.058555  8.96966e+22
0.05875  8.96937e+22
0.176055  8.96857e+22
0.29336  8.96707e+22
0.410665  8.96432e+22
0.52797  8.95989e+22
0.645275  8.95339e+22
0.76258  8.94471e+22
0.879885  8.93387e+22
0.99719  8.9213e+22
1.1145  8.90748e+22
1.2318  8.89289e+22
1.3491  8.87792e+22
1.46641  8.86273e+22
1.58371  8.84716e+22
1.70102  8.83077e+22
1.81832  8.81309e+22
1.93563  8.79353e+22
2.05294  8.77166e+22
2.17024  8.74727e+22
2.28754  8.72047e+22
2.40485  8.69154e+22
2.52216  8.66098e+22
2.63946  8.62925e+22
2.75677  8.59682e+22
2.87407  8.56395e+22
2.99137  8.53071e+22
3.10868  8.497e+22
3.22599  8.46265e+22
3.34329  8.42746e+22
3.4606  8.39136e+22
3.5779  8.35437e+22
3.69521  8.31666e+22
3.81251  8.27841e+22
3.92982  8.23987e+22
4.04712  8.20098e+22
4.16443  8.16159e+22
4.28173  8.12132e+22
4.39903  8.07964e+22
4.51634  8.03585e+22
4.63364  7.98946e+22
4.75095  7.94016e+22
4.86825  7.88793e+22
4.98556  7.83313e+22
5.10286  7.77639e+22
5.22017  7.71856e+22
5.33748  7.66046e+22
5.45478  7.60282e+22
5.57209  7.54605e+22
5.68939  7.49025e+22
5.8067  7.43513e+22
5.924  7.38022e+22
6.0413  7.32491e+22
6.15861  7.26861e+22
6.27591  7.21085e+22
6.39322  7.1515e+22
6.51052  7.09062e+22
6.62783  7.02845e+22
6.74514  6.96541e+22
6.86244  6.90186e+22
6.97975  6.83815e+22
7.09705  6.77437e+22
7.21436  6.7106e+22
7.33166  6.6467e+22
7.44897  6.58255e+22
7.56627  6.51809e+22
7.68358  6.45331e+22
7.80088  6.38835e+22
7.91819  6.32345e+22
8.03549  6.25882e+22
8.1528  6.19457e+22
8.2701  6.13071e+22
8.38741  6.06702e+22
8.50471  6.00303e+22
8.62202  5.9382e+22
8.73932  5.87194e+22
8.85662  5.80375e+22
8.97393  5.73342e+22
9.09123  5.66095e+22
9.20854  5.58673e+22
9.32584  5.5114e+22
9.44315  5.43579e+22
9.56045  5.3607e+22
9.67776  5.28697e+22
9.79506  5.21513e+22
9.91237  5.14552e+22
10.0297  5.07817e+22
10.147  5.01294e+22
10.2643  4.94955e+22
10.3816  4.88773e+22
10.4989  4.82704e+22
10.6162  4.76719e+22
10.7335  4.70777e+22
10.8508  4.64833e+22
10.9681  4.58825e+22
11.0854  4.52671e+22
11.2027  4.46283e+22
11.32  4.39549e+22
11.4373  4.32377e+22
11.5546  4.24687e+22
11.6719  4.1644e+22
11.7893  4.07641e+22
11.9066  3.98348e+22
12.0239  3.88674e+22
12.1412  3.78766e+22
12.2585  3.6879e+22
12.3758  3.58911e+22
12.4931  3.49268e+22
12.6104  3.39968e+22
12.7277  3.31069e+22
12.845  3.22584e+22
12.9623  3.14494e+22
13.0796  3.06748e+22
13.1969  2.99283e+22
13.3142  2.92035e+22
13.4315  2.84929e+22
13.5488  2.77902e+22
13.6661  2.70884e+22
13.7834  2.63808e+22
13.9007  2.5659e+22
14.018  2.49154e+22
14.1354  2.41433e+22
14.2527  2.33376e+22
14.37  2.24962e+22
14.4873  2.16222e+22
14.6046  2.0722e+22
14.7219  1.98081e+22
14.8392  1.88958e+22
14.9565  1.80017e+22
15.0738  1.7143e+22
15.1911  1.63335e+22
15.3084  1.55839e+22
15.4257  1.49002e+22
15.543  1.42828e+22
15.6603  1.37284e+22
15.7776  1.32319e+22
15.8949  1.27858e+22
16.0122  1.23824e+22
16.1295  1.20147e+22
16.2468  1.16758e+22
16.3641  1.13586e+22
16.4815  1.10552e+22
16.5988  1.07572e+22
16.7161  1.04551e+22
16.8334  1.01392e+22
16.9507  9.80084e+21
17.068  9.43379e+21
17.1853  9.03576e+21
17.3026  8.6096e+21
17.4199  8.16333e+21
17.5372  7.7087e+21
17.6545  7.2606e+21
17.7718  6.83463e+21
17.8891  6.44456e+21
18.0064  6.10097e+21
18.1237  5.80871e+21
18.241  5.56906e+21
18.3583  5.37805e+21
18.4756  5.22829e+21
18.5929  5.1115e+21
18.7102  5.01913e+21
18.8275  4.94341e+21
18.9449  4.87864e+21
19.0622  4.81957e+21
19.1795  4.76309e+21
19.2968  4.7058e+21
19.4141  4.64359e+21
19.5314  4.57204e+21
19.6487  4.48768e+21
19.766  4.38703e+21
19.8833  4.26778e+21
20.0006  4.13084e+21
20.1179  3.97886e+21
20.2352  3.81711e+21
20.3525  3.65285e+21
20.4698  3.493e+21
20.5871  3.34372e+21
20.7044  3.20865e+21
20.8217  3.08915e+21
20.939  2.98347e+21
21.0563  2.88794e+21
21.1736  2.79798e+21
21.291  2.70904e+21
21.4083  2.61882e+21
21.5256  2.52653e+21
21.6429  2.43381e+21
21.7602  2.34374e+21
21.8775  2.25975e+21
21.9948  2.18472e+21
22.1121  2.1197e+21
22.2294  2.06401e+21
22.3467  2.01483e+21
22.464  1.96811e+21
22.5813  1.92016e+21
22.6986  1.86806e+21
22.8159  1.81096e+21
22.9332  1.75083e+21
23.0505  1.69105e+21
23.1678  1.63672e+21
23.2851  1.59238e+21
23.4024  1.5613e+21
23.5198  1.54438e+21
23.6371  1.54001e+21
23.7544  1.54336e+21
23.8717  1.54893e+21
23.989  1.55002e+21
24.1063  1.54175e+21
24.2236  1.52098e+21
24.3409  1.48761e+21
24.4582  1.4439e+21
24.5755  1.39455e+21
24.6928  1.34478e+21
24.8101  1.29971e+21
24.9274  1.26285e+21
25.0447  1.23569e+21
25.162  1.21806e+21
25.2793  1.20802e+21
25.3966  1.2029e+21
25.5139  1.20032e+21
25.6312  1.19856e+21
25.7485  1.19731e+21
25.8658  1.19689e+21
25.9832  1.19832e+21
26.1005  1.20241e+21
26.2178  1.20853e+21
26.3351  1.21494e+21
26.4524  1.21859e+21
26.5697  1.21561e+21
26.687  1.20224e+21
26.8043  1.17607e+21
26.9216  1.13668e+21
27.0389  1.08604e+21
27.1562  1.02854e+21
27.2735  9.7019e+20
27.3908  9.17176e+20
27.5081  8.74787e+20
27.6254  8.46561e+20
27.7427  8.32919e+20
27.86  8.31213e+20
27.9773  8.37237e+20
28.0946  8.45153e+20
28.212  8.49513e+20
28.3293  8.46611e+20
28.4466  8.3475e+20
28.5639  8.15261e+20
28.6812  7.91388e+20
28.7985  7.6739e+20
28.9158  7.47612e+20
29.0331  7.35525e+20
29.1504  7.32302e+20
29.2677  7.36853e+20
29.385  7.467e+20
29.5023  7.57894e+20
29.6196  7.67255e+20
29.7369  7.72558e+20
29.8542  7.73238e+20
29.9715  7.70749e+20
30.0888  7.67745e+20
30.2061  7.6752e+20
30.3234  7.72526e+20
30.4407  7.83773e+20
30.558  8.00364e+20
30.6754  8.19271e+20
30.7927  8.36575e+20
30.91  8.47853e+20
31.0273  8.49737e+20
31.1446  8.40804e+20
31.2619  8.21757e+20
31.3792  7.95418e+20
31.4965  7.65983e+20
31.6138  7.38103e+20
31.7311  7.15318e+20
31.8484  6.99564e+20
31.9657  6.90697e+20
32.083  6.86678e+20
32.2003  6.84433e+20
32.3176  6.80863e+20
32.4349  6.73851e+20
32.5522  6.63083e+20
32.6695  6.49977e+20
32.7868  6.37369e+20
32.9042  6.28581e+20
33.0215  6.26203e+20
33.1388  6.31014e+20
33.2561  6.41784e+20
33.3734  6.54744e+20
33.4907  6.65035e+20
33.608  6.67627e+20
33.7253  6.58598e+20
33.8426  6.3661e+20
33.9599  6.03406e+20
34.0772  5.63615e+20
34.1945  5.23743e+20
34.3118  4.90871e+20
34.4291  4.70653e+20
34.5464  4.66404e+20
34.6637  4.77994e+20
34.781  5.01919e+20
34.8983  5.322e+20
35.0156  5.6158e+20
35.1329  5.83794e+20
35.2503  5.94278e+20
35.3676  5.91622e+20
35.4849  5.77535e+20
35.6022  5.55842e+20
35.7195  5.31803e+20
35.8368  5.10499e+20
35.9541  4.95495e+20
36.0714  4.88181e+20
36.1887  4.87754e+20
36.306  4.91762e+20
36.4233  4.97078e+20
36.5406  5.01062e+20
36.6579  5.02257e+20
36.7752  5.00878e+20
36.8925  4.98748e+20
37.0098  4.98294e+20
37.1271  5.01653e+20
37.2444  5.0969e+20
37.3617  5.21732e+20
37.479  5.35112e+20
37.5964  5.45984e+20
37.7137  5.50232e+20
37.831  5.44725e+20
37.9483  5.28414e+20
38.0656  5.02425e+20
38.1829  4.70191e+20
38.3002  4.37e+20
38.4175  4.08262e+20
38.5348  3.88434e+20
38.6521  3.80004e+20
38.7694  3.82917e+20
38.8867  3.94201e+20
39.004  4.0964e+20
39.1213  4.24137e+20
39.2386  4.33314e+20
39.3559  4.34624e+20
39.4732  4.27909e+20
39.5905  4.15269e+20
39.7078  4.00301e+20
39.8251  3.87296e+20
39.9425  3.79806e+20
40.0598  3.79743e+20
40.1771  3.87032e+20
40.2944  3.99519e+20
40.4117  4.13848e+20
40.529  4.26402e+20
40.6463  4.34315e+20
40.7636  4.36307e+20
40.8809  4.33018e+20
40.9982  4.26946e+20
41.1155  4.21447e+20
41.2328  4.2014e+20
41.3501  4.25424e+20
41.4674  4.38139e+20
41.5847  4.57076e+20
41.702  4.79383e+20
41.8193  5.00927e+20
41.9366  5.17874e+20
42.0539  5.26953e+20
42.1712  5.26833e+20
42.2885  5.1789e+20
42.4059  5.02349e+20
42.5232  4.83437e+20
42.6405  4.64906e+20
42.7578  4.49451e+20
42.8751  4.38687e+20
42.9924  4.3264e+20
43.1097  4.29972e+20
43.227  4.28513e+20
43.3443  4.26198e+20
43.4616  4.2158e+20
43.5789  4.14507e+20
43.6962  4.05994e+20
43.8135  3.98162e+20
43.9308  3.93266e+20
44.0481  3.9308e+20
44.1654  3.98193e+20
44.2827  4.07415e+20
44.4  4.17909e+20
44.5173  4.26013e+20
44.6347  4.27747e+20
44.752  4.20225e+20
44.8693  4.02341e+20
44.9866  3.75384e+20
45.1039  3.42979e+20
45.2212  3.10512e+20
45.3385  2.83866e+20
45.4558  2.68169e+20
45.5731  2.66537e+20
45.6904  2.79333e+20
45.8077  3.0394e+20
45.925  3.35362e+20
46.0423  3.67079e+20
46.1596  3.9275e+20
46.2769  4.07627e+20
46.3942  4.09347e+20
46.5115  3.9844e+20
46.6288  3.78231e+20
46.7461  3.5364e+20
46.8634  3.30105e+20
46.9808  3.12124e+20
47.0981  3.02304e+20
47.2154  3.00968e+20
47.3327  3.06392e+20
47.45  3.15296e+20
47.5673  3.24191e+20
47.6846  3.30597e+20
47.8019  3.33273e+20
47.9192  3.32799e+20
48.0365  3.31323e+20
48.1538  3.31348e+20
48.2711  3.34844e+20
48.3884  3.427e+20
48.5057  3.53932e+20
48.623  3.65746e+20
48.7403  3.74585e+20
48.8576  3.77099e+20
48.9749  3.70882e+20
49.0922  3.55725e+20
49.2095  3.33803e+20
49.3269  3.0921e+20
49.4442  2.86881e+20
49.5615  2.71481e+20
49.6788  2.66077e+20
49.7961  2.71255e+20
49.9134  2.84881e+20
50.0307  3.02825e+20
50.148  3.19821e+20
50.2653  3.31063e+20
50.3826  3.33474e+20
50.4999  3.26566e+20
50.6172  3.12452e+20
50.7345  2.95346e+20
50.8518  2.80299e+20
