#S 1 spectral density
#N 2
#UFWHM 116.718
#L  abscissas [um]  spectral density
-58.5938  1.20253e+22
-58.4764  1.20808e+22
-58.3591  1.21309e+22
-58.2418  1.21761e+22
-58.1245  1.22174e+22
-58.0072  1.22555e+22
-57.8899  1.22907e+22
-57.7726  1.23229e+22
-57.6553  1.23514e+22
-57.538  1.23753e+22
-57.4207  1.23946e+22
-57.3034  1.24094e+22
-57.1861  1.24215e+22
-57.0688  1.24333e+22
-56.9515  1.24486e+22
-56.8342  1.24708e+22
-56.7169  1.2503e+22
-56.5996  1.25471e+22
-56.4823  1.26031e+22
-56.365  1.26689e+22
-56.2477  1.27411e+22
-56.1303  1.28149e+22
-56.013  1.28854e+22
-55.8957  1.29484e+22
-55.7784  1.30012e+22
-55.6611  1.3043e+22
-55.5438  1.3075e+22
-55.4265  1.31002e+22
-55.3092  1.31221e+22
-55.1919  1.31444e+22
-55.0746  1.31697e+22
-54.9573  1.31996e+22
-54.84  1.32344e+22
-54.7227  1.32727e+22
-54.6054  1.33132e+22
-54.4881  1.33544e+22
-54.3708  1.33953e+22
-54.2535  1.34361e+22
-54.1362  1.34776e+22
-54.0189  1.35208e+22
-53.9016  1.35665e+22
-53.7842  1.36145e+22
-53.6669  1.36632e+22
-53.5496  1.37094e+22
-53.4323  1.37495e+22
-53.315  1.37795e+22
-53.1977  1.37962e+22
-53.0804  1.37986e+22
-52.9631  1.37877e+22
-52.8458  1.37673e+22
-52.7285  1.37428e+22
-52.6112  1.37209e+22
-52.4939  1.37078e+22
-52.3766  1.37087e+22
-52.2593  1.37268e+22
-52.142  1.37628e+22
-52.0247  1.38155e+22
-51.9074  1.38826e+22
-51.7901  1.39613e+22
-51.6728  1.40491e+22
-51.5555  1.41446e+22
-51.4381  1.42468e+22
-51.3208  1.43556e+22
-51.2035  1.44701e+22
-51.0862  1.45887e+22
-50.9689  1.47076e+22
-50.8516  1.48216e+22
-50.7343  1.49248e+22
-50.617  1.50103e+22
-50.4997  1.50727e+22
-50.3824  1.51088e+22
-50.2651  1.51183e+22
-50.1478  1.51044e+22
-50.0305  1.50729e+22
-49.9132  1.50315e+22
-49.7959  1.49885e+22
-49.6786  1.49513e+22
-49.5613  1.49254e+22
-49.444  1.49142e+22
-49.3267  1.49182e+22
-49.2094  1.49366e+22
-49.092  1.49674e+22
-48.9747  1.50083e+22
-48.8574  1.50574e+22
-48.7401  1.51134e+22
-48.6228  1.51753e+22
-48.5055  1.52417e+22
-48.3882  1.53107e+22
-48.2709  1.53792e+22
-48.1536  1.54428e+22
-48.0363  1.54969e+22
-47.919  1.55368e+22
-47.8017  1.55592e+22
-47.6844  1.55632e+22
-47.5671  1.55504e+22
-47.4498  1.55254e+22
-47.3325  1.54948e+22
-47.2152  1.54668e+22
-47.0979  1.54492e+22
-46.9806  1.54488e+22
-46.8633  1.54701e+22
-46.7459  1.55141e+22
-46.6286  1.55802e+22
-46.5113  1.56652e+22
-46.394  1.57648e+22
-46.2767  1.58746e+22
-46.1594  1.59906e+22
-46.0421  1.61098e+22
-45.9248  1.62298e+22
-45.8075  1.63486e+22
-45.6902  1.64642e+22
-45.5729  1.65738e+22
-45.4556  1.66733e+22
-45.3383  1.67587e+22
-45.221  1.68252e+22
-45.1037  1.68688e+22
-44.9864  1.68868e+22
-44.8691  1.68792e+22
-44.7518  1.68483e+22
-44.6345  1.67988e+22
-44.5172  1.67376e+22
-44.3998  1.66724e+22
-44.2825  1.66107e+22
-44.1652  1.65589e+22
-44.0479  1.65214e+22
-43.9306  1.65007e+22
-43.8133  1.64964e+22
-43.696  1.65068e+22
-43.5787  1.65294e+22
-43.4614  1.65611e+22
-43.3441  1.65994e+22
-43.2268  1.66425e+22
-43.1095  1.66893e+22
-42.9922  1.67393e+22
-42.8749  1.67918e+22
-42.7576  1.68463e+22
-42.6403  1.69014e+22
-42.523  1.69554e+22
-42.4057  1.70062e+22
-42.2884  1.70524e+22
-42.171  1.7093e+22
-42.0537  1.71282e+22
-41.9364  1.71599e+22
-41.8191  1.71907e+22
-41.7018  1.72244e+22
-41.5845  1.72641e+22
-41.4672  1.73127e+22
-41.3499  1.73711e+22
-41.2326  1.74385e+22
-41.1153  1.75122e+22
-40.998  1.75884e+22
-40.8807  1.76624e+22
-40.7634  1.77297e+22
-40.6461  1.77875e+22
-40.5288  1.78338e+22
-40.4115  1.78689e+22
-40.2942  1.78943e+22
-40.1769  1.79125e+22
-40.0596  1.7926e+22
-39.9423  1.79368e+22
-39.825  1.79457e+22
-39.7076  1.79529e+22
-39.5903  1.79573e+22
-39.473  1.79583e+22
-39.3557  1.79555e+22
-39.2384  1.79496e+22
-39.1211  1.79426e+22
-39.0038  1.79376e+22
-38.8865  1.79382e+22
-38.7692  1.79476e+22
-38.6519  1.79681e+22
-38.5346  1.79999e+22
-38.4173  1.80417e+22
-38.3  1.80903e+22
-38.1827  1.81413e+22
-38.0654  1.81907e+22
-37.9481  1.82353e+22
-37.8308  1.82733e+22
-37.7135  1.83053e+22
-37.5962  1.83334e+22
-37.4789  1.83613e+22
-37.3615  1.83924e+22
-37.2442  1.843e+22
-37.1269  1.84757e+22
-37.0096  1.85299e+22
-36.8923  1.85911e+22
-36.775  1.86571e+22
-36.6577  1.87256e+22
-36.5404  1.87948e+22
-36.4231  1.88636e+22
-36.3058  1.89321e+22
-36.1885  1.90011e+22
-36.0712  1.90709e+22
-35.9539  1.91416e+22
-35.8366  1.92111e+22
-35.7193  1.92764e+22
-35.602  1.93328e+22
-35.4847  1.93752e+22
-35.3674  1.9399e+22
-35.2501  1.94018e+22
-35.1328  1.93826e+22
-35.0154  1.93445e+22
-34.8981  1.92923e+22
-34.7808  1.92331e+22
-34.6635  1.91744e+22
-34.5462  1.91231e+22
-34.4289  1.90842e+22
-34.3116  1.90603e+22
-34.1943  1.9052e+22
-34.077  1.90577e+22
-33.9597  1.90748e+22
-33.8424  1.91008e+22
-33.7251  1.9134e+22
-33.6078  1.91737e+22
-33.4905  1.922e+22
-33.3732  1.92738e+22
-33.2559  1.93356e+22
-33.1386  1.94047e+22
-33.0213  1.94792e+22
-32.904  1.95553e+22
-32.7867  1.96287e+22
-32.6693  1.96946e+22
-32.552  1.97489e+22
-32.4347  1.97898e+22
-32.3174  1.98175e+22
-32.2001  1.98348e+22
-32.0828  1.98463e+22
-31.9655  1.98574e+22
-31.8482  1.98738e+22
-31.7309  1.98996e+22
-31.6136  1.99369e+22
-31.4963  1.99858e+22
-31.379  2.00444e+22
-31.2617  2.01093e+22
-31.1444  2.01768e+22
-31.0271  2.0244e+22
-30.9098  2.03082e+22
-30.7925  2.03683e+22
-30.6752  2.04237e+22
-30.5579  2.04746e+22
-30.4406  2.05202e+22
-30.3232  2.05598e+22
-30.2059  2.05914e+22
-30.0886  2.06128e+22
-29.9713  2.06216e+22
-29.854  2.06165e+22
-29.7367  2.05978e+22
-29.6194  2.05676e+22
-29.5021  2.05303e+22
-29.3848  2.04917e+22
-29.2675  2.04586e+22
-29.1502  2.04368e+22
-29.0329  2.04313e+22
-28.9156  2.04442e+22
-28.7983  2.04753e+22
-28.681  2.05218e+22
-28.5637  2.05796e+22
-28.4464  2.06435e+22
-28.3291  2.07087e+22
-28.2118  2.07716e+22
-28.0944  2.08302e+22
-27.9771  2.08841e+22
-27.8598  2.09337e+22
-27.7425  2.09803e+22
-27.6252  2.10247e+22
-27.5079  2.10669e+22
-27.3906  2.11059e+22
-27.2733  2.11399e+22
-27.156  2.11671e+22
-27.0387  2.1186e+22
-26.9214  2.11961e+22
-26.8041  2.1199e+22
-26.6868  2.11972e+22
-26.5695  2.11948e+22
-26.4522  2.11958e+22
-26.3349  2.12044e+22
-26.2176  2.12229e+22
-26.1003  2.12518e+22
-25.983  2.12896e+22
-25.8657  2.13332e+22
-25.7483  2.13785e+22
-25.631  2.14212e+22
-25.5137  2.1458e+22
-25.3964  2.14869e+22
-25.2791  2.15077e+22
-25.1618  2.15213e+22
-25.0445  2.15301e+22
-24.9272  2.15361e+22
-24.8099  2.15414e+22
-24.6926  2.15468e+22
-24.5753  2.15525e+22
-24.458  2.15575e+22
-24.3407  2.15614e+22
-24.2234  2.15637e+22
-24.1061  2.1565e+22
-23.9888  2.15673e+22
-23.8715  2.15737e+22
-23.7542  2.15872e+22
-23.6369  2.16112e+22
-23.5196  2.16473e+22
-23.4023  2.16956e+22
-23.2849  2.1754e+22
-23.1676  2.18184e+22
-23.0503  2.18836e+22
-22.933  2.1944e+22
-22.8157  2.19953e+22
-22.6984  2.20343e+22
-22.5811  2.20603e+22
-22.4638  2.20752e+22
-22.3465  2.20821e+22
-22.2292  2.20854e+22
-22.1119  2.20893e+22
-21.9946  2.20968e+22
-21.8773  2.211e+22
-21.76  2.21288e+22
-21.6427  2.21522e+22
-21.5254  2.21785e+22
-21.4081  2.2206e+22
-21.2908  2.22338e+22
-21.1735  2.22618e+22
-21.0561  2.22911e+22
-20.9388  2.23231e+22
-20.8215  2.23593e+22
-20.7042  2.23998e+22
-20.5869  2.24437e+22
-20.4696  2.24883e+22
-20.3523  2.25307e+22
-20.235  2.25665e+22
-20.1177  2.25924e+22
-20.0004  2.26063e+22
-19.8831  2.2608e+22
-19.7658  2.25994e+22
-19.6485  2.25839e+22
-19.5312  2.25662e+22
-19.4139  2.25504e+22
-19.2966  2.25401e+22
-19.1793  2.25375e+22
-19.062  2.25427e+22
-18.9447  2.25546e+22
-18.8274  2.25713e+22
-18.71  2.25906e+22
-18.5927  2.26116e+22
-18.4754  2.26336e+22
-18.3581  2.26579e+22
-18.2408  2.26858e+22
-18.1235  2.27189e+22
-18.0062  2.27576e+22
-17.8889  2.28007e+22
-17.7716  2.2846e+22
-17.6543  2.28891e+22
-17.537  2.29251e+22
-17.4197  2.29498e+22
-17.3024  2.29601e+22
-17.1851  2.29554e+22
-17.0678  2.29374e+22
-16.9505  2.29105e+22
-16.8332  2.28803e+22
-16.7159  2.2853e+22
-16.5986  2.28341e+22
-16.4813  2.28268e+22
-16.364  2.28327e+22
-16.2466  2.28507e+22
-16.1293  2.28785e+22
-16.012  2.29125e+22
-15.8947  2.29498e+22
-15.7774  2.29882e+22
-15.6601  2.30272e+22
-15.5428  2.30674e+22
-15.4255  2.31096e+22
-15.3082  2.31553e+22
-15.1909  2.32045e+22
-15.0736  2.32559e+22
-14.9563  2.33067e+22
-14.839  2.33534e+22
-14.7217  2.33917e+22
-14.6044  2.34184e+22
-14.4871  2.34321e+22
-14.3698  2.34328e+22
-14.2525  2.34234e+22
-14.1352  2.34078e+22
-14.0178  2.33909e+22
-13.9005  2.33775e+22
-13.7832  2.33705e+22
-13.6659  2.33717e+22
-13.5486  2.33807e+22
-13.4313  2.33955e+22
-13.314  2.34134e+22
-13.1967  2.34318e+22
-13.0794  2.34493e+22
-12.9621  2.34653e+22
-12.8448  2.34809e+22
-12.7275  2.34977e+22
-12.6102  2.35177e+22
-12.4929  2.35417e+22
-12.3756  2.35696e+22
-12.2583  2.35996e+22
-12.141  2.36285e+22
-12.0237  2.36528e+22
-11.9064  2.3669e+22
-11.7891  2.36748e+22
-11.6718  2.36703e+22
-11.5544  2.36572e+22
-11.4371  2.36394e+22
-11.3198  2.36213e+22
-11.2025  2.3608e+22
-11.0852  2.36032e+22
-10.9679  2.36093e+22
-10.8506  2.36265e+22
-10.7333  2.36527e+22
-10.616  2.3685e+22
-10.4987  2.372e+22
-10.3814  2.37543e+22
-10.2641  2.37858e+22
-10.1468  2.38137e+22
-10.0295  2.38387e+22
-9.91217  2.38621e+22
-9.79487  2.38852e+22
-9.67756  2.39088e+22
-9.56026  2.39326e+22
-9.44295  2.39551e+22
-9.32565  2.39736e+22
-9.20834  2.39856e+22
-9.09104  2.39886e+22
-8.97373  2.39815e+22
-8.85643  2.39649e+22
-8.73913  2.39408e+22
-8.62182  2.39127e+22
-8.50452  2.38846e+22
-8.38721  2.38605e+22
-8.26991  2.38429e+22
-8.1526  2.38333e+22
-8.03529  2.38312e+22
-7.91799  2.38352e+22
-7.80069  2.38426e+22
-7.68338  2.38516e+22
-7.56608  2.38604e+22
-7.44877  2.38689e+22
-7.33146  2.38781e+22
-7.21416  2.38895e+22
-7.09685  2.39052e+22
-6.97955  2.39266e+22
-6.86224  2.39541e+22
-6.74494  2.39862e+22
-6.62763  2.40205e+22
-6.51033  2.40533e+22
-6.39302  2.40813e+22
-6.27572  2.41016e+22
-6.15842  2.41135e+22
-6.04111  2.41173e+22
-5.92381  2.41159e+22
-5.8065  2.41132e+22
-5.68919  2.41131e+22
-5.57189  2.41189e+22
-5.45458  2.41327e+22
-5.33728  2.41544e+22
-5.21997  2.41818e+22
-5.10267  2.42117e+22
-4.98536  2.42398e+22
-4.86806  2.42627e+22
-4.75075  2.42781e+22
-4.63345  2.42854e+22
-4.51614  2.42856e+22
-4.39884  2.42813e+22
-4.28154  2.42754e+22
-4.16423  2.42706e+22
-4.04692  2.4268e+22
-3.92962  2.42677e+22
-3.81231  2.42681e+22
-3.69501  2.42668e+22
-3.5777  2.42608e+22
-3.4604  2.42486e+22
-3.34309  2.42293e+22
-3.22579  2.42045e+22
-3.10849  2.41768e+22
-2.99118  2.41499e+22
-2.87387  2.41277e+22
-2.75657  2.41127e+22
-2.63926  2.41065e+22
-2.52196  2.41087e+22
-2.40465  2.41172e+22
-2.28735  2.41291e+22
-2.17005  2.41415e+22
-2.05274  2.41522e+22
-1.93544  2.41605e+22
-1.81813  2.41667e+22
-1.70083  2.41731e+22
-1.58352  2.41817e+22
-1.46622  2.41948e+22
-1.34891  2.42129e+22
-1.2316  2.42354e+22
-1.1143  2.426e+22
-0.996995  2.42832e+22
-0.87969  2.43014e+22
-0.762385  2.43117e+22
-0.64508  2.43131e+22
-0.527775  2.4306e+22
-0.41047  2.42932e+22
-0.293165  2.42787e+22
-0.17586  2.42666e+22
-0.058555  2.42603e+22
0.05875  2.42617e+22
0.176055  2.42701e+22
0.29336  2.42834e+22
0.410665  2.42977e+22
0.52797  2.43089e+22
0.645275  2.43134e+22
0.76258  2.43093e+22
0.879885  2.42968e+22
0.99719  2.42776e+22
1.1145  2.4255e+22
1.2318  2.42326e+22
1.3491  2.42133e+22
1.46641  2.41991e+22
1.58371  2.41895e+22
1.70102  2.41834e+22
1.81832  2.41784e+22
1.93563  2.41719e+22
2.05294  2.41626e+22
2.17024  2.41504e+22
2.28754  2.41367e+22
2.40485  2.41242e+22
2.52216  2.41162e+22
2.63946  2.41153e+22
2.75677  2.41235e+22
2.87407  2.41402e+22
2.99137  2.41639e+22
3.10868  2.4191e+22
3.22599  2.4218e+22
3.34329  2.42411e+22
3.4606  2.42583e+22
3.5779  2.42691e+22
3.69521  2.42744e+22
3.81251  2.42765e+22
3.92982  2.4278e+22
4.04712  2.42814e+22
4.16443  2.42873e+22
4.28173  2.42952e+22
4.39903  2.43031e+22
4.51634  2.4308e+22
4.63364  2.43068e+22
4.75095  2.42976e+22
4.86825  2.42796e+22
4.98556  2.42545e+22
5.10286  2.42251e+22
5.22017  2.41954e+22
5.33748  2.41695e+22
5.45478  2.41504e+22
5.57209  2.41396e+22
5.68939  2.41363e+22
5.8067  2.4138e+22
5.924  2.4141e+22
6.0413  2.41409e+22
6.15861  2.41347e+22
6.27591  2.41203e+22
6.39322  2.40976e+22
6.51052  2.40687e+22
6.62783  2.40362e+22
6.74514  2.4004e+22
6.86244  2.3975e+22
6.97975  2.39513e+22
7.09705  2.39333e+22
7.21436  2.39202e+22
7.33166  2.391e+22
7.44897  2.3901e+22
7.56627  2.38914e+22
7.68358  2.38814e+22
7.80088  2.38714e+22
7.91819  2.38637e+22
8.03549  2.38606e+22
8.1528  2.38646e+22
8.2701  2.38766e+22
8.38741  2.38967e+22
8.50471  2.39226e+22
8.62202  2.39514e+22
8.73932  2.39789e+22
8.85662  2.40013e+22
8.97393  2.40156e+22
9.09123  2.40204e+22
9.20854  2.40159e+22
9.32584  2.40034e+22
9.44315  2.39858e+22
9.56045  2.39651e+22
9.67776  2.39438e+22
9.79506  2.39224e+22
9.91237  2.39008e+22
10.0297  2.38779e+22
10.147  2.38521e+22
10.2643  2.38227e+22
10.3816  2.37895e+22
10.4989  2.3754e+22
10.6162  2.37191e+22
10.7335  2.3688e+22
10.8508  2.36646e+22
10.9681  2.36514e+22
11.0854  2.36494e+22
11.2027  2.36577e+22
11.32  2.36734e+22
11.4373  2.3692e+22
11.5546  2.37087e+22
11.6719  2.37191e+22
11.7893  2.37203e+22
11.9066  2.37112e+22
12.0239  2.36928e+22
12.1412  2.36677e+22
12.2585  2.36393e+22
12.3758  2.36115e+22
12.4931  2.35862e+22
12.6104  2.35648e+22
12.7277  2.35469e+22
12.845  2.35312e+22
12.9623  2.35155e+22
13.0796  2.34988e+22
13.1969  2.34805e+22
13.3142  2.34616e+22
13.4315  2.34442e+22
13.5488  2.34311e+22
13.6661  2.34247e+22
13.7834  2.34267e+22
13.9007  2.34368e+22
14.018  2.34525e+22
14.1354  2.34704e+22
14.2527  2.34853e+22
14.37  2.34927e+22
14.4873  2.34889e+22
14.6046  2.34719e+22
14.7219  2.34423e+22
14.8392  2.34022e+22
14.9565  2.33551e+22
15.0738  2.33049e+22
15.1911  2.3255e+22
15.3084  2.32074e+22
15.4257  2.31629e+22
15.543  2.31211e+22
15.6603  2.30806e+22
15.7776  2.30407e+22
15.8949  2.30013e+22
16.0122  2.29637e+22
16.1295  2.29305e+22
16.2468  2.29051e+22
16.3641  2.28908e+22
16.4815  2.28895e+22
16.5988  2.29015e+22
16.7161  2.29245e+22
16.8334  2.29543e+22
16.9507  2.2985e+22
17.068  2.30106e+22
17.1853  2.30255e+22
17.3026  2.30263e+22
17.4199  2.30121e+22
17.5372  2.29844e+22
17.6545  2.29465e+22
17.7718  2.29033e+22
17.8891  2.28593e+22
18.0064  2.2818e+22
18.1237  2.27814e+22
18.241  2.27499e+22
18.3583  2.27225e+22
18.4756  2.2698e+22
18.5929  2.26749e+22
18.7102  2.26529e+22
18.8275  2.26328e+22
18.9449  2.26165e+22
19.0622  2.26061e+22
19.1795  2.26037e+22
19.2968  2.26097e+22
19.4141  2.26234e+22
19.5314  2.2642e+22
19.6487  2.26615e+22
19.766  2.26769e+22
19.8833  2.26841e+22
20.0006  2.26799e+22
20.1179  2.26633e+22
20.2352  2.26349e+22
20.3525  2.25976e+22
20.4698  2.25548e+22
20.5871  2.25105e+22
20.7044  2.24679e+22
20.8217  2.24286e+22
20.939  2.23933e+22
21.0563  2.23612e+22
21.1736  2.2331e+22
21.291  2.23015e+22
21.4083  2.22721e+22
21.5256  2.22437e+22
21.6429  2.22176e+22
21.7602  2.21959e+22
21.8775  2.21801e+22
21.9948  2.21709e+22
22.1121  2.21678e+22
22.2294  2.21678e+22
22.3467  2.2167e+22
22.464  2.2161e+22
22.5813  2.21453e+22
22.6986  2.2117e+22
22.8159  2.20751e+22
22.9332  2.20212e+22
23.0505  2.19589e+22
23.1678  2.18932e+22
23.2851  2.18299e+22
23.4024  2.17737e+22
23.5198  2.1728e+22
23.6371  2.16944e+22
23.7544  2.1672e+22
23.8717  2.16587e+22
23.989  2.16513e+22
24.1063  2.16469e+22
24.2236  2.16431e+22
24.3409  2.16386e+22
24.4582  2.16333e+22
24.5755  2.16282e+22
24.6928  2.16237e+22
24.8101  2.16207e+22
24.9274  2.16181e+22
25.0447  2.16146e+22
25.162  2.16077e+22
25.2793  2.15948e+22
25.3966  2.1574e+22
25.5139  2.15443e+22
25.6312  2.15067e+22
25.7485  2.14638e+22
25.8658  2.14192e+22
25.9832  2.13772e+22
26.1005  2.13417e+22
26.2178  2.13155e+22
26.3351  2.12994e+22
26.4524  2.1292e+22
26.5697  2.12907e+22
26.687  2.12913e+22
26.8043  2.129e+22
26.9216  2.12835e+22
27.0389  2.12695e+22
27.1562  2.12478e+22
27.2735  2.12193e+22
27.3908  2.11855e+22
27.5081  2.11482e+22
27.6254  2.11087e+22
27.7427  2.10671e+22
27.86  2.10229e+22
27.9773  2.09749e+22
28.0946  2.09218e+22
28.212  2.08631e+22
28.3293  2.08001e+22
28.4466  2.07353e+22
28.5639  2.0673e+22
28.6812  2.0618e+22
28.7985  2.05754e+22
28.9158  2.05492e+22
29.0331  2.05411e+22
29.1504  2.05504e+22
29.2677  2.05742e+22
29.385  2.06073e+22
29.5023  2.06436e+22
29.6196  2.06768e+22
29.7369  2.0702e+22
29.8542  2.07155e+22
29.9715  2.0716e+22
30.0888  2.07041e+22
30.2061  2.06812e+22
30.3234  2.06495e+22
30.4407  2.06109e+22
30.558  2.05669e+22
30.6754  2.05178e+22
30.7927  2.04635e+22
30.91  2.04044e+22
31.0273  2.03412e+22
31.1446  2.02751e+22
31.2619  2.02092e+22
31.3792  2.0147e+22
31.4965  2.00921e+22
31.6138  2.00473e+22
31.7311  2.0014e+22
31.8484  1.99915e+22
31.9657  1.99768e+22
32.083  1.99653e+22
32.2003  1.99515e+22
32.3176  1.99301e+22
32.4349  1.98972e+22
32.5522  1.98509e+22
32.6695  1.97918e+22
32.7868  1.97225e+22
32.9042  1.96473e+22
33.0215  1.95708e+22
33.1388  1.94974e+22
33.2561  1.94298e+22
33.3734  1.93697e+22
33.4907  1.93172e+22
33.608  1.92716e+22
33.7253  1.92326e+22
33.8426  1.92e+22
33.9599  1.91755e+22
34.0772  1.91609e+22
34.1945  1.91593e+22
34.3118  1.91728e+22
34.4291  1.92025e+22
34.5464  1.92471e+22
34.6637  1.93029e+22
34.781  1.93643e+22
34.8983  1.94237e+22
35.0156  1.94736e+22
35.1329  1.95075e+22
35.2503  1.95211e+22
35.3676  1.95127e+22
35.4849  1.94834e+22
35.6022  1.94369e+22
35.7195  1.9378e+22
35.8368  1.93115e+22
35.9541  1.92417e+22
36.0714  1.91716e+22
36.1887  1.91021e+22
36.306  1.90333e+22
36.4233  1.89645e+22
36.5406  1.88954e+22
36.6579  1.88262e+22
36.7752  1.87583e+22
36.8925  1.8694e+22
37.0098  1.86358e+22
37.1271  1.85854e+22
37.2444  1.85436e+22
37.3617  1.85097e+22
37.479  1.84812e+22
37.5964  1.84544e+22
37.7137  1.84255e+22
37.831  1.83914e+22
37.9483  1.83502e+22
38.0656  1.83024e+22
38.1829  1.82503e+22
38.3002  1.81976e+22
38.4175  1.81487e+22
38.5348  1.81077e+22
38.6521  1.80773e+22
38.7694  1.80584e+22
38.8867  1.80499e+22
39.004  1.80492e+22
39.1213  1.80529e+22
39.2386  1.8058e+22
39.3559  1.80615e+22
39.4732  1.80624e+22
39.5905  1.80604e+22
39.7078  1.80564e+22
39.8251  1.80511e+22
39.9425  1.80452e+22
40.0598  1.8038e+22
40.1771  1.80278e+22
40.2944  1.8012e+22
40.4117  1.79876e+22
40.529  1.79521e+22
40.6463  1.79043e+22
40.7636  1.78446e+22
40.8809  1.77754e+22
40.9982  1.77006e+22
41.1155  1.76247e+22
41.2328  1.75524e+22
41.3501  1.74873e+22
41.4674  1.74313e+22
41.5847  1.73847e+22
41.702  1.73457e+22
41.8193  1.73113e+22
41.9366  1.72779e+22
42.0539  1.72426e+22
42.1712  1.72033e+22
42.2885  1.71587e+22
42.4059  1.71095e+22
42.5232  1.7057e+22
42.6405  1.70028e+22
42.7578  1.69489e+22
42.8751  1.68964e+22
42.9924  1.68461e+22
43.1097  1.67985e+22
43.227  1.67536e+22
43.3443  1.67123e+22
43.4616  1.66759e+22
43.5789  1.66465e+22
43.6962  1.66271e+22
43.8135  1.66206e+22
43.9308  1.66299e+22
44.0481  1.66557e+22
44.1654  1.66976e+22
44.2827  1.67525e+22
44.4  1.68152e+22
44.5173  1.68788e+22
44.6347  1.69358e+22
44.752  1.69791e+22
44.8693  1.70026e+22
44.9866  1.70026e+22
45.1039  1.69776e+22
45.2212  1.69288e+22
45.3385  1.68592e+22
45.4558  1.67726e+22
45.5731  1.66735e+22
45.6904  1.65658e+22
45.8077  1.64523e+22
45.925  1.63358e+22
46.0423  1.62179e+22
46.1596  1.61009e+22
46.2769  1.59875e+22
46.3942  1.58811e+22
46.5115  1.5786e+22
46.6288  1.57067e+22
46.7461  1.56471e+22
46.8634  1.56098e+22
46.9808  1.55948e+22
47.0981  1.55998e+22
47.2154  1.56197e+22
47.3327  1.56475e+22
47.45  1.56752e+22
47.5673  1.56953e+22
47.6846  1.57017e+22
47.8019  1.56909e+22
47.9192  1.56622e+22
48.0365  1.56173e+22
48.1538  1.55598e+22
48.2711  1.54944e+22
48.3884  1.54256e+22
48.5057  1.53571e+22
48.623  1.52919e+22
48.7403  1.52317e+22
48.8576  1.51776e+22
48.9749  1.5131e+22
49.0922  1.50936e+22
49.2095  1.50674e+22
49.3269  1.50546e+22
49.4442  1.50572e+22
49.5615  1.50753e+22
49.6788  1.51074e+22
49.7961  1.51494e+22
49.9134  1.51947e+22
50.0307  1.52358e+22
50.148  1.5264e+22
50.2653  1.52722e+22
50.3826  1.52554e+22
50.4999  1.52113e+22
50.6172  1.51413e+22
50.7345  1.50496e+22
