#S 1 spectral density
#N 2
#UFWHM 24.3994
#L  abscissas [um]  spectral density
-58.5938  2.76761e+20
-58.4764  2.62409e+20
-58.3591  2.45924e+20
-58.2418  2.31125e+20
-58.1245  2.21521e+20
-58.0072  2.19604e+20
-57.8899  2.26094e+20
-57.7726  2.39693e+20
-57.6553  2.57509e+20
-57.538  2.75461e+20
-57.4207  2.89645e+20
-57.3034  2.96981e+20
-57.1861  2.95945e+20
-57.0688  2.87024e+20
-56.9515  2.72807e+20
-56.8342  2.56476e+20
-56.7169  2.42039e+20
-56.5996  2.32353e+20
-56.4823  2.29033e+20
-56.365  2.31586e+20
-56.2477  2.37916e+20
-56.1303  2.44811e+20
-56.013  2.48887e+20
-55.8957  2.47532e+20
-55.7784  2.39924e+20
-55.6611  2.2717e+20
-55.5438  2.12363e+20
-55.4265  1.99576e+20
-55.3092  1.9328e+20
-55.1919  1.9687e+20
-55.0746  2.11579e+20
-54.9573  2.36623e+20
-54.84  2.68781e+20
-54.7227  3.03563e+20
-54.6054  3.35768e+20
-54.4881  3.61187e+20
-54.3708  3.77287e+20
-54.2535  3.83799e+20
-54.1362  3.82627e+20
-54.0189  3.77019e+20
-53.9016  3.70724e+20
-53.7842  3.667e+20
-53.6669  3.66531e+20
-53.5496  3.69767e+20
-53.4323  3.74294e+20
-53.315  3.77282e+20
-53.1977  3.758e+20
-53.0804  3.68262e+20
-52.9631  3.54795e+20
-52.8458  3.37278e+20
-52.7285  3.19269e+20
-52.6112  3.04368e+20
-52.4939  2.95644e+20
-52.3766  2.94354e+20
-52.2593  2.99424e+20
-52.142  3.07605e+20
-52.0247  3.1448e+20
-51.9074  3.15383e+20
-51.7901  3.06983e+20
-51.6728  2.88515e+20
-51.5555  2.61874e+20
-51.4381  2.31788e+20
-51.3208  2.04449e+20
-51.2035  1.86075e+20
-51.0862  1.81574e+20
-50.9689  1.93075e+20
-50.8516  2.19383e+20
-50.7343  2.56299e+20
-50.617  2.97512e+20
-50.4997  3.36287e+20
-50.3824  3.66755e+20
-50.2651  3.85442e+20
-50.1478  3.91739e+20
-50.0305  3.87749e+20
-49.9132  3.77419e+20
-49.7959  3.65238e+20
-49.6786  3.54916e+20
-49.5613  3.48501e+20
-49.444  3.46008e+20
-49.3267  3.45535e+20
-49.2094  3.44374e+20
-49.092  3.39943e+20
-48.9747  3.3085e+20
-48.8574  3.17627e+20
-48.7401  3.02326e+20
-48.6228  2.88445e+20
-48.5055  2.79499e+20
-48.3882  2.77981e+20
-48.2709  2.84721e+20
-48.1536  2.97948e+20
-48.0363  3.14437e+20
-47.919  3.29652e+20
-47.8017  3.39347e+20
-47.6844  3.40694e+20
-47.5671  3.33278e+20
-47.4498  3.18842e+20
-47.3325  3.01691e+20
-47.2152  2.86734e+20
-47.0979  2.78831e+20
-46.9806  2.81015e+20
-46.8633  2.94119e+20
-46.7459  3.16143e+20
-46.6286  3.43026e+20
-46.5113  3.69524e+20
-46.394  3.90532e+20
-46.2767  4.02499e+20
-46.1594  4.04161e+20
-46.0421  3.96562e+20
-45.9248  3.83134e+20
-45.8075  3.68119e+20
-45.6902  3.55508e+20
-45.5729  3.48312e+20
-45.4556  3.47209e+20
-45.3383  3.50945e+20
-45.221  3.56283e+20
-45.1037  3.59492e+20
-44.9864  3.57086e+20
-44.8691  3.47275e+20
-44.7518  3.30236e+20
-44.6345  3.08398e+20
-44.5172  2.85918e+20
-44.3998  2.67665e+20
-44.2825  2.58277e+20
-44.1652  2.60571e+20
-44.0479  2.75387e+20
-43.9306  3.0111e+20
-43.8133  3.34021e+20
-43.696  3.69344e+20
-43.5787  4.0226e+20
-43.4614  4.28789e+20
-43.3441  4.46808e+20
-43.2268  4.56046e+20
-43.1095  4.58088e+20
-42.9922  4.55834e+20
-42.8749  4.52086e+20
-42.7576  4.49366e+20
-42.6403  4.48997e+20
-42.523  4.50744e+20
-42.4057  4.53271e+20
-42.2884  4.54759e+20
-42.171  4.53269e+20
-42.0537  4.47865e+20
-41.9364  4.38553e+20
-41.8191  4.26591e+20
-41.7018  4.14047e+20
-41.5845  4.03139e+20
-41.4672  3.9538e+20
-41.3499  3.91155e+20
-41.2326  3.89411e+20
-41.1153  3.87615e+20
-40.998  3.82776e+20
-40.8807  3.72103e+20
-40.7634  3.53967e+20
-40.6461  3.28738e+20
-40.5288  2.98906e+20
-40.4115  2.6891e+20
-40.2942  2.44272e+20
-40.1769  2.30414e+20
-40.0596  2.31386e+20
-39.9423  2.48721e+20
-39.825  2.81287e+20
-39.7076  3.25139e+20
-39.5903  3.74376e+20
-39.473  4.22398e+20
-39.3557  4.6316e+20
-39.2384  4.9266e+20
-39.1211  5.09233e+20
-39.0038  5.13964e+20
-38.8865  5.10205e+20
-38.7692  5.01891e+20
-38.6519  4.9332e+20
-38.5346  4.87294e+20
-38.4173  4.8502e+20
-38.3  4.85729e+20
-38.1827  4.87453e+20
-38.0654  4.87744e+20
-37.9481  4.84882e+20
-37.8308  4.78141e+20
-37.7135  4.68786e+20
-37.5962  4.5914e+20
-37.4789  4.52325e+20
-37.3615  4.51176e+20
-37.2442  4.57138e+20
-37.1269  4.69843e+20
-37.0096  4.86835e+20
-36.8923  5.04414e+20
-36.775  5.18401e+20
-36.6577  5.2529e+20
-36.5404  5.23704e+20
-36.4231  5.14342e+20
-36.3058  5.00379e+20
-36.1885  4.86641e+20
-36.0712  4.7829e+20
-35.9539  4.79586e+20
-35.8366  4.92545e+20
-35.7193  5.16549e+20
-35.602  5.48238e+20
-35.4847  5.8245e+20
-35.3674  6.13282e+20
-35.2501  6.35788e+20
-35.1328  6.4703e+20
-35.0154  6.46595e+20
-34.8981  6.37037e+20
-34.7808  6.22248e+20
-34.6635  6.07013e+20
-34.5462  5.9523e+20
-34.4289  5.88808e+20
-34.3116  5.87414e+20
-34.1943  5.88614e+20
-34.077  5.8873e+20
-33.9597  5.83902e+20
-33.8424  5.71858e+20
-33.7251  5.52481e+20
-33.6078  5.28344e+20
-33.4905  5.03906e+20
-33.3732  4.85039e+20
-33.2559  4.77256e+20
-33.1386  4.83863e+20
-33.0213  5.06021e+20
-32.904  5.41383e+20
-32.7867  5.85141e+20
-32.6693  6.31036e+20
-32.552  6.72505e+20
-32.4347  7.04482e+20
-32.3174  7.24338e+20
-32.2001  7.31976e+20
-32.0828  7.3007e+20
-31.9655  7.22791e+20
-31.8482  7.14765e+20
-31.7309  7.09431e+20
-31.6136  7.08923e+20
-31.4963  7.1302e+20
-31.379  7.20142e+20
-31.2617  7.27496e+20
-31.1444  7.32548e+20
-31.0271  7.33669e+20
-30.9098  7.30549e+20
-30.7925  7.24549e+20
-30.6752  7.17787e+20
-30.5579  7.12338e+20
-30.4406  7.09893e+20
-30.3232  7.10457e+20
-30.2059  7.12584e+20
-30.0886  7.13439e+20
-29.9713  7.09862e+20
-29.854  6.99597e+20
-29.7367  6.8182e+20
-29.6194  6.58191e+20
-29.5021  6.32868e+20
-29.3848  6.11606e+20
-29.2675  6.01071e+20
-29.1502  6.06844e+20
-29.0329  6.32697e+20
-28.9156  6.79019e+20
-28.7983  7.42864e+20
-28.681  8.18618e+20
-28.5637  8.98652e+20
-28.4464  9.74874e+20
-28.3291  1.04063e+21
-28.2118  1.09146e+21
-28.0944  1.12553e+21
-27.9771  1.14463e+21
-27.8598  1.15169e+21
-27.7425  1.1515e+21
-27.6252  1.14787e+21
-27.5079  1.14427e+21
-27.3906  1.14203e+21
-27.2733  1.14121e+21
-27.156  1.14068e+21
-27.0387  1.13898e+21
-26.9214  1.13562e+21
-26.8041  1.13106e+21
-26.6868  1.12714e+21
-26.5695  1.1266e+21
-26.4522  1.13261e+21
-26.3349  1.14729e+21
-26.2176  1.17158e+21
-26.1003  1.20435e+21
-25.983  1.24256e+21
-25.8657  1.28192e+21
-25.7483  1.31784e+21
-25.631  1.34673e+21
-25.5137  1.36703e+21
-25.3964  1.37908e+21
-25.2791  1.38604e+21
-25.1618  1.39277e+21
-25.0445  1.40461e+21
-24.9272  1.42641e+21
-24.8099  1.4614e+21
-24.6926  1.51036e+21
-24.5753  1.57116e+21
-24.458  1.64e+21
-24.3407  1.71179e+21
-24.2234  1.78129e+21
-24.1061  1.84465e+21
-23.9888  1.8997e+21
-23.8715  1.94642e+21
-23.7542  1.98579e+21
-23.6369  2.02095e+21
-23.5196  2.05376e+21
-23.4023  2.08624e+21
-23.2849  2.11902e+21
-23.1676  2.15163e+21
-23.0503  2.18339e+21
-22.933  2.21401e+21
-22.8157  2.24478e+21
-22.6984  2.27864e+21
-22.5811  2.32095e+21
-22.4638  2.37852e+21
-22.3465  2.45825e+21
-22.2292  2.56631e+21
-22.1119  2.70614e+21
-21.9946  2.8775e+21
-21.8773  3.07627e+21
-21.76  3.29455e+21
-21.6427  3.52148e+21
-21.5254  3.74541e+21
-21.4081  3.95549e+21
-21.2908  4.14334e+21
-21.1735  4.30312e+21
-21.0561  4.43406e+21
-20.9388  4.53812e+21
-20.8215  4.62012e+21
-20.7042  4.68661e+21
-20.5869  4.74426e+21
-20.4696  4.80002e+21
-20.3523  4.85982e+21
-20.235  4.92934e+21
-20.1177  5.01412e+21
-20.0004  5.12017e+21
-19.8831  5.25352e+21
-19.7658  5.42007e+21
-19.6485  5.62585e+21
-19.5312  5.87463e+21
-19.4139  6.16696e+21
-19.2966  6.50093e+21
-19.1793  6.86977e+21
-19.062  7.26382e+21
-18.9447  7.67124e+21
-18.8274  8.08036e+21
-18.71  8.47979e+21
-18.5927  8.86283e+21
-18.4754  9.22526e+21
-18.3581  9.5689e+21
-18.2408  9.89825e+21
-18.1235  1.02221e+22
-18.0062  1.05487e+22
-17.8889  1.08877e+22
-17.7716  1.12468e+22
-17.6543  1.16321e+22
-17.537  1.20485e+22
-17.4197  1.25005e+22
-17.3024  1.29912e+22
-17.1851  1.35258e+22
-17.0678  1.41088e+22
-16.9505  1.47448e+22
-16.8332  1.54381e+22
-16.7159  1.61893e+22
-16.5986  1.69967e+22
-16.4813  1.78534e+22
-16.364  1.87487e+22
-16.2466  1.96686e+22
-16.1293  2.0597e+22
-16.012  2.15184e+22
-15.8947  2.24192e+22
-15.7774  2.329e+22
-15.6601  2.41262e+22
-15.5428  2.49277e+22
-15.4255  2.56982e+22
-15.3082  2.64442e+22
-15.1909  2.71719e+22
-15.0736  2.78885e+22
-14.9563  2.85995e+22
-14.839  2.93084e+22
-14.7217  3.00184e+22
-14.6044  3.07319e+22
-14.4871  3.14516e+22
-14.3698  3.21803e+22
-14.2525  3.29225e+22
-14.1352  3.3681e+22
-14.0178  3.44587e+22
-13.9005  3.52554e+22
-13.7832  3.60684e+22
-13.6659  3.68909e+22
-13.5486  3.77146e+22
-13.4313  3.85279e+22
-13.314  3.93202e+22
-13.1967  4.00816e+22
-13.0794  4.08057e+22
-12.9621  4.14895e+22
-12.8448  4.21336e+22
-12.7275  4.27421e+22
-12.6102  4.33209e+22
-12.4929  4.38773e+22
-12.3756  4.44172e+22
-12.2583  4.49464e+22
-12.141  4.5469e+22
-12.0237  4.59888e+22
-11.9064  4.6509e+22
-11.7891  4.70334e+22
-11.6718  4.75678e+22
-11.5544  4.81183e+22
-11.4371  4.86915e+22
-11.3198  4.92936e+22
-11.2025  4.99287e+22
-11.0852  5.05982e+22
-10.9679  5.12989e+22
-10.8506  5.20244e+22
-10.7333  5.27648e+22
-10.616  5.35092e+22
-10.4987  5.42462e+22
-10.3814  5.49657e+22
-10.2641  5.56621e+22
-10.1468  5.63322e+22
-10.0295  5.69775e+22
-9.91217  5.76021e+22
-9.79487  5.82113e+22
-9.67756  5.88116e+22
-9.56026  5.9409e+22
-9.44295  6.00071e+22
-9.32565  6.0608e+22
-9.20834  6.12129e+22
-9.09104  6.18216e+22
-8.97373  6.24337e+22
-8.85643  6.3049e+22
-8.73913  6.36685e+22
-8.62182  6.42925e+22
-8.50452  6.49213e+22
-8.38721  6.55539e+22
-8.26991  6.61887e+22
-8.1526  6.68217e+22
-8.03529  6.74487e+22
-7.91799  6.80639e+22
-7.80069  6.8663e+22
-7.68338  6.92428e+22
-7.56608  6.98028e+22
-7.44877  7.03457e+22
-7.33146  7.08756e+22
-7.21416  7.13991e+22
-7.09685  7.19223e+22
-6.97955  7.24505e+22
-6.86224  7.29868e+22
-6.74494  7.35302e+22
-6.62763  7.40779e+22
-6.51033  7.46243e+22
-6.39302  7.51626e+22
-6.27572  7.56871e+22
-6.15842  7.6193e+22
-6.04111  7.66782e+22
-5.92381  7.71435e+22
-5.8065  7.75917e+22
-5.68919  7.80269e+22
-5.57189  7.84533e+22
-5.45458  7.88741e+22
-5.33728  7.92911e+22
-5.21997  7.97039e+22
-5.10267  8.01111e+22
-4.98536  8.05103e+22
-4.86806  8.09007e+22
-4.75075  8.12819e+22
-4.63345  8.1656e+22
-4.51614  8.20259e+22
-4.39884  8.23963e+22
-4.28154  8.27702e+22
-4.16423  8.31504e+22
-4.04692  8.35363e+22
-3.92962  8.39253e+22
-3.81231  8.43115e+22
-3.69501  8.46882e+22
-3.5777  8.50481e+22
-3.4604  8.53856e+22
-3.34309  8.56972e+22
-3.22579  8.59829e+22
-3.10849  8.6245e+22
-2.99118  8.6488e+22
-2.87387  8.6718e+22
-2.75657  8.69397e+22
-2.63926  8.71567e+22
-2.52196  8.73703e+22
-2.40465  8.75797e+22
-2.28735  8.77832e+22
-2.17005  8.79781e+22
-2.05274  8.81621e+22
-1.93544  8.83346e+22
-1.81813  8.84964e+22
-1.70083  8.86493e+22
-1.58352  8.87954e+22
-1.46622  8.8936e+22
-1.34891  8.90709e+22
-1.2316  8.91983e+22
-1.1143  8.93141e+22
-0.996995  8.94138e+22
-0.87969  8.94929e+22
-0.762385  8.95483e+22
-0.64508  8.95806e+22
-0.527775  8.95918e+22
-0.41047  8.9588e+22
-0.293165  8.95763e+22
-0.17586  8.9564e+22
-0.058555  8.95566e+22
0.05875  8.95572e+22
0.176055  8.95646e+22
0.29336  8.95752e+22
0.410665  8.95818e+22
0.52797  8.95773e+22
0.645275  8.95548e+22
0.76258  8.95098e+22
0.879885  8.94403e+22
0.99719  8.93481e+22
1.1145  8.92368e+22
1.2318  8.91111e+22
1.3491  8.89759e+22
1.46641  8.88345e+22
1.58371  8.86881e+22
1.70102  8.85359e+22
1.81832  8.83767e+22
1.93563  8.82076e+22
2.05294  8.80274e+22
2.17024  8.78357e+22
2.28754  8.7634e+22
2.40485  8.74243e+22
2.52216  8.72095e+22
2.63946  8.69908e+22
2.75677  8.67687e+22
2.87407  8.65407e+22
2.99137  8.63026e+22
3.10868  8.6049e+22
3.22599  8.57747e+22
3.34329  8.54754e+22
3.4606  8.51497e+22
3.5779  8.47993e+22
3.69521  8.44287e+22
3.81251  8.40442e+22
3.92982  8.36535e+22
4.04712  8.32628e+22
4.16443  8.28768e+22
4.28173  8.24972e+22
4.39903  8.21235e+22
4.51634  8.17521e+22
4.63364  8.1379e+22
4.75095  8.10003e+22
4.86825  8.06131e+22
4.98556  8.02166e+22
5.10286  7.98113e+22
5.22017  7.93992e+22
5.33748  7.89821e+22
5.45478  7.85616e+22
5.57209  7.81365e+22
5.68939  7.77049e+22
5.8067  7.7263e+22
5.924  7.68062e+22
6.0413  7.63309e+22
6.15861  7.58352e+22
6.27591  7.5319e+22
6.39322  7.47859e+22
6.51052  7.42412e+22
6.62783  7.36915e+22
6.74514  7.31429e+22
6.86244  7.26003e+22
6.97975  7.20659e+22
7.09705  7.15384e+22
7.21436  7.10139e+22
7.33166  7.04868e+22
7.44897  6.995e+22
7.56627  6.93985e+22
7.68358  6.88281e+22
7.80088  6.82378e+22
7.91819  6.76294e+22
8.03549  6.70067e+22
8.1528  6.63746e+22
8.2701  6.57382e+22
8.38741  6.5102e+22
8.50471  6.44688e+22
8.62202  6.38403e+22
8.73932  6.32164e+22
8.85662  6.25967e+22
8.97393  6.19814e+22
9.09123  6.13697e+22
9.20854  6.07622e+22
9.32584  6.0159e+22
9.44315  5.956e+22
9.56045  5.89635e+22
9.67776  5.83665e+22
9.79506  5.77639e+22
9.91237  5.715e+22
10.0297  5.65181e+22
10.147  5.58627e+22
10.2643  5.51813e+22
10.3816  5.44745e+22
10.4989  5.37461e+22
10.6162  5.30046e+22
10.7335  5.22602e+22
10.8508  5.15247e+22
10.9681  5.08086e+22
11.0854  5.01203e+22
11.2027  4.94657e+22
11.32  4.88447e+22
11.4373  4.82557e+22
11.5546  4.76935e+22
11.6719  4.71515e+22
11.7893  4.6623e+22
11.9066  4.61017e+22
12.0239  4.55829e+22
12.1412  4.50627e+22
12.2585  4.45373e+22
12.3758  4.40033e+22
12.4931  4.34554e+22
12.6104  4.28882e+22
12.7277  4.22945e+22
12.845  4.16683e+22
12.9623  4.10042e+22
13.0796  4.03e+22
13.1969  3.95561e+22
13.3142  3.87777e+22
13.4315  3.79727e+22
13.5488  3.71513e+22
13.6661  3.63248e+22
13.7834  3.55039e+22
13.9007  3.46956e+22
14.018  3.39053e+22
14.1354  3.31345e+22
14.2527  3.23819e+22
14.37  3.16442e+22
14.4873  3.09183e+22
14.6046  3.01994e+22
14.7219  2.94852e+22
14.8392  2.87733e+22
14.9565  2.8061e+22
15.0738  2.73454e+22
15.1911  2.66222e+22
15.3084  2.58857e+22
15.4257  2.51297e+22
15.543  2.43477e+22
15.6603  2.35335e+22
15.7776  2.26858e+22
15.8949  2.1806e+22
16.0122  2.09005e+22
16.1295  1.99805e+22
16.2468  1.90601e+22
16.3641  1.81554e+22
16.4815  1.72809e+22
16.5988  1.64497e+22
16.7161  1.56713e+22
16.8334  1.49498e+22
16.9507  1.42865e+22
17.068  1.36783e+22
17.1853  1.31213e+22
17.3026  1.26106e+22
17.4199  1.2142e+22
17.5372  1.17108e+22
17.6545  1.13135e+22
17.7718  1.09458e+22
17.8891  1.06025e+22
18.0064  1.02767e+22
18.1237  9.95936e+21
18.241  9.64167e+21
18.3583  9.31463e+21
18.4756  8.97077e+21
18.5929  8.60661e+21
18.7102  8.22258e+21
18.8275  7.82384e+21
18.9449  7.41932e+21
19.0622  7.0201e+21
19.1795  6.6392e+21
19.2968  6.28767e+21
19.4141  5.97379e+21
19.5314  5.70208e+21
19.6487  5.47442e+21
19.766  5.28823e+21
19.8833  5.13844e+21
20.0006  5.01962e+21
20.1179  4.9252e+21
20.2352  4.84902e+21
20.3525  4.78563e+21
20.4698  4.72962e+21
20.5871  4.67512e+21
20.7044  4.61553e+21
20.8217  4.54451e+21
20.939  4.45507e+21
21.0563  4.34135e+21
21.1736  4.19961e+21
21.291  4.02884e+21
21.4083  3.83221e+21
21.5256  3.61627e+21
21.6429  3.39099e+21
21.7602  3.16787e+21
21.8775  2.95838e+21
21.9948  2.77208e+21
22.1121  2.61558e+21
22.2294  2.49129e+21
22.3467  2.39743e+21
22.464  2.32915e+21
22.5813  2.27978e+21
22.6986  2.24211e+21
22.8159  2.20977e+21
22.9332  2.17873e+21
23.0505  2.14684e+21
23.1678  2.11389e+21
23.2851  2.08064e+21
23.4024  2.04791e+21
23.5198  2.01564e+21
23.6371  1.9831e+21
23.7544  1.94764e+21
23.8717  1.90724e+21
23.989  1.8591e+21
24.1063  1.80256e+21
24.2236  1.7384e+21
24.3409  1.66959e+21
24.4582  1.60061e+21
24.5755  1.53659e+21
24.6928  1.48228e+21
24.8101  1.44093e+21
24.9274  1.41306e+21
25.0447  1.39694e+21
25.162  1.38858e+21
25.2793  1.38266e+21
25.3966  1.37389e+21
25.5139  1.35824e+21
25.6312  1.33367e+21
25.7485  1.3008e+21
25.8658  1.26218e+21
25.9832  1.22198e+21
26.1005  1.18524e+21
26.2178  1.15538e+21
26.3351  1.13478e+21
26.4524  1.12373e+21
26.5697  1.12066e+21
26.687  1.1229e+21
26.8043  1.12737e+21
26.9216  1.13172e+21
27.0389  1.13467e+21
27.1562  1.13615e+21
27.2735  1.13725e+21
27.3908  1.13907e+21
27.5081  1.14217e+21
27.6254  1.14623e+21
27.7427  1.14882e+21
27.86  1.14615e+21
27.9773  1.13399e+21
28.0946  1.10825e+21
28.212  1.06649e+21
28.3293  1.00869e+21
28.4466  9.37672e+20
28.5639  8.59183e+20
28.6812  7.80591e+20
28.7985  7.0967e+20
28.9158  6.53287e+20
29.0331  6.16148e+20
29.1504  5.99471e+20
29.2677  6.01371e+20
29.385  6.17286e+20
29.5023  6.40823e+20
29.6196  6.65843e+20
29.7369  6.87135e+20
29.8542  7.01648e+20
29.9715  7.08788e+20
30.0888  7.09976e+20
30.2061  7.08245e+20
30.3234  7.06433e+20
30.4407  7.06962e+20
30.558  7.10692e+20
30.6754  7.16971e+20
30.7927  7.24024e+20
30.91  7.29409e+20
31.0273  7.31358e+20
31.1446  7.29211e+20
31.2619  7.2373e+20
31.3792  7.16889e+20
31.4965  7.11321e+20
31.6138  7.09479e+20
31.7311  7.12202e+20
31.8484  7.18893e+20
31.9657  7.26838e+20
32.083  7.3194e+20
32.2003  7.29788e+20
32.3176  7.16888e+20
32.4349  6.91652e+20
32.5522  6.55052e+20
32.6695  6.10966e+20
32.7868  5.65152e+20
32.9042  5.2404e+20
33.0215  4.937e+20
33.1388  4.77783e+20
33.2561  4.77464e+20
33.3734  4.90587e+20
33.4907  5.12662e+20
33.608  5.37908e+20
33.7253  5.60946e+20
33.8426  5.77724e+20
33.9599  5.86678e+20
34.0772  5.88934e+20
34.1945  5.87505e+20
34.3118  5.86297e+20
34.4291  5.88795e+20
34.5464  5.96806e+20
34.6637  6.09907e+20
34.781  6.25338e+20
34.8983  6.38813e+20
35.0156  6.4566e+20
35.1329  6.42329e+20
35.2503  6.27314e+20
35.3676  6.01776e+20
35.4849  5.69755e+20
35.6022  5.36435e+20
35.7195  5.07591e+20
35.8368  4.87934e+20
35.9541  4.79821e+20
36.0714  4.82811e+20
36.1887  4.93879e+20
36.306  5.0826e+20
36.4233  5.20812e+20
36.5406  5.27127e+20
36.6579  5.24965e+20
36.7752  5.14336e+20
36.8925  4.97823e+20
37.0098  4.79328e+20
37.1271  4.63048e+20
37.2444  4.52348e+20
37.3617  4.48979e+20
37.479  4.52471e+20
37.5964  4.60833e+20
37.7137  4.70813e+20
37.831  4.79482e+20
37.9483  4.84833e+20
38.0656  4.86363e+20
38.1829  4.85153e+20
38.3002  4.83577e+20
38.4175  4.83922e+20
38.5348  4.87822e+20
38.6521  4.95317e+20
38.7694  5.04548e+20
38.8867  5.11725e+20
39.004  5.12715e+20
39.1213  5.03416e+20
39.2386  4.81341e+20
39.3559  4.46573e+20
39.4732  4.01844e+20
39.5905  3.52319e+20
39.7078  3.04377e+20
39.8251  2.64752e+20
39.9425  2.38605e+20
40.0598  2.28751e+20
40.1771  2.35133e+20
40.2944  2.54684e+20
40.4117  2.8251e+20
40.529  3.12923e+20
40.6463  3.40697e+20
40.7636  3.62234e+20
40.8809  3.75994e+20
40.9982  3.82844e+20
41.1155  3.85131e+20
41.2328  3.86154e+20
41.3501  3.88698e+20
41.4674  3.94696e+20
41.5847  4.04451e+20
41.702  4.16981e+20
41.8193  4.30115e+20
41.9366  4.41585e+20
42.0539  4.49542e+20
42.1712  4.53371e+20
42.2885  4.53542e+20
42.4059  4.51593e+20
42.5232  4.49502e+20
42.6405  4.49176e+20
42.7578  4.51355e+20
42.8751  4.55338e+20
42.9924  4.59227e+20
43.1097  4.60271e+20
43.227  4.55273e+20
43.3443  4.42009e+20
43.4616  4.19761e+20
43.5789  3.89571e+20
43.6962  3.54593e+20
43.8135  3.19441e+20
43.9308  2.89e+20
44.0481  2.67661e+20
44.1654  2.58235e+20
44.2827  2.61256e+20
44.4  2.74815e+20
44.5173  2.95236e+20
44.6347  3.17771e+20
44.752  3.37737e+20
44.8693  3.51711e+20
44.9866  3.58225e+20
45.1039  3.57969e+20
45.2212  3.53634e+20
45.3385  3.48751e+20
45.4558  3.46788e+20
45.5731  3.50151e+20
45.6904  3.59339e+20
45.8077  3.72802e+20
45.925  3.87178e+20
46.0423  3.98298e+20
46.1596  4.02263e+20
46.2769  3.96831e+20
46.3942  3.81718e+20
46.5115  3.59021e+20
46.6288  3.32947e+20
46.7461  3.08453e+20
46.8634  2.90296e+20
46.9808  2.81675e+20
47.0981  2.83432e+20
47.2154  2.9397e+20
47.3327  3.09544e+20
47.45  3.25296e+20
47.5673  3.36519e+20
47.6846  3.40185e+20
47.8019  3.35144e+20
47.9192  3.22742e+20
48.0365  3.06592e+20
48.1538  2.90868e+20
48.2711  2.79666e+20
48.3884  2.75829e+20
48.5057  2.80057e+20
48.623  2.90868e+20
48.7403  3.05412e+20
48.8576  3.20219e+20
48.9749  3.32193e+20
49.0922  3.39669e+20
49.2095  3.42936e+20
49.3269  3.43751e+20
49.4442  3.44873e+20
49.5615  3.48627e+20
49.6788  3.56366e+20
49.7961  3.67362e+20
49.9134  3.7897e+20
50.0307  3.87157e+20
50.148  3.87501e+20
50.2653  3.76733e+20
50.3826  3.53674e+20
50.4999  3.20044e+20
50.6172  2.80226e+20
50.7345  2.40572e+20
50.8518  2.07843e+20
