#S 1 spectral density
#N 2
#UFWHM 13.0209
#L  abscissas [um]  spectral density
-58.5938  1.39049e+21
-58.4764  1.34612e+21
-58.3591  1.29349e+21
-58.2418  1.24042e+21
-58.1245  1.195e+21
-58.0072  1.16362e+21
-57.8899  1.15015e+21
-57.7726  1.15528e+21
-57.6553  1.17599e+21
-57.538  1.20666e+21
-57.4207  1.24047e+21
-57.3034  1.2702e+21
-57.1861  1.29067e+21
-57.0688  1.29845e+21
-56.9515  1.2935e+21
-56.8342  1.27797e+21
-56.7169  1.25646e+21
-56.5996  1.23403e+21
-56.4823  1.21519e+21
-56.365  1.20353e+21
-56.2477  1.20036e+21
-56.1303  1.20534e+21
-56.013  1.21646e+21
-55.8957  1.23091e+21
-55.7784  1.24619e+21
-55.6611  1.26056e+21
-55.5438  1.27312e+21
-55.4265  1.28458e+21
-55.3092  1.29614e+21
-55.1919  1.30886e+21
-55.0746  1.32342e+21
-54.9573  1.3391e+21
-54.84  1.35445e+21
-54.7227  1.36666e+21
-54.6054  1.37307e+21
-54.4881  1.37149e+21
-54.3708  1.3612e+21
-54.2535  1.34332e+21
-54.1362  1.32055e+21
-54.0189  1.29715e+21
-53.9016  1.27734e+21
-53.7842  1.26496e+21
-53.6669  1.26222e+21
-53.5496  1.26888e+21
-53.4323  1.28279e+21
-53.315  1.29972e+21
-53.1977  1.31488e+21
-53.0804  1.32384e+21
-52.9631  1.32341e+21
-52.8458  1.31214e+21
-52.7285  1.29142e+21
-52.6112  1.26375e+21
-52.4939  1.23353e+21
-52.3766  1.20472e+21
-52.2593  1.18099e+21
-52.142  1.1641e+21
-52.0247  1.1551e+21
-51.9074  1.15289e+21
-51.7901  1.15568e+21
-51.6728  1.16162e+21
-51.5555  1.16889e+21
-51.4381  1.17623e+21
-51.3208  1.18337e+21
-51.2035  1.19e+21
-51.0862  1.19635e+21
-50.9689  1.20223e+21
-50.8516  1.20692e+21
-50.7343  1.20991e+21
-50.617  1.21039e+21
-50.4997  1.2081e+21
-50.3824  1.20343e+21
-50.2651  1.19804e+21
-50.1478  1.1942e+21
-50.0305  1.19427e+21
-49.9132  1.20058e+21
-49.7959  1.21413e+21
-49.6786  1.23459e+21
-49.5613  1.25973e+21
-49.444  1.2859e+21
-49.3267  1.30875e+21
-49.2094  1.32405e+21
-49.092  1.32871e+21
-48.9747  1.32159e+21
-48.8574  1.30366e+21
-48.7401  1.2779e+21
-48.6228  1.24827e+21
-48.5055  1.21972e+21
-48.3882  1.19621e+21
-48.2709  1.18048e+21
-48.1536  1.1732e+21
-48.0363  1.17366e+21
-47.919  1.17944e+21
-47.8017  1.18805e+21
-47.6844  1.1965e+21
-47.5671  1.20305e+21
-47.4498  1.2062e+21
-47.3325  1.2061e+21
-47.2152  1.20268e+21
-47.0979  1.19636e+21
-46.9806  1.18719e+21
-46.8633  1.1749e+21
-46.7459  1.15902e+21
-46.6286  1.13944e+21
-46.5113  1.11639e+21
-46.394  1.0918e+21
-46.2767  1.06801e+21
-46.1594  1.04872e+21
-46.0421  1.03778e+21
-45.9248  1.0384e+21
-45.8075  1.05215e+21
-45.6902  1.0783e+21
-45.5729  1.11402e+21
-45.4556  1.15405e+21
-45.3383  1.19181e+21
-45.221  1.22078e+21
-45.1037  1.23579e+21
-44.9864  1.23378e+21
-44.8691  1.21527e+21
-44.7518  1.18352e+21
-44.6345  1.14444e+21
-44.5172  1.10537e+21
-44.3998  1.07326e+21
-44.2825  1.05415e+21
-44.1652  1.05113e+21
-44.0479  1.06457e+21
-43.9306  1.09157e+21
-43.8133  1.12775e+21
-43.696  1.16709e+21
-43.5787  1.20412e+21
-43.4614  1.23401e+21
-43.3441  1.25434e+21
-43.2268  1.26424e+21
-43.1095  1.26523e+21
-42.9922  1.25938e+21
-42.8749  1.24982e+21
-42.7576  1.23873e+21
-42.6403  1.22844e+21
-42.523  1.21995e+21
-42.4057  1.21361e+21
-42.2884  1.21016e+21
-42.171  1.20991e+21
-42.0537  1.21404e+21
-41.9364  1.22401e+21
-41.8191  1.24147e+21
-41.7018  1.26764e+21
-41.5845  1.30252e+21
-41.4672  1.34422e+21
-41.3499  1.38936e+21
-41.2326  1.43282e+21
-41.1153  1.46834e+21
-40.998  1.49017e+21
-40.8807  1.49433e+21
-40.7634  1.47929e+21
-40.6461  1.44678e+21
-40.5288  1.40214e+21
-40.4115  1.3532e+21
-40.2942  1.309e+21
-40.1769  1.27829e+21
-40.0596  1.26738e+21
-39.9423  1.27915e+21
-39.825  1.31217e+21
-39.7076  1.36096e+21
-39.5903  1.41746e+21
-39.473  1.47204e+21
-39.3557  1.51586e+21
-39.2384  1.54209e+21
-39.1211  1.54826e+21
-39.0038  1.53535e+21
-38.8865  1.508e+21
-38.7692  1.473e+21
-38.6519  1.43841e+21
-38.5346  1.41072e+21
-38.4173  1.39514e+21
-38.3  1.39326e+21
-38.1827  1.4047e+21
-38.0654  1.42611e+21
-37.9481  1.45414e+21
-37.8308  1.48444e+21
-37.7135  1.51402e+21
-37.5962  1.5413e+21
-37.4789  1.56564e+21
-37.3615  1.5873e+21
-37.2442  1.60679e+21
-37.1269  1.62393e+21
-37.0096  1.63804e+21
-36.8923  1.64734e+21
-36.775  1.64989e+21
-36.6577  1.64434e+21
-36.5404  1.63062e+21
-36.4231  1.61012e+21
-36.3058  1.58592e+21
-36.1885  1.56306e+21
-36.0712  1.54636e+21
-35.9539  1.54018e+21
-35.8366  1.54696e+21
-35.7193  1.5668e+21
-35.602  1.59677e+21
-35.4847  1.63191e+21
-35.3674  1.66541e+21
-35.2501  1.69061e+21
-35.1328  1.70233e+21
-35.0154  1.69745e+21
-34.8981  1.67612e+21
-34.7808  1.64081e+21
-34.6635  1.59682e+21
-34.5462  1.54966e+21
-34.4289  1.50579e+21
-34.3116  1.4696e+21
-34.1943  1.44391e+21
-34.077  1.42915e+21
-33.9597  1.42396e+21
-33.8424  1.42554e+21
-33.7251  1.4307e+21
-33.6078  1.43609e+21
-33.4905  1.43916e+21
-33.3732  1.43805e+21
-33.2559  1.43215e+21
-33.1386  1.42082e+21
-33.0213  1.4043e+21
-32.904  1.38307e+21
-32.7867  1.35765e+21
-32.6693  1.32885e+21
-32.552  1.29796e+21
-32.4347  1.26674e+21
-32.3174  1.23741e+21
-32.2001  1.21239e+21
-32.0828  1.19393e+21
-31.9655  1.18343e+21
-31.8482  1.18134e+21
-31.7309  1.18653e+21
-31.6136  1.19634e+21
-31.4963  1.2076e+21
-31.379  1.21651e+21
-31.2617  1.21974e+21
-31.1444  1.21523e+21
-31.0271  1.20285e+21
-30.9098  1.18385e+21
-30.7925  1.16162e+21
-30.6752  1.13988e+21
-30.5579  1.12231e+21
-30.4406  1.11221e+21
-30.3232  1.11102e+21
-30.2059  1.11858e+21
-30.0886  1.13309e+21
-29.9713  1.15157e+21
-29.854  1.17073e+21
-29.7367  1.18781e+21
-29.6194  1.20063e+21
-29.5021  1.20853e+21
-29.3848  1.21181e+21
-29.2675  1.21128e+21
-29.1502  1.20846e+21
-29.0329  1.20417e+21
-28.9156  1.19871e+21
-28.7983  1.19184e+21
-28.681  1.18272e+21
-28.5637  1.17103e+21
-28.4464  1.15652e+21
-28.3291  1.1402e+21
-28.2118  1.1243e+21
-28.0944  1.11136e+21
-27.9771  1.10454e+21
-27.8598  1.10607e+21
-27.7425  1.11696e+21
-27.6252  1.13648e+21
-27.5079  1.16174e+21
-27.3906  1.18855e+21
-27.2733  1.21221e+21
-27.156  1.22817e+21
-27.0387  1.23387e+21
-26.9214  1.22842e+21
-26.8041  1.21452e+21
-26.6868  1.19655e+21
-26.5695  1.18068e+21
-26.4522  1.17338e+21
-26.3349  1.18001e+21
-26.2176  1.20374e+21
-26.1003  1.24497e+21
-25.983  1.30091e+21
-25.8657  1.36667e+21
-25.7483  1.43593e+21
-25.631  1.5023e+21
-25.5137  1.56084e+21
-25.3964  1.60817e+21
-25.2791  1.64375e+21
-25.1618  1.66874e+21
-25.0445  1.68635e+21
-24.9272  1.69996e+21
-24.8099  1.71281e+21
-24.6926  1.72731e+21
-24.5753  1.7444e+21
-24.458  1.7645e+21
-24.3407  1.78712e+21
-24.2234  1.81194e+21
-24.1061  1.83933e+21
-23.9888  1.87009e+21
-23.8715  1.90621e+21
-23.7542  1.94869e+21
-23.6369  1.99864e+21
-23.5196  2.05538e+21
-23.4023  2.11648e+21
-23.2849  2.1778e+21
-23.1676  2.23379e+21
-23.0503  2.27913e+21
-22.933  2.30933e+21
-22.8157  2.32225e+21
-22.6984  2.31902e+21
-22.5811  2.30348e+21
-22.4638  2.28241e+21
-22.3465  2.26392e+21
-22.2292  2.25544e+21
-22.1119  2.26337e+21
-21.9946  2.29026e+21
-21.8773  2.33574e+21
-21.76  2.39531e+21
-21.6427  2.46223e+21
-21.5254  2.52842e+21
-21.4081  2.58687e+21
-21.2908  2.63184e+21
-21.1735  2.66073e+21
-21.0561  2.67434e+21
-20.9388  2.67599e+21
-20.8215  2.67084e+21
-20.7042  2.66404e+21
-20.5869  2.65992e+21
-20.4696  2.66146e+21
-20.3523  2.66956e+21
-20.235  2.68299e+21
-20.1177  2.69984e+21
-20.0004  2.71792e+21
-19.8831  2.73534e+21
-19.7658  2.75209e+21
-19.6485  2.76823e+21
-19.5312  2.78487e+21
-19.4139  2.80308e+21
-19.2966  2.82297e+21
-19.1793  2.84359e+21
-19.062  2.86204e+21
-18.9447  2.87524e+21
-18.8274  2.87969e+21
-18.71  2.8729e+21
-18.5927  2.85441e+21
-18.4754  2.82543e+21
-18.3581  2.79077e+21
-18.2408  2.75516e+21
-18.1235  2.72588e+21
-18.0062  2.70803e+21
-17.8889  2.70527e+21
-17.7716  2.71839e+21
-17.6543  2.74523e+21
-17.537  2.78092e+21
-17.4197  2.81955e+21
-17.3024  2.85487e+21
-17.1851  2.88189e+21
-17.0678  2.89785e+21
-16.9505  2.90217e+21
-16.8332  2.89713e+21
-16.7159  2.88628e+21
-16.5986  2.87408e+21
-16.4813  2.86377e+21
-16.364  2.85795e+21
-16.2466  2.85762e+21
-16.1293  2.86212e+21
-16.012  2.87033e+21
-15.8947  2.8804e+21
-15.7774  2.89162e+21
-15.6601  2.90369e+21
-15.5428  2.91767e+21
-15.4255  2.93571e+21
-15.3082  2.95981e+21
-15.1909  2.9913e+21
-15.0736  3.03128e+21
-14.9563  3.07941e+21
-14.839  3.13456e+21
-14.7217  3.19554e+21
-14.6044  3.26128e+21
-14.4871  3.33144e+21
-14.3698  3.40697e+21
-14.2525  3.49051e+21
-14.1352  3.58438e+21
-14.0178  3.69181e+21
-13.9005  3.81535e+21
-13.7832  3.95576e+21
-13.6659  4.1129e+21
-13.5486  4.28466e+21
-13.4313  4.46908e+21
-13.314  4.66334e+21
-13.1967  4.86604e+21
-13.0794  5.07629e+21
-12.9621  5.2952e+21
-12.8448  5.52435e+21
-12.7275  5.76668e+21
-12.6102  6.02287e+21
-12.4929  6.29365e+21
-12.3756  6.57724e+21
-12.2583  6.86925e+21
-12.141  7.16471e+21
-12.0237  7.45769e+21
-11.9064  7.74259e+21
-11.7891  8.01567e+21
-11.6718  8.27617e+21
-11.5544  8.52566e+21
-11.4371  8.76859e+21
-11.3198  9.01107e+21
-11.2025  9.26044e+21
-11.0852  9.52353e+21
-10.9679  9.80656e+21
-10.8506  1.01137e+22
-10.7333  1.04479e+22
-10.616  1.08102e+22
-10.4987  1.1201e+22
-10.3814  1.16202e+22
-10.2641  1.20669e+22
-10.1468  1.2541e+22
-10.0295  1.304e+22
-9.91217  1.35618e+22
-9.79487  1.41018e+22
-9.67756  1.46539e+22
-9.56026  1.52104e+22
-9.44295  1.57633e+22
-9.32565  1.63051e+22
-9.20834  1.68302e+22
-9.09104  1.7336e+22
-8.97373  1.78253e+22
-8.85643  1.83042e+22
-8.73913  1.87845e+22
-8.62182  1.92796e+22
-8.50452  1.9805e+22
-8.38721  2.03752e+22
-8.26991  2.10029e+22
-8.1526  2.16959e+22
-8.03529  2.24584e+22
-7.91799  2.32887e+22
-7.80069  2.41825e+22
-7.68338  2.51307e+22
-7.56608  2.61229e+22
-7.44877  2.7148e+22
-7.33146  2.81943e+22
-7.21416  2.92514e+22
-7.09685  3.03082e+22
-6.97955  3.13556e+22
-6.86224  3.2385e+22
-6.74494  3.33878e+22
-6.62763  3.43588e+22
-6.51033  3.52932e+22
-6.39302  3.61898e+22
-6.27572  3.70508e+22
-6.15842  3.78815e+22
-6.04111  3.86915e+22
-5.92381  3.94933e+22
-5.8065  4.02986e+22
-5.68919  4.11205e+22
-5.57189  4.19704e+22
-5.45458  4.28553e+22
-5.33728  4.37794e+22
-5.21997  4.47414e+22
-5.10267  4.57382e+22
-4.98536  4.67622e+22
-4.86806  4.78055e+22
-4.75075  4.88594e+22
-4.63345  4.99162e+22
-4.51614  5.09693e+22
-4.39884  5.20127e+22
-4.28154  5.304e+22
-4.16423  5.40476e+22
-4.04692  5.50276e+22
-3.92962  5.5975e+22
-3.81231  5.68825e+22
-3.69501  5.77439e+22
-3.5777  5.85553e+22
-3.4604  5.9314e+22
-3.34309  6.00205e+22
-3.22579  6.06796e+22
-3.10849  6.1298e+22
-2.99118  6.18831e+22
-2.87387  6.24455e+22
-2.75657  6.2993e+22
-2.63926  6.35319e+22
-2.52196  6.40657e+22
-2.40465  6.4596e+22
-2.28735  6.51214e+22
-2.17005  6.5639e+22
-2.05274  6.6145e+22
-1.93544  6.66353e+22
-1.81813  6.71065e+22
-1.70083  6.75554e+22
-1.58352  6.79793e+22
-1.46622  6.8374e+22
-1.34891  6.87351e+22
-1.2316  6.90587e+22
-1.1143  6.93401e+22
-0.996995  6.95753e+22
-0.87969  6.9762e+22
-0.762385  6.99005e+22
-0.64508  6.99951e+22
-0.527775  7.00524e+22
-0.41047  7.00813e+22
-0.293165  7.00922e+22
-0.17586  7.00952e+22
-0.058555  7.00974e+22
0.05875  7.0103e+22
0.176055  7.01107e+22
0.29336  7.01175e+22
0.410665  7.01136e+22
0.52797  7.00904e+22
0.645275  7.00373e+22
0.76258  6.99467e+22
0.879885  6.98116e+22
0.99719  6.96297e+22
1.1145  6.94012e+22
1.2318  6.91279e+22
1.3491  6.88136e+22
1.46641  6.84628e+22
1.58371  6.80791e+22
1.70102  6.76659e+22
1.81832  6.72273e+22
1.93563  6.67657e+22
2.05294  6.62851e+22
2.17024  6.57895e+22
2.28754  6.52831e+22
2.40485  6.47695e+22
2.52216  6.42522e+22
2.63946  6.37311e+22
2.75677  6.32049e+22
2.87407  6.26687e+22
2.99137  6.21152e+22
3.10868  6.15352e+22
3.22599  6.09196e+22
3.34329  6.02607e+22
3.4606  5.95519e+22
3.5779  5.879e+22
3.69521  5.79763e+22
3.81251  5.71129e+22
3.92982  5.62053e+22
4.04712  5.52604e+22
4.16443  5.42831e+22
4.28173  5.32811e+22
4.39903  5.22587e+22
4.51634  5.12217e+22
4.63364  5.01749e+22
4.75095  4.91248e+22
4.86825  4.80785e+22
4.98556  4.70445e+22
5.10286  4.60308e+22
5.22017  4.50455e+22
5.33748  4.40948e+22
5.45478  4.31824e+22
5.57209  4.23067e+22
5.68939  4.14635e+22
5.8067  4.06434e+22
5.924  3.98354e+22
6.0413  3.90267e+22
6.15861  3.82053e+22
6.27591  3.73597e+22
6.39322  3.64831e+22
6.51052  3.55706e+22
6.62783  3.46215e+22
6.74514  3.36378e+22
6.86244  3.26248e+22
6.97975  3.15884e+22
7.09705  3.05362e+22
7.21436  2.94763e+22
7.33166  2.84178e+22
7.44897  2.7371e+22
7.56627  2.63466e+22
7.68358  2.53558e+22
7.80088  2.44103e+22
7.91819  2.35195e+22
8.03549  2.26926e+22
8.1528  2.19329e+22
8.2701  2.12415e+22
8.38741  2.06135e+22
8.50471  2.0039e+22
8.62202  1.9507e+22
8.73932  1.9001e+22
8.85662  1.85069e+22
8.97393  1.80115e+22
9.09123  1.75056e+22
9.20854  1.69829e+22
9.32584  1.64426e+22
9.44315  1.58881e+22
9.56045  1.53249e+22
9.67776  1.47605e+22
9.79506  1.42034e+22
9.91237  1.36599e+22
10.0297  1.31363e+22
10.147  1.26359e+22
10.2643  1.21617e+22
10.3816  1.17156e+22
10.4989  1.12979e+22
10.6162  1.09099e+22
10.7335  1.05516e+22
10.8508  1.02215e+22
10.9681  9.91844e+21
11.0854  9.63839e+21
11.2027  9.37658e+21
11.32  9.12608e+21
11.4373  8.88001e+21
11.5546  8.63126e+21
11.6719  8.37452e+21
11.7893  8.1061e+21
11.9066  7.8253e+21
12.0239  7.53432e+21
12.1412  7.2372e+21
12.2585  6.93935e+21
12.3758  6.64652e+21
12.4931  6.36338e+21
12.6104  6.0931e+21
12.7277  5.83658e+21
12.845  5.59336e+21
12.9623  5.36168e+21
13.0796  5.13928e+21
13.1969  4.92527e+21
13.3142  4.71871e+21
13.4315  4.52116e+21
13.5488  4.33398e+21
13.6661  4.16027e+21
13.7834  4.00181e+21
13.9007  3.8598e+21
14.018  3.73412e+21
14.1354  3.62338e+21
14.2527  3.52553e+21
14.37  3.43733e+21
14.4873  3.35686e+21
14.6046  3.28273e+21
14.7219  3.21421e+21
14.8392  3.15212e+21
14.9565  3.09754e+21
15.0738  3.05129e+21
15.1911  3.01379e+21
15.3084  2.98447e+21
15.4257  2.96163e+21
15.543  2.94292e+21
15.6603  2.92644e+21
15.7776  2.91041e+21
15.8949  2.89452e+21
16.0122  2.87946e+21
16.1295  2.86693e+21
16.2468  2.85944e+21
16.3641  2.85844e+21
16.4815  2.86408e+21
16.5988  2.87502e+21
16.7161  2.88841e+21
16.8334  2.89958e+21
16.9507  2.90423e+21
17.068  2.89853e+21
17.1853  2.88114e+21
17.3026  2.85246e+21
17.4199  2.81653e+21
17.5372  2.77875e+21
17.6545  2.74544e+21
17.7718  2.72278e+21
17.8891  2.71474e+21
18.0064  2.72281e+21
18.1237  2.7449e+21
18.241  2.77695e+21
18.3583  2.81282e+21
18.4756  2.84619e+21
18.5929  2.87154e+21
18.7102  2.88574e+21
18.8275  2.88766e+21
18.9449  2.87915e+21
19.0622  2.86286e+21
19.1795  2.84296e+21
19.2968  2.82231e+21
19.4141  2.80309e+21
19.5314  2.78588e+21
19.6487  2.76995e+21
19.766  2.75413e+21
19.8833  2.73735e+21
20.0006  2.71944e+21
20.1179  2.70121e+21
20.2352  2.68471e+21
20.3525  2.67268e+21
20.4698  2.66671e+21
20.5871  2.66785e+21
20.7044  2.67429e+21
20.8217  2.68285e+21
20.939  2.68852e+21
21.0563  2.68559e+21
21.1736  2.66921e+21
21.291  2.63662e+21
21.4083  2.58781e+21
21.5256  2.52614e+21
21.6429  2.45802e+21
21.7602  2.39113e+21
21.8775  2.33375e+21
21.9948  2.29183e+21
22.1121  2.26914e+21
22.2294  2.26526e+21
22.3467  2.27666e+21
22.464  2.29648e+21
22.5813  2.31686e+21
22.6986  2.32996e+21
22.8159  2.3297e+21
22.9332  2.31313e+21
23.0505  2.27995e+21
23.1678  2.23291e+21
23.2851  2.17678e+21
23.4024  2.11647e+21
23.5198  2.05722e+21
23.6371  2.00241e+21
23.7544  1.95374e+21
23.8717  1.91154e+21
23.989  1.8747e+21
24.1063  1.84248e+21
24.2236  1.81339e+21
24.3409  1.78731e+21
24.4582  1.76465e+21
24.5755  1.74572e+21
24.6928  1.7311e+21
24.8101  1.71993e+21
24.9274  1.71038e+21
25.0447  1.69945e+21
25.162  1.68308e+21
25.2793  1.65746e+21
25.3966  1.61968e+21
25.5139  1.56882e+21
25.6312  1.50635e+21
25.7485  1.43622e+21
25.8658  1.36438e+21
25.9832  1.29759e+21
26.1005  1.24224e+21
26.2178  1.20278e+21
26.3351  1.1813e+21
26.4524  1.17663e+21
26.5697  1.18518e+21
26.687  1.20078e+21
26.8043  1.21724e+21
26.9216  1.22871e+21
27.0389  1.23124e+21
27.1562  1.22318e+21
27.2735  1.20553e+21
27.3908  1.18148e+21
27.5081  1.15531e+21
27.6254  1.13156e+21
27.7427  1.11392e+21
27.86  1.10443e+21
27.9773  1.10367e+21
28.0946  1.11021e+21
28.212  1.12203e+21
28.3293  1.13658e+21
28.4466  1.1516e+21
28.5639  1.16574e+21
28.6812  1.17818e+21
28.7985  1.18916e+21
28.9158  1.19885e+21
29.0331  1.20737e+21
29.1504  1.21451e+21
29.2677  1.2191e+21
29.385  1.21998e+21
29.5023  1.21571e+21
29.6196  1.2057e+21
29.7369  1.19014e+21
29.8542  1.17044e+21
29.9715  1.14932e+21
30.0888  1.12999e+21
30.2061  1.11576e+21
30.3234  1.10952e+21
30.4407  1.11233e+21
30.558  1.12394e+21
30.6754  1.14235e+21
30.7927  1.16418e+21
30.91  1.18545e+21
31.0273  1.20264e+21
31.1446  1.21316e+21
31.2619  1.21625e+21
31.3792  1.21224e+21
31.4965  1.20371e+21
31.6138  1.19348e+21
31.7311  1.18513e+21
31.8484  1.18155e+21
31.9657  1.18458e+21
32.083  1.19512e+21
32.2003  1.21259e+21
32.3176  1.23598e+21
32.4349  1.26334e+21
32.5522  1.29308e+21
32.6695  1.32347e+21
32.7868  1.35284e+21
32.9042  1.3803e+21
33.0215  1.40438e+21
33.1388  1.42387e+21
33.2561  1.438e+21
33.3734  1.44564e+21
33.4907  1.44695e+21
33.608  1.4427e+21
33.7253  1.43505e+21
33.8426  1.4272e+21
33.9599  1.42328e+21
34.0772  1.42719e+21
34.1945  1.44202e+21
34.3118  1.46922e+21
34.4291  1.50797e+21
34.5464  1.55456e+21
34.6637  1.60387e+21
34.781  1.64919e+21
34.8983  1.68404e+21
35.0156  1.70354e+21
35.1329  1.70549e+21
35.2503  1.69051e+21
35.3676  1.66258e+21
35.4849  1.62774e+21
35.6022  1.59284e+21
35.7195  1.56473e+21
35.8368  1.54799e+21
35.9541  1.5448e+21
36.0714  1.55425e+21
36.1887  1.57314e+21
36.306  1.59652e+21
36.4233  1.61959e+21
36.5406  1.63781e+21
36.6579  1.64874e+21
36.7752  1.65133e+21
36.8925  1.64674e+21
37.0098  1.63675e+21
37.1271  1.62315e+21
37.2444  1.60722e+21
37.3617  1.58965e+21
37.479  1.56957e+21
37.5964  1.5464e+21
37.7137  1.51932e+21
37.831  1.48905e+21
37.9483  1.45794e+21
38.0656  1.42915e+21
38.1829  1.40748e+21
38.3002  1.39699e+21
38.4175  1.40054e+21
38.5348  1.41843e+21
38.6521  1.44814e+21
38.7694  1.48413e+21
38.8867  1.51902e+21
39.004  1.54471e+21
39.1213  1.55442e+21
39.2386  1.54402e+21
39.3559  1.5133e+21
39.4732  1.46609e+21
39.5905  1.40962e+21
39.7078  1.35327e+21
39.8251  1.30664e+21
39.9425  1.27746e+21
40.0598  1.27035e+21
40.1771  1.28546e+21
40.2944  1.31917e+21
40.4117  1.36438e+21
40.529  1.41236e+21
40.6463  1.4541e+21
40.7636  1.4825e+21
40.8809  1.49321e+21
40.9982  1.48533e+21
41.1155  1.46109e+21
41.2328  1.42487e+21
41.3501  1.38239e+21
41.4674  1.33906e+21
41.5847  1.29951e+21
41.702  1.26686e+21
41.8193  1.24191e+21
41.9366  1.22484e+21
42.0539  1.21465e+21
42.1712  1.20998e+21
42.2885  1.20992e+21
42.4059  1.21371e+21
42.5232  1.22087e+21
42.6405  1.23128e+21
42.7578  1.24347e+21
42.8751  1.25604e+21
42.9924  1.26625e+21
43.1097  1.27125e+21
43.227  1.26812e+21
43.3443  1.25476e+21
43.4616  1.23067e+21
43.5789  1.19739e+21
43.6962  1.15835e+21
43.8135  1.11851e+21
43.9308  1.08392e+21
44.0481  1.05998e+21
44.1654  1.05067e+21
44.2827  1.05765e+21
44.4  1.07968e+21
44.5173  1.11278e+21
44.6347  1.15089e+21
44.752  1.18711e+21
44.8693  1.21458e+21
44.9866  1.22853e+21
45.1039  1.22646e+21
45.2212  1.20899e+21
45.3385  1.17923e+21
45.4558  1.14239e+21
45.5731  1.10471e+21
45.6904  1.0718e+21
45.8077  1.04827e+21
45.925  1.03633e+21
46.0423  1.03641e+21
46.1596  1.0467e+21
46.2769  1.06447e+21
46.3942  1.08658e+21
46.5115  1.1099e+21
46.6288  1.13218e+21
46.7461  1.1523e+21
46.8634  1.16938e+21
46.9808  1.1835e+21
47.0981  1.19437e+21
47.2154  1.20181e+21
47.3327  1.20563e+21
47.45  1.20509e+21
47.5673  1.20059e+21
47.6846  1.19253e+21
47.8019  1.18286e+21
47.9192  1.17397e+21
48.0365  1.16873e+21
48.1538  1.16997e+21
48.2711  1.17964e+21
48.3884  1.19788e+21
48.5057  1.22343e+21
48.623  1.25301e+21
48.7403  1.28244e+21
48.8576  1.30716e+21
48.9749  1.32327e+21
49.0922  1.32826e+21
49.2095  1.32193e+21
49.3269  1.30585e+21
49.4442  1.28319e+21
49.5615  1.25809e+21
49.6788  1.23455e+21
49.7961  1.21578e+21
49.9134  1.20331e+21
50.0307  1.19717e+21
50.148  1.1963e+21
50.2653  1.19858e+21
50.3826  1.20192e+21
50.4999  1.20487e+21
50.6172  1.20616e+21
50.7345  1.20593e+21
50.8518  1.20406e+21
