#S 1 spectral density
#N 2
#UFWHM 31.907
#L  abscissas [um]  spectral density
-58.5938  1.9706e+20
-58.4764  1.88587e+20
-58.3591  1.80071e+20
-58.2418  1.74585e+20
-58.1245  1.74737e+20
-58.0072  1.82024e+20
-57.8899  1.96094e+20
-57.7726  2.14888e+20
-57.6553  2.34919e+20
-57.538  2.51964e+20
-57.4207  2.62125e+20
-57.3034  2.62751e+20
-57.1861  2.53121e+20
-57.0688  2.34797e+20
-56.9515  2.1121e+20
-56.8342  1.86918e+20
-56.7169  1.66839e+20
-56.5996  1.54807e+20
-56.4823  1.52938e+20
-56.365  1.61145e+20
-56.2477  1.77109e+20
-56.1303  1.9724e+20
-56.013  2.17124e+20
-55.8957  2.33075e+20
-55.7784  2.42776e+20
-55.6611  2.46023e+20
-55.5438  2.44393e+20
-55.4265  2.41007e+20
-55.3092  2.39361e+20
-55.1919  2.42517e+20
-55.0746  2.51939e+20
-54.9573  2.67328e+20
-54.84  2.86487e+20
-54.7227  3.06109e+20
-54.6054  3.22479e+20
-54.4881  3.32677e+20
-54.3708  3.35387e+20
-54.2535  3.31203e+20
-54.1362  3.22568e+20
-54.0189  3.12795e+20
-53.9016  3.05367e+20
-53.7842  3.0259e+20
-53.6669  3.05158e+20
-53.5496  3.11715e+20
-53.4323  3.19167e+20
-53.315  3.23846e+20
-53.1977  3.22357e+20
-53.0804  3.1294e+20
-52.9631  2.9587e+20
-52.8458  2.73552e+20
-52.7285  2.50268e+20
-52.6112  2.30617e+20
-52.4939  2.18616e+20
-52.3766  2.16416e+20
-52.2593  2.23629e+20
-52.142  2.37327e+20
-52.0247  2.52988e+20
-51.9074  2.65538e+20
-51.7901  2.70718e+20
-51.6728  2.6656e+20
-51.5555  2.53634e+20
-51.4381  2.35035e+20
-51.3208  2.15686e+20
-51.2035  2.00593e+20
-51.0862  1.93979e+20
-50.9689  1.97605e+20
-50.8516  2.10595e+20
-50.7343  2.29393e+20
-50.617  2.49079e+20
-50.4997  2.64356e+20
-50.3824  2.71259e+20
-50.2651  2.68091e+20
-50.1478  2.5601e+20
-50.0305  2.38426e+20
-49.9132  2.20302e+20
-49.7959  2.0665e+20
-49.6786  2.01121e+20
-49.5613  2.05301e+20
-49.444  2.18211e+20
-49.3267  2.36771e+20
-49.2094  2.56879e+20
-49.092  2.74483e+20
-48.9747  2.86894e+20
-48.8574  2.93388e+20
-48.7401  2.95297e+20
-48.6228  2.95444e+20
-48.5055  2.97104e+20
-48.3882  3.029e+20
-48.2709  3.13846e+20
-48.1536  3.28918e+20
-48.0363  3.45323e+20
-47.919  3.59285e+20
-47.8017  3.67135e+20
-47.6844  3.66664e+20
-47.5671  3.57646e+20
-47.4498  3.42048e+20
-47.3325  3.23946e+20
-47.2152  3.08059e+20
-47.0979  2.98679e+20
-46.9806  2.98367e+20
-46.8633  3.07351e+20
-46.7459  3.2329e+20
-46.6286  3.41729e+20
-46.5113  3.57356e+20
-46.394  3.65396e+20
-46.2767  3.62822e+20
-46.1594  3.49114e+20
-46.0421  3.26433e+20
-45.9248  2.99266e+20
-45.8075  2.73037e+20
-45.6902  2.53013e+20
-45.5729  2.42937e+20
-45.4556  2.44176e+20
-45.3383  2.55622e+20
-45.221  2.7384e+20
-45.1037  2.94152e+20
-44.9864  3.11894e+20
-44.8691  3.23451e+20
-44.7518  3.27069e+20
-44.6345  3.22985e+20
-44.5172  3.13395e+20
-44.3998  3.01452e+20
-44.2825  2.90381e+20
-44.1652  2.82687e+20
-44.0479  2.79118e+20
-43.9306  2.78998e+20
-43.8133  2.80163e+20
-43.696  2.79929e+20
-43.5787  2.75899e+20
-43.4614  2.66573e+20
-43.3441  2.52231e+20
-43.2268  2.34596e+20
-43.1095  2.1672e+20
-42.9922  2.02125e+20
-42.8749  1.93812e+20
-42.7576  1.93537e+20
-42.6403  2.01381e+20
-42.523  2.15474e+20
-42.4057  2.32671e+20
-42.2884  2.4925e+20
-42.171  2.6182e+20
-42.0537  2.68158e+20
-41.9364  2.67776e+20
-41.8191  2.61838e+20
-41.7018  2.52995e+20
-41.5845  2.44458e+20
-41.4672  2.39087e+20
-41.3499  2.38537e+20
-41.2326  2.4302e+20
-41.1153  2.5088e+20
-40.998  2.59458e+20
-40.8807  2.65757e+20
-40.7634  2.67376e+20
-40.6461  2.63177e+20
-40.5288  2.54082e+20
-40.4115  2.42561e+20
-40.2942  2.32183e+20
-40.1769  2.26882e+20
-40.0596  2.29548e+20
-39.9423  2.41273e+20
-39.825  2.61155e+20
-39.7076  2.8612e+20
-39.5903  3.11751e+20
-39.473  3.33414e+20
-39.3557  3.47351e+20
-39.2384  3.51794e+20
-39.1211  3.47284e+20
-39.0038  3.36765e+20
-38.8865  3.24631e+20
-38.7692  3.1574e+20
-38.6519  3.14129e+20
-38.5346  3.22142e+20
-38.4173  3.39612e+20
-38.3  3.64223e+20
-38.1827  3.92067e+20
-38.0654  4.18589e+20
-37.9481  4.40124e+20
-37.8308  4.54197e+20
-37.7135  4.6066e+20
-37.5962  4.6083e+20
-37.4789  4.57455e+20
-37.3615  4.53378e+20
-37.2442  4.50625e+20
-37.1269  4.49512e+20
-37.0096  4.49134e+20
-36.8923  4.47025e+20
-36.775  4.40554e+20
-36.6577  4.27656e+20
-36.5404  4.0813e+20
-36.4231  3.83668e+20
-36.3058  3.58122e+20
-36.1885  3.36529e+20
-36.0712  3.23899e+20
-35.9539  3.24113e+20
-35.8366  3.38398e+20
-35.7193  3.65135e+20
-35.602  3.99842e+20
-35.4847  4.36247e+20
-35.3674  4.6746e+20
-35.2501  4.8754e+20
-35.1328  4.93118e+20
-35.0154  4.83649e+20
-34.8981  4.61614e+20
-34.7808  4.31714e+20
-34.6635  3.99602e+20
-34.5462  3.7035e+20
-34.4289  3.47209e+20
-34.3116  3.31265e+20
-34.1943  3.21243e+20
-34.077  3.14103e+20
-33.9597  3.06555e+20
-33.8424  2.95915e+20
-33.7251  2.81282e+20
-33.6078  2.63848e+20
-33.4905  2.46369e+20
-33.3732  2.32704e+20
-33.2559  2.26386e+20
-33.1386  2.29393e+20
-33.0213  2.41761e+20
-32.904  2.6105e+20
-32.7867  2.83073e+20
-32.6693  3.03156e+20
-32.552  3.16978e+20
-32.4347  3.22445e+20
-32.3174  3.19866e+20
-32.2001  3.12412e+20
-32.0828  3.05285e+20
-31.9655  3.04603e+20
-31.8482  3.15808e+20
-31.7309  3.42378e+20
-31.6136  3.84989e+20
-31.4963  4.41347e+20
-31.379  5.066e+20
-31.2617  5.74337e+20
-31.1444  6.38288e+20
-31.0271  6.93084e+20
-30.9098  7.35463e+20
-30.7925  7.64459e+20
-30.6752  7.81281e+20
-30.5579  7.88128e+20
-30.4406  7.88062e+20
-30.3232  7.83417e+20
-30.2059  7.76067e+20
-30.0886  7.66904e+20
-29.9713  7.56574e+20
-29.854  7.46208e+20
-29.7367  7.3796e+20
-29.6194  7.35277e+20
-29.5021  7.43109e+20
-29.3848  7.6682e+20
-29.2675  8.11351e+20
-29.1502  8.80043e+20
-29.0329  9.734e+20
-28.9156  1.08835e+21
-28.7983  1.21878e+21
-28.681  1.35573e+21
-28.5637  1.48928e+21
-28.4464  1.60966e+21
-28.3291  1.70962e+21
-28.2118  1.78475e+21
-28.0944  1.83477e+21
-27.9771  1.86281e+21
-27.8598  1.87463e+21
-27.7425  1.87728e+21
-27.6252  1.87742e+21
-27.5079  1.88087e+21
-27.3906  1.89086e+21
-27.2733  1.90866e+21
-27.156  1.93404e+21
-27.0387  1.96547e+21
-26.9214  2.00182e+21
-26.8041  2.04268e+21
-26.6868  2.08836e+21
-26.5695  2.1404e+21
-26.4522  2.20057e+21
-26.3349  2.27053e+21
-26.2176  2.35073e+21
-26.1003  2.44086e+21
-25.983  2.53931e+21
-25.8657  2.6439e+21
-25.7483  2.75322e+21
-25.631  2.8673e+21
-25.5137  2.98805e+21
-25.3964  3.11994e+21
-25.2791  3.26982e+21
-25.1618  3.4453e+21
-25.0445  3.65377e+21
-24.9272  3.90111e+21
-24.8099  4.18988e+21
-24.6926  4.5192e+21
-24.5753  4.88375e+21
-24.458  5.27517e+21
-24.3407  5.68364e+21
-24.2234  6.09879e+21
-24.1061  6.51078e+21
-23.9888  6.9133e+21
-23.8715  7.30234e+21
-23.7542  7.67732e+21
-23.6369  8.04067e+21
-23.5196  8.3964e+21
-23.4023  8.74992e+21
-23.2849  9.10791e+21
-23.1676  9.47631e+21
-23.0503  9.86234e+21
-22.933  1.02738e+22
-22.8157  1.07193e+22
-22.6984  1.12077e+22
-22.5811  1.17488e+22
-22.4638  1.23507e+22
-22.3465  1.30199e+22
-22.2292  1.37588e+22
-22.1119  1.45648e+22
-21.9946  1.54292e+22
-21.8773  1.63386e+22
-21.76  1.72743e+22
-21.6427  1.82149e+22
-21.5254  1.91395e+22
-21.4081  2.00288e+22
-21.2908  2.08684e+22
-21.1735  2.16489e+22
-21.0561  2.23682e+22
-20.9388  2.30291e+22
-20.8215  2.36398e+22
-20.7042  2.42109e+22
-20.5869  2.47542e+22
-20.4696  2.5282e+22
-20.3523  2.58045e+22
-20.235  2.63307e+22
-20.1177  2.68678e+22
-20.0004  2.74218e+22
-19.8831  2.79964e+22
-19.7658  2.85944e+22
-19.6485  2.92172e+22
-19.5312  2.98626e+22
-19.4139  3.05268e+22
-19.2966  3.1203e+22
-19.1793  3.1881e+22
-19.062  3.25492e+22
-18.9447  3.31962e+22
-18.8274  3.38115e+22
-18.71  3.43869e+22
-18.5927  3.49195e+22
-18.4754  3.54101e+22
-18.3581  3.5864e+22
-18.2408  3.62893e+22
-18.1235  3.66957e+22
-18.0062  3.70918e+22
-17.8889  3.74841e+22
-17.7716  3.78757e+22
-17.6543  3.82664e+22
-17.537  3.86529e+22
-17.4197  3.90309e+22
-17.3024  3.93961e+22
-17.1851  3.97454e+22
-17.0678  4.00785e+22
-16.9505  4.03976e+22
-16.8332  4.07074e+22
-16.7159  4.10131e+22
-16.5986  4.13204e+22
-16.4813  4.16334e+22
-16.364  4.19551e+22
-16.2466  4.22868e+22
-16.1293  4.26285e+22
-16.012  4.29806e+22
-15.8947  4.3344e+22
-15.7774  4.37214e+22
-15.6601  4.41166e+22
-15.5428  4.45346e+22
-15.4255  4.49795e+22
-15.3082  4.54546e+22
-15.1909  4.59591e+22
-15.0736  4.64896e+22
-14.9563  4.70386e+22
-14.839  4.7596e+22
-14.7217  4.81504e+22
-14.6044  4.8691e+22
-14.4871  4.9209e+22
-14.3698  4.96987e+22
-14.2525  5.01594e+22
-14.1352  5.05927e+22
-14.0178  5.10038e+22
-13.9005  5.13993e+22
-13.7832  5.17856e+22
-13.6659  5.21684e+22
-13.5486  5.25525e+22
-13.4313  5.29415e+22
-13.314  5.33379e+22
-13.1967  5.37446e+22
-13.0794  5.41647e+22
-12.9621  5.46022e+22
-12.8448  5.50612e+22
-12.7275  5.55449e+22
-12.6102  5.60548e+22
-12.4929  5.65906e+22
-12.3756  5.71475e+22
-12.2583  5.77185e+22
-12.141  5.82942e+22
-12.0237  5.8864e+22
-11.9064  5.94183e+22
-11.7891  5.99499e+22
-11.6718  6.04551e+22
-11.5544  6.09342e+22
-11.4371  6.13907e+22
-11.3198  6.18313e+22
-11.2025  6.22631e+22
-11.0852  6.2693e+22
-10.9679  6.3125e+22
-10.8506  6.35608e+22
-10.7333  6.39991e+22
-10.616  6.44365e+22
-10.4987  6.4868e+22
-10.3814  6.52889e+22
-10.2641  6.56964e+22
-10.1468  6.60885e+22
-10.0295  6.64659e+22
-9.91217  6.6831e+22
-9.79487  6.71865e+22
-9.67756  6.75356e+22
-9.56026  6.7881e+22
-9.44295  6.82239e+22
-9.32565  6.85652e+22
-9.20834  6.89053e+22
-9.09104  6.92446e+22
-8.97373  6.95845e+22
-8.85643  6.99273e+22
-8.73913  7.0276e+22
-8.62182  7.06337e+22
-8.50452  7.10031e+22
-8.38721  7.13845e+22
-8.26991  7.17761e+22
-8.1526  7.21733e+22
-8.03529  7.25693e+22
-7.91799  7.29559e+22
-7.80069  7.33245e+22
-7.68338  7.36684e+22
-7.56608  7.3983e+22
-7.44877  7.42676e+22
-7.33146  7.45242e+22
-7.21416  7.47582e+22
-7.09685  7.49755e+22
-6.97955  7.51834e+22
-6.86224  7.53873e+22
-6.74494  7.55909e+22
-6.62763  7.57953e+22
-6.51033  7.60002e+22
-6.39302  7.62039e+22
-6.27572  7.64051e+22
-6.15842  7.66029e+22
-6.04111  7.67986e+22
-5.92381  7.6995e+22
-5.8065  7.71959e+22
-5.68919  7.74055e+22
-5.57189  7.7627e+22
-5.45458  7.78624e+22
-5.33728  7.81111e+22
-5.21997  7.83703e+22
-5.10267  7.86359e+22
-4.98536  7.89031e+22
-4.86806  7.91681e+22
-4.75075  7.94283e+22
-4.63345  7.96834e+22
-4.51614  7.99347e+22
-4.39884  8.01852e+22
-4.28154  8.04369e+22
-4.16423  8.06916e+22
-4.04692  8.0949e+22
-3.92962  8.12062e+22
-3.81231  8.1458e+22
-3.69501  8.16988e+22
-3.5777  8.19227e+22
-3.4604  8.21253e+22
-3.34309  8.23052e+22
-3.22579  8.24635e+22
-3.10849  8.26046e+22
-2.99118  8.27338e+22
-2.87387  8.28584e+22
-2.75657  8.2984e+22
-2.63926  8.31145e+22
-2.52196  8.32515e+22
-2.40465  8.33944e+22
-2.28735  8.3541e+22
-2.17005  8.36888e+22
-2.05274  8.38351e+22
-1.93544  8.39794e+22
-1.81813  8.41225e+22
-1.70083  8.42661e+22
-1.58352  8.44122e+22
-1.46622  8.45624e+22
-1.34891  8.47161e+22
-1.2316  8.4871e+22
-1.1143  8.50219e+22
-0.996995  8.5163e+22
-0.87969  8.52881e+22
-0.762385  8.53922e+22
-0.64508  8.54725e+22
-0.527775  8.55294e+22
-0.41047  8.55655e+22
-0.293165  8.55858e+22
-0.17586  8.55955e+22
-0.058555  8.55987e+22
0.05875  8.55978e+22
0.176055  8.5592e+22
0.29336  8.55779e+22
0.410665  8.55507e+22
0.52797  8.55051e+22
0.645275  8.54368e+22
0.76258  8.53439e+22
0.879885  8.52277e+22
0.99719  8.50917e+22
1.1145  8.49417e+22
1.2318  8.47846e+22
1.3491  8.46259e+22
1.46641  8.44697e+22
1.58371  8.43177e+22
1.70102  8.41696e+22
1.81832  8.40234e+22
1.93563  8.38767e+22
2.05294  8.37281e+22
2.17024  8.35772e+22
2.28754  8.34253e+22
2.40485  8.32752e+22
2.52216  8.31295e+22
2.63946  8.29901e+22
2.75677  8.28569e+22
2.87407  8.27276e+22
2.99137  8.25976e+22
3.10868  8.24606e+22
3.22599  8.23101e+22
3.34329  8.21409e+22
3.4606  8.19497e+22
3.5779  8.17366e+22
3.69521  8.15041e+22
3.81251  8.12573e+22
3.92982  8.1002e+22
4.04712  8.07439e+22
4.16443  8.04865e+22
4.28173  8.02318e+22
4.39903  7.99792e+22
4.51634  7.97262e+22
4.63364  7.94701e+22
4.75095  7.92085e+22
4.86825  7.89408e+22
4.98556  7.86687e+22
5.10286  7.83951e+22
5.22017  7.8125e+22
5.33748  7.78633e+22
5.45478  7.76137e+22
5.57209  7.73781e+22
5.68939  7.71564e+22
5.8067  7.6946e+22
5.924  7.67429e+22
6.0413  7.65432e+22
6.15861  7.63433e+22
6.27591  7.61408e+22
6.39322  7.59354e+22
6.51052  7.57286e+22
6.62783  7.55216e+22
6.74514  7.53159e+22
6.86244  7.51114e+22
6.97975  7.49058e+22
7.09705  7.4694e+22
7.21436  7.44701e+22
7.33166  7.42271e+22
7.44897  7.39587e+22
7.56627  7.3661e+22
7.68358  7.33328e+22
7.80088  7.29768e+22
7.91819  7.25986e+22
8.03549  7.22058e+22
8.1528  7.18069e+22
8.2701  7.14097e+22
8.38741  7.10204e+22
8.50471  7.0642e+22
8.62202  7.02759e+22
8.73932  6.99202e+22
8.85662  6.95723e+22
8.97393  6.92294e+22
9.09123  6.88886e+22
9.20854  6.85479e+22
9.32584  6.82065e+22
9.44315  6.7864e+22
9.56045  6.75197e+22
9.67776  6.71726e+22
9.79506  6.68205e+22
9.91237  6.64608e+22
10.0297  6.60902e+22
10.147  6.57061e+22
10.2643  6.53071e+22
10.3816  6.48938e+22
10.4989  6.44683e+22
10.6162  6.40351e+22
10.7335  6.35985e+22
10.8508  6.31632e+22
10.9681  6.27314e+22
11.0854  6.23031e+22
11.2027  6.18754e+22
11.32  6.1442e+22
11.4373  6.09962e+22
11.5546  6.05305e+22
11.6719  6.00395e+22
11.7893  5.95206e+22
11.9066  5.89754e+22
12.0239  5.84093e+22
12.1412  5.78307e+22
12.2585  5.72501e+22
12.3758  5.66783e+22
12.4931  5.61239e+22
12.6104  5.55933e+22
12.7277  5.50897e+22
12.845  5.46129e+22
12.9623  5.41605e+22
13.0796  5.37289e+22
13.1969  5.33139e+22
13.3142  5.29117e+22
13.4315  5.25187e+22
13.5488  5.21322e+22
13.6661  5.1749e+22
13.7834  5.1365e+22
13.9007  5.0975e+22
14.018  5.05728e+22
14.1354  5.01521e+22
14.2527  4.97071e+22
14.37  4.92338e+22
14.4873  4.8732e+22
14.6046  4.82046e+22
14.7219  4.76586e+22
14.8392  4.71037e+22
14.9565  4.65512e+22
15.0738  4.60121e+22
15.1911  4.54951e+22
15.3084  4.50061e+22
15.4257  4.45471e+22
15.543  4.41167e+22
15.6603  4.37105e+22
15.7776  4.33241e+22
15.8949  4.29528e+22
16.0122  4.25927e+22
16.1295  4.22423e+22
16.2468  4.19011e+22
16.3641  4.15695e+22
16.4815  4.12471e+22
16.5988  4.09327e+22
16.7161  4.06236e+22
16.8334  4.03149e+22
16.9507  4.00016e+22
17.068  3.9678e+22
17.1853  3.93407e+22
17.3026  3.89884e+22
17.4199  3.86219e+22
17.5372  3.82443e+22
17.6545  3.78599e+22
17.7718  3.74723e+22
17.8891  3.7083e+22
18.0064  3.66908e+22
18.1237  3.62906e+22
18.241  3.58751e+22
18.3583  3.54349e+22
18.4756  3.49611e+22
18.5929  3.44462e+22
18.7102  3.38875e+22
18.8275  3.32855e+22
18.9449  3.26464e+22
19.0622  3.19792e+22
19.1795  3.12957e+22
19.2968  3.0608e+22
19.4141  2.9927e+22
19.5314  2.92617e+22
19.6487  2.86177e+22
19.766  2.79983e+22
19.8833  2.74033e+22
20.0006  2.68313e+22
20.1179  2.62789e+22
20.2352  2.57412e+22
20.3525  2.52117e+22
20.4698  2.46832e+22
20.5871  2.41458e+22
20.7044  2.35881e+22
20.8217  2.29989e+22
20.939  2.23663e+22
21.0563  2.16806e+22
21.1736  2.09355e+22
21.291  2.01305e+22
21.4083  1.92707e+22
21.5256  1.83671e+22
21.6429  1.74368e+22
21.7602  1.65001e+22
21.8775  1.55782e+22
21.9948  1.46912e+22
22.1121  1.38565e+22
22.2294  1.30848e+22
22.3467  1.23821e+22
22.464  1.17486e+22
22.5813  1.11799e+22
22.6986  1.06688e+22
22.8159  1.02058e+22
22.9332  9.78197e+21
23.0505  9.38836e+21
23.1678  9.0171e+21
23.2851  8.66111e+21
23.4024  8.31341e+21
23.5198  7.96844e+21
23.6371  7.61981e+21
23.7544  7.26246e+21
23.8717  6.89323e+21
23.989  6.51067e+21
24.1063  6.11655e+21
24.2236  5.71588e+21
24.3409  5.31662e+21
24.4582  4.92849e+21
24.5755  4.56134e+21
24.6928  4.22506e+21
24.8101  3.9258e+21
24.9274  3.66687e+21
25.0447  3.44718e+21
25.162  3.26288e+21
25.2793  3.10704e+21
25.3966  2.97164e+21
25.5139  2.8498e+21
25.6312  2.73568e+21
25.7485  2.62636e+21
25.8658  2.52101e+21
25.9832  2.42068e+21
26.1005  2.32787e+21
26.2178  2.24459e+21
26.3351  2.17207e+21
26.4524  2.11056e+21
26.5697  2.05879e+21
26.687  2.01507e+21
26.8043  1.9773e+21
26.9216  1.94437e+21
27.0389  1.91581e+21
27.1562  1.89228e+21
27.2735  1.87486e+21
27.3908  1.86429e+21
27.5081  1.86016e+21
27.6254  1.86017e+21
27.7427  1.86006e+21
27.86  1.85386e+21
27.9773  1.83455e+21
28.0946  1.796e+21
28.212  1.7336e+21
28.3293  1.64618e+21
28.4466  1.53582e+21
28.5639  1.40873e+21
28.6812  1.27321e+21
28.7985  1.13921e+21
28.9158  1.01614e+21
29.0331  9.11782e+20
29.1504  8.30783e+20
29.2677  7.74448e+20
29.385  7.40737e+20
29.5023  7.25659e+20
29.6196  7.23809e+20
29.7369  7.29899e+20
29.8542  7.39651e+20
29.9715  7.5028e+20
30.0888  7.6008e+20
30.2061  7.68479e+20
30.3234  7.74727e+20
30.4407  7.7772e+20
30.558  7.75327e+20
30.6754  7.6506e+20
30.7927  7.44265e+20
30.91  7.10816e+20
31.0273  6.64541e+20
31.1446  6.07162e+20
31.2619  5.42923e+20
31.3792  4.77327e+20
31.4965  4.16855e+20
31.6138  3.67243e+20
31.7311  3.32225e+20
31.8484  3.1289e+20
31.9657  3.07461e+20
32.083  3.11443e+20
32.2003  3.19028e+20
32.3176  3.24547e+20
32.4349  3.23474e+20
32.5522  3.13779e+20
32.6695  2.96233e+20
32.7868  2.73888e+20
32.9042  2.51407e+20
33.0215  2.33481e+20
33.1388  2.23685e+20
33.2561  2.23603e+20
33.3734  2.32524e+20
33.4907  2.47695e+20
33.608  2.65365e+20
33.7253  2.82038e+20
33.8426  2.95297e+20
33.9599  3.04838e+20
34.0772  3.12257e+20
34.1945  3.20431e+20
34.3118  3.327e+20
34.4291  3.51479e+20
34.5464  3.77179e+20
34.6637  4.07922e+20
34.781  4.39506e+20
34.8983  4.66597e+20
35.0156  4.83743e+20
35.1329  4.87021e+20
35.2503  4.75018e+20
35.3676  4.49449e+20
35.4849  4.14902e+20
35.6022  3.77878e+20
35.7195  3.45196e+20
35.8368  3.22826e+20
35.9541  3.14217e+20
36.0714  3.19823e+20
36.1887  3.372e+20
36.306  3.61917e+20
36.4233  3.88547e+20
36.5406  4.12392e+20
36.6579  4.301e+20
36.7752  4.40687e+20
36.8925  4.45255e+20
37.0098  4.46207e+20
37.1271  4.46317e+20
37.2444  4.4772e+20
37.3617  4.50947e+20
37.479  4.5497e+20
37.5964  4.57477e+20
37.7137  4.55435e+20
37.831  4.46601e+20
37.9483  4.30225e+20
38.0656  4.07204e+20
38.1829  3.80562e+20
38.3002  3.54502e+20
38.4175  3.3341e+20
38.5348  3.20571e+20
38.6521  3.17425e+20
38.7694  3.23016e+20
38.8867  3.34042e+20
39.004  3.45985e+20
39.1213  3.53877e+20
39.2386  3.53804e+20
39.3559  3.43966e+20
39.4732  3.24999e+20
39.5905  2.99782e+20
39.7078  2.72781e+20
39.8251  2.4892e+20
39.9425  2.32183e+20
40.0598  2.24788e+20
40.1771  2.26774e+20
40.2944  2.35739e+20
40.4117  2.48107e+20
40.529  2.59751e+20
40.6463  2.67349e+20
40.7636  2.68943e+20
40.8809  2.64635e+20
40.9982  2.56327e+20
41.1155  2.46982e+20
41.2328  2.39747e+20
41.3501  2.36939e+20
41.4674  2.39519e+20
41.5847  2.46457e+20
41.702  2.55503e+20
41.8193  2.63295e+20
41.9366  2.66822e+20
42.0539  2.63923e+20
42.1712  2.54224e+20
42.2885  2.39005e+20
42.4059  2.21249e+20
42.5232  2.04619e+20
42.6405  1.92813e+20
42.7578  1.88387e+20
42.8751  1.92254e+20
42.9924  2.03464e+20
43.1097  2.19663e+20
43.227  2.37383e+20
43.3443  2.53381e+20
43.4616  2.65211e+20
43.5789  2.71799e+20
43.6962  2.73859e+20
43.8135  2.73404e+20
43.9308  2.7306e+20
44.0481  2.75218e+20
44.1654  2.8146e+20
44.2827  2.91609e+20
44.4  3.04033e+20
44.5173  3.15835e+20
44.6347  3.23713e+20
44.752  3.24932e+20
44.8693  3.18117e+20
44.9866  3.03931e+20
45.1039  2.85004e+20
45.2212  2.65474e+20
45.3385  2.50059e+20
45.4558  2.42843e+20
45.5731  2.46287e+20
45.6904  2.60483e+20
45.8077  2.83033e+20
45.925  3.09626e+20
46.0423  3.34828e+20
46.1596  3.53695e+20
46.2769  3.62713e+20
46.3942  3.60719e+20
46.5115  3.49313e+20
46.6288  3.3225e+20
46.7461  3.14446e+20
46.8634  3.00914e+20
46.9808  2.95337e+20
47.0981  2.99013e+20
47.2154  3.10984e+20
47.3327  3.27988e+20
47.45  3.45603e+20
47.5673  3.59252e+20
47.6846  3.6579e+20
47.8019  3.63865e+20
47.9192  3.54319e+20
48.0365  3.39978e+20
48.1538  3.24452e+20
48.2711  3.11011e+20
48.3884  3.01842e+20
48.5057  2.97321e+20
48.623  2.95747e+20
48.7403  2.94427e+20
48.8576  2.90275e+20
48.9749  2.81015e+20
49.0922  2.66101e+20
49.2095  2.4706e+20
49.3269  2.27157e+20
49.4442  2.10465e+20
49.5615  2.00724e+20
49.6788  2.00348e+20
49.7961  2.09321e+20
49.9134  2.25242e+20
50.0307  2.43851e+20
50.148  2.59969e+20
50.2653  2.69101e+20
50.3826  2.68521e+20
50.4999  2.58231e+20
50.6172  2.40772e+20
50.7345  2.20823e+20
50.8518  2.03723e+20
